NAME :  X-n670-kX-w133-c11.cctp
COMMENT : 	Adapted by Maziero, Usberti and Cavellucci from the Uchoa, Pecin, Pessoa, Poggi, Subramanian, and Vidal (2013)
TYPE :  CCTP
DIMENSION :    650
EDGE_WEIGHT_TYPE : 	EUC_2D	
CAPACITY : 	129
VERTICES_WITHIN_COVERAGE :  11
VERTICES_WITH_DEMAND : 	133
NODE_COORD_SECTION
1 612 199
2 864 279
3 746 395
4 738 519
5 684 851
6 806 263
7 867 314
8 637 357
9 64 531
10 803 657
11 22 330
12 634 731
13 351 945
14 240 812
15 664 595
16 775 1000
17 971 313
18 953 717
19 317 25
20 812 410
21 677 874
22 731 504
23 89 803
24 697 604
25 53 379
26 817 947
27 164 875
28 86 108
29 9 596
30 406 956
31 304 456
32 843 846
33 285 809
34 148 84
35 349 524
36 527 626
37 947 317
38 646 27
39 718 325
40 906 651
41 889 936
42 953 118
43 908 868
44 447 13
45 335 495
46 77 834
47 992 428
48 826 196
49 337 341
50 482 288
51 123 49
52 415 572
53 274 837
54 581 738
55 33 36
56 795 906
57 353 858
58 242 80
59 532 464
60 246 853
61 109 299
62 285 353
63 5 669
64 255 457
65 909 568
66 986 234
67 920 756
68 7 655
69 441 88
70 569 543
71 317 94
72 897 775
73 226 802
74 716 738
75 320 820
76 15 31
77 114 664
78 60 419
79 629 333
80 662 34
81 780 143
82 689 829
83 19 801
84 836 281
85 227 730
86 640 347
87 850 655
88 742 663
89 290 424
90 407 997
91 553 92
92 286 957
93 129 245
94 435 940
95 141 578
96 578 334
97 732 726
98 624 979
99 705 340
100 431 858
101 416 416
102 826 58
103 913 873
104 862 977
105 326 380
106 344 764
107 512 437
108 589 34
109 937 700
110 439 819
111 826 559
112 535 764
113 547 971
114 822 590
115 257 530
116 324 789
117 788 804
118 156 583
119 788 907
120 788 123
121 115 327
122 561 946
123 477 11
124 455 671
125 317 685
126 105 965
127 962 433
128 62 729
129 5 534
130 314 568
131 957 527
132 47 482
133 123 549
134 665 826
135 756 911
136 50 508
137 439 921
138 86 447
139 731 971
140 417 273
141 52 855
142 463 281
143 832 357
144 693 636
145 890 71
146 131 820
147 85 486
148 130 344
149 381 694
150 98 41
151 182 538
152 78 818
153 954 175
154 555 470
155 4 246
156 925 867
157 546 678
158 717 485
159 958 891
160 980 240
161 306 252
162 925 566
163 105 781
164 812 738
165 337 94
166 96 457
167 713 619
168 815 673
169 193 37
170 229 668
171 750 998
172 713 377
173 383 57
174 898 976
175 388 899
176 57 697
177 869 771
178 755 921
179 504 197
180 727 494
181 564 932
182 30 311
183 175 156
184 429 144
185 836 939
186 35 719
187 183 932
188 200 42
189 6 329
190 656 984
191 515 67
192 904 97
193 850 281
194 858 708
195 856 1
196 732 232
197 92 113
198 183 762
199 99 558
200 703 888
201 914 786
202 255 781
203 838 456
204 167 519
205 448 397
206 273 665
207 869 804
208 300 97
209 282 690
210 514 82
211 694 598
212 606 610
213 955 545
214 835 965
215 418 558
216 458 484
217 169 8
218 242 978
219 395 462
220 739 169
221 29 177
222 983 512
223 28 353
224 195 905
225 549 395
226 132 282
227 180 133
228 267 75
229 459 577
230 354 814
231 499 941
232 59 558
233 931 901
234 666 528
235 909 551
236 208 677
237 386 600
238 869 521
239 622 830
240 953 797
241 92 906
242 803 785
243 762 251
244 957 6
245 294 309
246 68 61
247 207 587
248 431 633
249 760 373
250 991 448
251 88 318
252 603 258
253 593 372
254 621 298
255 265 137
256 852 404
257 599 648
258 41 925
259 17 702
260 198 753
261 893 251
262 278 581
263 458 655
264 15 767
265 953 259
266 189 538
267 139 439
268 306 589
269 528 43
270 434 633
271 359 900
272 60 422
273 245 738
274 307 647
275 919 921
276 398 706
277 0 149
278 542 28
279 13 415
280 81 655
281 878 63
282 292 936
283 952 248
284 763 701
285 380 49
286 356 176
287 427 729
288 98 852
289 945 802
290 262 472
291 3 108
292 130 746
293 794 150
294 16 297
295 757 663
296 529 867
297 981 443
298 82 768
299 839 433
300 670 588
301 883 41
302 874 141
303 981 726
304 133 673
305 709 822
306 258 312
307 993 615
308 199 777
309 995 677
310 56 320
311 259 438
312 353 945
313 102 17
314 543 844
315 248 300
316 783 112
317 726 266
318 944 700
319 2 569
320 880 608
321 383 363
322 940 348
323 644 381
324 738 647
325 925 264
326 164 391
327 871 137
328 655 838
329 24 441
330 703 67
331 462 4
332 630 680
333 688 380
334 597 758
335 774 414
336 869 62
337 748 82
338 337 487
339 239 564
340 277 764
341 365 569
342 370 415
343 872 918
344 527 371
345 595 345
346 761 704
347 745 698
348 552 38
349 864 223
350 575 418
351 585 637
352 482 633
353 61 319
354 350 533
355 98 246
356 707 298
357 544 935
358 816 701
359 393 463
360 250 586
361 426 554
362 658 570
363 99 899
364 778 1
365 689 736
366 704 155
367 675 682
368 405 693
369 390 804
370 486 361
371 905 954
372 204 948
373 168 343
374 739 482
375 403 374
376 700 693
377 739 711
378 900 705
379 111 617
380 367 999
381 395 526
382 611 607
383 800 873
384 138 574
385 508 172
386 217 654
387 566 346
388 895 268
389 26 302
390 264 705
391 337 760
392 975 574
393 981 331
394 2 508
395 368 849
396 666 120
397 888 203
398 740 867
399 712 181
400 695 582
401 74 819
402 864 81
403 810 168
404 400 966
405 924 776
406 979 276
407 105 134
408 433 571
409 497 386
410 704 274
411 712 142
412 62 350
413 276 320
414 232 190
415 589 261
416 578 815
417 979 553
418 569 491
419 247 101
420 106 580
421 125 281
422 376 586
423 915 744
424 742 479
425 513 366
426 885 281
427 191 889
428 509 202
429 402 151
430 292 387
431 491 202
432 434 328
433 816 33
434 769 86
435 504 328
436 63 922
437 92 533
438 787 990
439 123 301
440 775 517
441 238 923
442 794 427
443 485 623
444 716 603
445 384 901
446 208 400
447 17 138
448 952 175
449 953 960
450 863 568
451 645 528
452 473 40
453 567 988
454 665 5
455 300 160
456 281 999
457 44 4
458 763 761
459 390 315
460 37 567
461 330 676
462 667 799
463 526 664
464 230 780
465 824 302
466 969 848
467 19 766
468 675 686
469 876 329
470 836 902
471 386 574
472 18 851
473 292 841
474 516 721
475 848 931
476 233 856
477 833 61
478 833 332
479 824 67
480 121 796
481 707 857
482 690 527
483 442 109
484 811 783
485 79 234
486 568 362
487 29 570
488 259 444
489 570 840
490 26 660
491 618 855
492 753 424
493 747 462
494 202 510
495 444 757
496 406 880
497 635 529
498 310 765
499 444 966
500 660 987
501 211 608
502 143 544
503 759 555
504 784 434
505 906 911
506 575 734
507 234 493
508 377 928
509 102 786
510 54 485
511 917 138
512 866 690
513 108 715
514 556 739
515 4 955
516 300 357
517 844 603
518 107 934
519 374 477
520 334 958
521 444 99
522 226 253
523 888 24
524 934 938
525 672 417
526 773 618
527 282 880
528 748 850
529 367 534
530 310 838
531 625 343
532 379 388
533 949 696
534 605 114
535 812 229
536 884 888
537 914 913
538 125 541
539 65 369
540 268 824
541 335 460
542 545 601
543 436 107
544 996 311
545 367 379
546 238 666
547 304 808
548 479 607
549 741 978
550 784 502
551 878 347
552 587 607
553 264 329
554 464 763
555 691 618
556 140 350
557 326 770
558 763 494
559 108 29
560 413 515
561 390 406
562 870 632
563 823 5
564 631 919
565 501 606
566 174 503
567 352 487
568 476 22
569 780 505
570 772 324
571 547 428
572 580 425
573 926 505
574 960 705
575 81 301
576 30 367
577 717 772
578 737 141
579 962 592
580 866 231
581 510 737
582 309 524
583 18 304
584 580 38
585 739 598
586 581 633
587 413 455
588 618 953
589 415 820
590 665 638
591 135 578
592 880 775
593 629 631
594 371 600
595 501 223
596 215 451
597 49 525
598 718 972
599 932 564
600 424 764
601 423 93
602 72 355
603 286 840
604 75 872
605 410 700
606 51 518
607 992 644
608 407 141
609 303 414
610 224 557
611 711 483
612 401 128
613 933 250
614 46 598
615 562 503
616 115 157
617 829 113
618 304 785
619 617 993
620 188 816
621 727 298
622 612 777
623 398 880
624 334 458
625 65 991
626 912 247
627 846 703
628 485 768
629 972 386
630 502 763
631 96 937
632 329 97
633 892 400
634 639 318
635 34 810
636 147 837
637 598 9
638 129 390
639 689 739
640 187 735
641 344 952
642 263 610
643 665 405
644 906 931
645 212 478
646 784 249
647 647 257
648 456 454
649 615 858
650 385 722
DEMAND_SECTION
2 50
3 86
4 94
5 54
6 57
7 52
8 66
9 76
10 69
11 57
12 77
13 94
14 64
15 79
16 91
17 55
18 79
19 68
20 51
21 93
22 91
23 68
24 51
25 93
26 91
27 91
28 59
29 76
30 57
31 96
32 97
33 69
34 83
35 58
36 56
37 81
38 96
39 52
40 86
41 78
42 92
43 67
44 56
45 56
46 51
47 91
48 93
49 73
50 70
51 77
52 91
53 64
54 81
55 76
56 51
57 75
58 81
59 57
60 50
61 80
62 53
63 86
64 61
65 62
66 100
67 94
68 89
69 88
70 52
71 60
72 83
73 79
74 64
75 82
76 72
77 90
78 72
79 51
80 88
81 82
82 78
83 80
84 82
85 98
86 70
87 74
88 61
89 88
90 51
91 60
92 57
93 84
94 65
95 57
96 51
97 77
98 63
99 55
100 53
101 88
102 90
103 89
104 70
105 94
106 50
107 62
108 87
109 56
110 89
111 73
112 88
113 94
114 63
115 90
116 86
117 53
118 70
119 75
120 92
121 94
122 67
123 59
124 94
125 52
126 52
127 71
128 79
129 76
130 87
131 54
132 63
133 92
134 69
COVERAGE_SECTION
2 11 193 426 84 388 7 261 465 580 469 349 626 
3 11 249 492 335 172 504 442 333 493 20 99 39 
4 11 22 180 558 374 440 158 424 503 569 611 482 
5 11 82 21 481 134 328 305 200 462 398 528 239 
6 11 646 84 535 465 243 193 2 580 48 349 570 
7 11 469 2 551 193 426 478 84 465 388 143 261 
8 11 86 531 79 323 634 345 253 333 643 254 96 
9 11 597 606 136 232 437 199 460 510 147 132 487 
10 11 168 295 358 87 526 284 88 346 627 324 517 
11 11 189 182 223 583 389 294 310 576 353 412 602 
12 11 334 332 622 54 365 639 506 468 367 376 462 
13 11 312 641 520 508 271 404 445 30 380 175 282 
14 11 73 540 202 464 60 53 33 476 620 308 603 
15 11 300 362 211 24 400 555 590 144 593 444 382 
16 11 438 171 549 139 598 26 214 178 185 104 135 
17 11 393 37 544 406 322 265 325 283 629 160 613 
18 11 574 318 533 109 303 423 67 378 309 405 201 
19 11 285 71 228 165 173 632 208 58 419 188 255 
20 11 442 299 504 335 256 203 143 492 249 3 478 
21 11 5 200 481 328 82 134 305 491 398 564 649 
22 11 180 4 374 158 424 611 558 493 440 482 569 
23 11 152 509 401 163 46 480 298 146 288 635 141 
24 11 211 555 444 167 400 300 144 15 585 590 362 
25 11 539 576 412 602 223 78 272 279 11 310 353 
26 11 185 214 475 56 119 470 438 104 343 178 16 
27 11 427 636 224 187 146 620 363 288 476 241 518 
28 11 197 407 246 616 34 150 51 447 559 291 55 
29 11 319 487 614 460 68 129 232 490 63 597 9 
30 11 404 94 499 508 90 137 312 13 380 445 175 
31 11 624 541 89 609 290 338 488 311 64 45 567 
32 11 207 383 470 536 43 117 484 242 103 56 343 
33 11 547 540 53 603 618 473 75 530 202 116 14 
34 11 51 227 197 169 28 150 407 188 559 183 217 
35 11 354 529 45 567 338 582 381 341 519 130 471 
36 11 542 565 463 443 352 548 586 157 351 552 257 
37 11 17 322 393 544 406 325 265 613 283 388 426 
38 11 80 454 637 108 584 330 348 396 534 278 91 
39 11 99 621 356 172 410 570 317 333 249 3 634 
40 11 562 320 378 87 512 109 318 533 194 574 517 
41 11 644 371 343 505 275 537 174 475 524 536 104 
42 11 511 192 153 448 145 302 327 281 402 336 301 
43 11 103 156 536 233 505 537 275 159 343 644 466 
44 11 331 123 568 452 69 285 173 601 269 521 191 
45 11 338 567 35 541 624 582 354 519 31 529 359 
46 11 401 152 288 23 141 604 635 509 146 480 163 
47 11 297 250 127 629 222 322 393 573 633 131 17 
48 11 403 535 349 580 293 397 646 6 81 302 327 
49 11 516 105 545 321 62 245 459 532 430 413 375 
50 10 142 435 432 140 595 370 425 431 428 179 
51 11 559 150 313 34 246 217 28 169 197 188 407 
52 11 215 408 361 471 237 422 229 341 381 594 560 
53 11 603 540 473 33 60 530 14 547 527 476 75 
54 11 506 514 334 622 12 112 474 157 581 332 416 
55 11 76 457 246 150 313 559 291 28 51 197 447 
56 11 119 383 135 470 178 26 185 475 398 214 528 
57 11 395 271 230 530 75 623 445 175 496 473 369 
58 11 419 228 188 208 255 169 71 227 632 19 34 
59 10 154 107 571 418 615 572 350 225 216 648 
60 11 476 53 540 14 603 527 473 73 33 427 530 
61 11 439 421 251 575 121 226 148 353 355 310 93 
62 11 516 553 413 430 245 105 306 49 609 315 89 
63 11 68 490 259 186 176 29 280 614 128 467 264 
64 11 488 290 311 596 507 89 645 31 609 115 446 
65 11 162 235 599 450 320 213 579 238 131 573 392 
66 11 160 283 265 406 613 153 325 448 626 544 17 
67 11 423 405 72 201 592 18 289 177 240 378 109 
68 11 63 490 259 29 176 614 186 280 319 487 128 
69 11 521 601 543 483 184 612 452 608 173 285 210 
70 10 615 418 542 552 497 154 212 382 451 59 
71 11 632 208 165 228 255 455 19 419 58 173 285 
72 11 592 201 405 177 67 423 207 289 240 378 194 
73 11 14 464 202 308 620 540 476 60 260 33 53 
74 11 97 365 639 577 377 376 347 458 346 284 468 
75 11 547 530 116 230 473 33 618 603 53 57 557 
76 11 55 457 246 291 150 313 559 28 447 51 197 
77 11 304 280 379 513 176 128 292 420 490 591 95 
78 11 272 138 25 329 279 539 166 576 132 602 510 
79 11 531 86 634 8 254 345 323 96 253 387 486 
80 11 38 454 330 637 108 584 396 337 534 348 411 
81 11 293 120 316 403 578 220 617 434 411 337 48 
82 11 305 5 134 481 328 462 21 200 528 398 577 
83 11 635 264 467 472 401 152 141 46 23 298 128 
84 11 193 465 2 6 7 426 478 535 580 388 646 
85 11 273 260 640 390 464 198 308 236 202 340 170 
86 11 8 531 79 634 323 345 253 254 333 96 643 
87 11 562 512 168 10 627 517 194 40 320 358 114 
88 11 295 324 347 284 346 377 376 167 526 144 10 
89 11 609 311 31 430 488 64 290 624 105 541 516 
90 11 404 380 30 499 94 312 508 13 641 137 520 
91 11 210 191 348 269 534 584 278 108 385 637 452 
92 11 282 456 520 218 641 441 13 312 527 372 380 
93 11 355 421 226 485 439 61 575 121 251 616 522 
94 11 137 499 30 404 508 175 90 231 445 496 623 
95 11 384 591 118 133 502 420 538 199 379 151 266 
96 11 387 345 486 253 531 79 254 8 86 344 634 
97 11 377 74 347 346 284 365 639 376 458 577 88 
98 11 619 588 190 500 453 564 122 181 113 357 598 
99 11 39 172 356 333 621 249 86 410 3 570 8 
100 11 496 110 623 589 175 137 395 445 369 57 94 
101 11 561 205 587 375 342 532 219 359 648 545 321 
102 11 477 479 433 336 402 281 563 617 301 195 434 
103 11 43 156 233 536 505 537 159 275 644 343 466 
104 11 214 174 185 475 41 371 26 343 644 438 470 
105 11 430 516 49 545 609 62 532 342 89 321 561 
106 11 391 557 116 498 618 230 547 650 75 369 340 
107 11 59 571 409 154 225 648 350 344 572 425 216 
108 11 584 637 348 278 38 269 91 80 191 454 534 
109 11 318 533 18 574 378 423 303 40 67 309 512 
110 10 589 100 369 600 554 495 496 628 623 395 
111 11 114 450 517 238 440 503 550 569 320 526 65 
112 11 514 630 581 474 506 628 54 334 416 554 622 
113 11 453 122 357 181 231 588 619 98 564 499 296 
114 11 517 111 450 526 320 562 10 87 503 168 238 
115 11 339 610 507 582 262 360 290 494 266 130 645 
116 11 557 618 498 547 75 106 391 230 33 530 340 
117 11 242 484 458 528 32 164 383 577 398 207 305 
118 11 95 384 591 502 133 420 247 151 538 266 379 
119 11 56 135 178 383 470 26 185 398 475 528 214 
120 11 316 81 293 434 617 403 578 337 220 479 102 
121 11 148 439 251 61 556 575 421 226 602 353 373 
122 11 181 357 113 453 588 231 98 619 564 296 190 
123 11 568 331 452 44 269 278 191 210 348 69 521 
124 11 263 270 248 352 605 368 443 287 276 548 463 
125 11 461 209 274 206 390 149 650 391 498 546 106 
126 11 631 518 625 241 436 363 258 187 604 372 515 
127 11 297 47 250 629 633 573 222 322 131 393 213 
128 11 186 176 298 513 259 467 264 163 292 509 280 
129 11 394 319 487 597 460 606 136 9 232 29 132 
130 11 268 262 582 354 341 35 529 422 594 360 642 
131 11 213 222 417 573 599 162 392 235 65 579 250 
132 11 510 136 606 147 597 329 9 138 394 166 272 
133 11 538 502 199 384 591 95 420 437 118 204 151 
134 11 328 82 462 5 239 305 21 481 491 649 622 
135 11 178 119 56 398 200 383 528 139 549 26 598 
136 11 606 597 510 132 9 147 394 437 232 129 460 
137 11 94 499 30 496 175 623 445 404 508 231 100 
138 11 166 272 78 147 510 132 267 329 136 638 25 
139 11 549 598 171 16 178 438 135 500 190 119 200 
140 8 142 459 432 50 321 595 375 431 
141 11 604 46 472 401 152 288 635 83 23 363 241 
142 10 50 140 432 435 595 459 370 431 428 179 
143 11 478 551 256 469 7 465 20 570 249 633 84 
144 11 555 167 590 24 211 444 324 367 15 300 468 
145 11 281 336 402 192 301 523 477 102 479 327 302 
146 11 636 480 23 509 288 163 152 46 401 620 27 
147 11 166 510 132 138 136 606 437 9 597 538 272 
148 11 556 121 373 439 638 251 61 326 602 226 421 
149 10 276 368 650 605 461 287 125 124 106 248 
150 11 559 313 51 246 55 457 34 28 197 217 76 
151 11 266 204 494 566 502 610 118 247 95 384 538 
152 11 401 46 23 288 509 141 635 163 480 298 146 
153 11 448 511 42 66 160 397 283 613 626 265 302 
154 9 59 418 615 571 572 107 350 70 225 
155 8 294 389 583 182 221 485 189 11 
156 11 103 43 233 159 536 537 466 505 275 644 289 
157 11 463 474 36 351 586 257 514 506 54 581 542 
158 10 611 180 374 22 424 493 4 558 482 440 
159 9 233 156 466 103 275 537 524 43 505 
160 11 66 283 265 406 613 325 626 153 448 544 17 
161 9 245 413 315 306 522 553 286 455 49 
162 11 599 65 235 213 579 131 392 417 573 320 450 
163 11 509 480 298 23 292 152 146 401 46 513 128 
164 11 358 484 242 627 458 194 284 346 168 177 117 
165 11 632 71 208 173 285 19 612 228 455 255 286 
166 10 138 147 267 272 510 78 132 136 329 638 
167 11 444 24 555 144 211 585 324 400 590 88 300 
168 11 10 358 87 627 512 194 284 295 346 164 526 
169 11 188 217 34 58 51 228 419 559 313 150 227 
170 11 546 386 236 206 390 209 85 501 642 273 640 
171 11 549 16 139 438 598 178 26 135 214 500 190 
172 11 333 3 99 249 39 643 525 492 323 335 8 
173 11 285 601 165 69 632 19 543 612 521 71 44 
174 11 371 104 41 644 524 449 275 214 343 505 537 
175 11 445 623 496 271 508 57 395 137 312 13 100 
176 11 186 128 259 280 490 513 63 68 77 298 467 
177 11 592 72 207 201 67 423 405 484 194 164 242 
178 11 135 119 56 139 398 549 200 598 383 26 528 
179 9 428 431 385 595 184 142 50 415 483 
180 11 22 158 374 611 424 4 558 493 482 440 569 
181 11 122 357 113 453 588 231 564 296 98 619 314 
182 11 389 583 294 11 310 189 353 223 412 575 576 
183 11 227 616 414 407 34 419 255 197 93 28 58 
184 9 608 429 612 483 543 521 601 69 286 
185 11 475 26 214 470 343 104 41 56 119 536 644 
186 11 259 128 176 467 264 63 490 298 68 513 280 
187 11 372 224 427 441 27 218 518 126 631 363 476 
188 11 169 217 58 34 228 419 51 227 559 313 150 
189 11 11 583 182 223 294 389 576 310 353 412 25 
190 11 500 98 619 588 598 564 139 549 453 171 122 
191 11 210 269 91 278 348 452 568 123 584 69 521 
192 11 145 281 402 511 336 327 42 302 301 523 617 
193 11 2 84 465 426 7 388 6 261 580 478 469 
194 11 627 512 378 358 87 164 168 177 423 592 10 
195 11 563 523 301 433 336 102 477 281 479 145 364 
196 11 317 243 410 399 646 220 621 356 6 535 366 
197 11 28 407 616 246 34 51 150 447 559 291 221 
198 11 260 308 640 464 85 620 292 73 273 480 202 
199 11 420 133 437 538 232 591 384 9 502 95 379 
200 11 21 481 5 398 135 528 82 178 305 328 134 
201 11 405 72 67 289 592 240 423 177 207 18 43 
202 11 464 340 14 73 33 273 540 618 308 547 498 
203 11 299 20 442 256 504 550 238 569 335 633 558 
204 11 566 151 266 502 494 538 133 645 384 95 118 
205 11 101 409 375 370 648 561 587 432 532 425 321 
206 11 209 546 274 390 170 125 642 386 461 236 273 
207 11 592 177 72 201 32 405 484 242 67 43 289 
208 11 71 632 165 228 255 419 58 455 19 173 285 
209 11 390 206 125 274 461 546 170 273 85 340 386 
210 11 191 91 269 348 452 278 568 521 69 483 584 
211 11 24 400 555 444 300 167 15 144 585 362 590 
212 11 382 552 593 351 586 257 15 542 590 362 300 
213 11 131 417 599 392 162 222 235 579 573 65 307 
214 11 26 185 104 475 438 343 41 470 174 16 56 
215 11 361 52 408 471 381 560 229 422 237 341 529 
216 11 648 587 560 219 359 107 381 59 361 101 215 
217 11 169 188 51 559 313 150 34 58 246 228 419 
218 11 456 372 92 441 282 187 224 520 427 641 527 
219 11 359 587 519 567 101 342 560 561 541 624 648 
220 11 578 399 366 411 81 293 196 120 403 316 243 
221 8 277 447 155 291 485 407 616 28 
222 11 131 417 213 573 392 250 297 599 162 127 579 
223 11 576 11 189 412 25 539 182 310 602 353 583 
224 11 427 187 27 372 441 476 60 636 218 620 527 
225 11 344 571 350 486 572 425 253 387 409 107 96 
226 11 421 439 61 93 121 355 575 251 148 556 373 
227 11 183 34 616 419 407 414 58 255 197 188 28 
228 11 58 419 208 71 255 632 19 165 188 169 455 
229 11 408 548 361 52 215 565 443 270 352 248 471 
230 11 75 369 395 116 57 530 547 106 557 391 618 
231 11 357 113 499 122 137 94 181 296 453 30 404 
232 11 460 9 487 597 199 437 606 614 136 420 319 
233 11 537 275 505 159 103 156 524 644 43 536 41 
234 11 451 482 497 362 300 400 611 15 158 22 180 
235 11 65 162 599 213 450 573 238 131 320 579 392 
236 11 170 386 546 85 640 390 206 501 273 209 304 
237 11 594 422 471 341 52 215 408 248 270 361 529 
238 11 450 235 111 573 65 162 203 599 114 517 550 
239 11 491 649 328 134 416 489 622 462 5 82 21 
240 11 289 405 201 67 466 72 423 156 303 592 18 
241 11 363 631 518 436 604 258 288 126 141 46 27 
242 11 484 117 458 164 177 207 32 592 358 528 577 
243 11 646 196 317 6 535 621 410 356 570 84 465 
244 11 523 301 145 281 195 336 192 42 402 563 477 
245 10 413 306 553 62 315 516 49 161 105 430 
246 11 150 55 28 559 51 313 197 76 457 291 407 
247 11 501 610 339 360 118 266 151 642 95 386 384 
248 11 270 263 124 352 443 548 237 408 52 229 368 
249 11 3 335 172 570 492 20 39 99 442 504 333 
250 11 297 47 127 222 629 131 573 213 417 633 322 
251 11 575 353 61 121 310 439 602 412 148 421 539 
252 7 415 254 647 634 79 96 345 
253 11 345 486 387 96 531 8 350 225 323 79 86 
254 10 634 79 252 531 415 647 86 345 96 8 
255 11 419 455 208 58 228 414 71 632 165 227 183 
256 11 299 20 633 143 203 442 551 478 504 335 469 
257 11 351 586 593 212 382 552 332 157 590 542 36 
258 11 436 515 241 631 604 363 518 625 141 126 472 
259 11 186 63 176 490 68 128 467 264 280 513 298 
260 11 198 640 308 85 464 273 73 202 620 292 14 
261 11 388 626 426 580 325 2 349 613 397 193 283 
262 11 360 268 642 130 339 115 610 582 247 274 501 
263 11 124 270 352 248 443 548 368 565 605 463 36 
264 11 467 83 635 186 128 259 298 401 152 23 176 
265 11 283 613 325 406 160 66 626 17 37 388 261 
266 11 151 204 494 566 610 502 247 118 339 95 384 
267 10 166 638 138 326 147 566 596 446 78 272 
268 11 130 262 642 360 274 341 582 594 422 354 339 
269 11 278 348 191 210 584 91 452 568 123 108 331 
270 11 248 263 124 352 443 548 237 229 408 52 368 
271 11 445 175 508 57 623 312 13 496 395 641 520 
272 11 78 138 329 25 279 166 539 132 510 576 602 
273 11 85 390 340 202 464 260 640 308 209 198 73 
274 11 461 206 125 209 642 268 262 390 546 130 594 
275 11 537 505 644 233 524 41 371 343 103 536 159 
276 10 605 368 149 650 287 600 124 495 461 106 
277 8 447 221 291 28 155 197 407 246 
278 11 348 269 584 108 191 637 210 91 568 123 452 
279 11 329 78 272 576 25 223 539 132 138 412 510 
280 11 77 176 379 304 490 513 614 68 128 63 186 
281 11 336 145 301 402 523 192 477 102 479 195 433 
282 11 92 520 641 441 527 13 312 456 218 271 508 
283 11 265 613 160 325 66 406 626 261 388 17 37 
284 11 346 347 377 295 97 88 358 10 168 74 324 
285 11 173 165 601 19 632 69 44 71 521 543 612 
286 8 429 455 608 612 184 632 165 71 
287 10 495 605 600 276 368 650 554 149 124 628 
288 11 46 604 152 401 141 146 363 23 636 241 480 
289 11 240 405 201 67 466 72 423 156 592 43 207 
290 11 64 488 311 507 31 645 596 89 115 582 494 
291 9 447 277 221 55 76 246 28 197 407 
292 11 513 163 509 480 298 198 640 260 23 128 304 
293 11 81 403 120 316 617 48 220 578 434 327 302 
294 10 583 389 182 11 189 310 353 155 223 575 
295 11 88 324 347 284 346 10 526 377 168 167 376 
296 11 314 489 357 416 181 231 122 649 491 100 239 
297 11 250 47 127 629 222 573 131 633 322 213 417 
298 11 163 509 23 128 480 152 401 292 513 467 635 
299 11 203 256 20 442 504 633 335 143 492 550 238 
300 11 15 362 211 400 24 555 444 590 144 167 593 
301 11 523 281 336 145 402 195 477 102 192 479 433 
302 11 327 511 192 617 402 397 403 145 48 281 336 
303 11 18 574 533 318 109 309 67 423 240 405 607 
304 11 77 513 280 379 292 236 176 640 386 128 118 
305 11 82 481 5 134 462 528 577 398 328 21 200 
306 9 315 553 413 245 62 516 522 161 430 
307 11 607 579 392 309 417 213 599 162 533 40 131 
308 11 198 260 464 73 620 640 14 85 202 273 292 
309 11 607 574 533 303 318 18 109 307 579 40 378 
310 11 353 182 412 575 251 11 389 602 583 223 294 
311 11 488 64 89 290 596 31 609 507 430 645 446 
312 11 13 641 520 508 271 404 30 445 380 175 282 
313 11 559 150 51 246 457 217 55 34 76 28 169 
314 11 296 489 416 649 491 112 239 181 357 630 622 
315 9 306 553 413 245 522 62 161 516 373 
316 11 120 434 81 293 337 617 578 479 403 102 477 
317 10 410 621 196 356 243 39 646 570 99 6 
318 11 533 109 574 18 378 303 423 309 67 40 607 
319 11 487 29 129 460 614 232 394 597 606 9 136 
320 11 562 517 450 65 40 87 114 162 235 599 111 
321 11 375 545 532 561 459 49 342 105 101 432 205 
322 11 37 393 17 629 551 469 544 633 7 406 325 
323 10 8 643 86 531 333 525 79 253 345 634 
324 11 88 295 167 526 144 444 585 347 555 24 284 
325 11 613 626 265 388 283 261 426 406 37 160 2 
326 9 638 446 373 556 267 148 596 121 166 
327 11 302 511 617 192 402 397 403 145 48 281 336 
328 11 134 5 239 82 462 491 21 649 481 305 200 
329 11 279 272 78 132 510 138 25 394 136 166 576 
330 11 337 80 396 434 38 454 411 578 366 316 364 
331 11 44 123 568 452 269 191 278 69 210 285 173 
332 11 257 367 468 593 12 590 351 586 376 212 382 
333 11 172 643 525 99 323 8 86 3 39 249 531 
334 11 622 54 506 514 12 416 112 239 462 332 489 
335 11 504 492 442 3 20 249 493 299 172 424 374 
336 11 281 402 145 301 477 523 102 479 192 433 195 
337 11 434 316 330 120 578 81 411 479 102 293 433 
338 11 45 567 541 624 519 35 31 582 354 529 359 
339 11 610 360 115 247 262 501 642 266 151 494 507 
340 11 202 498 618 273 33 557 464 547 116 85 390 
341 11 422 471 594 529 237 354 35 52 130 381 215 
342 11 561 532 545 101 219 359 375 321 105 624 541 
343 11 41 475 536 505 644 470 185 537 275 371 104 
344 11 425 225 409 370 486 387 435 571 96 253 350 
345 11 96 253 387 531 486 79 8 86 634 254 323 
346 11 284 347 377 97 295 88 358 74 458 164 324 
347 11 377 346 284 97 88 295 376 74 324 458 365 
348 11 278 269 584 108 191 91 637 210 568 452 123 
349 11 580 397 261 48 535 626 388 2 193 426 84 
350 9 572 571 225 253 154 486 59 107 344 
351 11 586 257 552 212 382 593 542 157 36 332 463 
352 11 443 548 263 565 36 124 270 248 463 229 542 
353 11 310 251 575 412 182 602 389 11 583 223 294 
354 11 35 529 341 45 582 381 567 338 130 471 422 
355 10 485 93 421 226 61 575 439 251 353 121 
356 10 621 410 39 317 99 570 196 634 243 647 
357 11 122 181 113 231 453 296 588 564 98 314 619 
358 11 168 627 164 194 10 512 284 346 87 295 347 
359 11 219 587 519 567 101 342 560 561 541 624 338 
360 11 339 642 262 610 247 501 115 268 130 386 266 
361 11 215 408 52 229 560 381 471 422 237 529 341 
362 11 300 15 400 234 451 211 497 24 482 555 382 
363 11 241 518 604 631 436 288 141 258 126 27 46 
364 11 563 433 102 195 479 477 434 337 330 336 316 
365 11 639 74 97 376 577 468 12 367 377 462 347 
366 10 411 399 578 220 396 81 196 337 330 120 
367 11 468 376 332 590 144 365 639 12 555 74 593 
368 10 605 276 149 650 287 124 248 263 270 600 
369 10 589 230 395 110 600 106 57 100 116 391 
370 11 409 425 435 344 205 432 225 50 107 387 486 
371 11 174 644 41 524 275 537 505 449 104 343 233 
372 11 187 441 224 218 427 92 27 282 456 476 518 
373 10 556 148 326 121 638 439 446 226 61 421 
374 11 424 180 158 493 22 558 611 4 569 550 440 
375 11 321 532 561 545 101 205 342 432 459 49 105 
376 11 468 367 377 365 347 97 639 74 88 144 324 
377 11 347 97 346 284 74 376 88 295 458 365 639 
378 11 109 512 194 423 318 533 18 40 627 67 574 
379 11 420 591 77 280 95 384 118 199 304 614 133 
380 11 90 404 641 520 13 312 30 508 499 456 94 
381 11 560 529 215 361 35 354 471 52 341 519 567 
382 11 212 552 593 351 586 257 15 362 300 590 542 
383 11 56 119 470 32 528 135 398 178 117 185 475 
384 11 95 591 118 133 502 420 538 199 379 151 204 
385 9 179 428 431 595 184 210 483 91 521 
386 11 170 546 236 501 206 642 247 390 209 360 85 
387 11 486 96 345 253 344 225 425 531 79 435 8 
388 11 426 261 626 325 2 613 193 580 7 349 265 
389 11 583 182 294 11 189 310 353 223 575 155 412 
390 11 209 273 206 85 546 170 125 340 236 386 274 
391 11 106 557 498 116 618 230 547 340 650 75 369 
392 11 417 579 213 599 307 131 162 222 65 235 607 
393 11 17 544 37 322 406 629 265 325 283 160 613 
394 11 129 136 597 606 132 510 319 9 487 460 329 
395 11 57 230 623 496 369 271 175 445 589 75 530 
396 10 411 366 534 330 578 399 80 220 337 38 
397 11 349 580 261 626 48 302 388 613 327 448 325 
398 11 528 481 200 135 305 178 5 383 119 21 82 
399 9 366 220 411 578 196 396 81 243 317 
400 11 211 24 300 444 15 555 362 167 585 144 482 
401 11 152 46 23 288 635 141 509 163 298 480 604 
402 11 336 281 145 477 479 192 102 301 617 327 302 
403 11 293 48 81 120 617 535 316 327 302 220 349 
404 11 30 90 94 499 508 380 312 13 641 137 520 
405 11 201 67 72 289 423 240 592 177 207 18 378 
406 11 265 160 17 283 544 66 37 613 325 393 626 
407 11 197 616 28 34 183 227 246 51 221 447 150 
408 11 52 361 215 229 471 237 548 381 422 560 248 
409 11 425 370 344 205 107 225 435 571 486 648 387 
410 9 317 356 621 196 39 647 243 99 634 
411 11 366 578 220 399 396 81 337 330 316 120 434 
412 11 602 539 25 310 353 223 576 251 11 182 575 
413 10 553 306 245 62 315 516 49 430 161 105 
414 10 255 522 183 455 227 419 161 58 315 208 
415 7 252 254 647 96 634 79 345 
416 11 489 314 239 622 491 649 334 112 296 54 514 
417 11 392 213 131 222 579 599 162 307 235 65 573 
418 9 615 154 59 70 571 572 350 497 107 
419 11 58 228 255 208 71 227 188 455 632 169 165 
420 11 199 591 384 95 133 379 538 437 118 232 502 
421 11 226 439 61 93 355 121 575 251 148 485 556 
422 11 594 471 237 341 52 215 529 354 361 408 381 
423 11 67 405 72 201 378 18 592 109 177 318 533 
424 11 374 493 180 158 558 22 611 4 569 550 440 
425 11 344 409 370 435 225 486 387 107 571 96 205 
426 11 388 2 261 193 7 325 626 84 469 580 613 
427 11 224 27 187 476 441 372 60 636 620 14 146 
428 8 179 431 595 385 50 142 184 415 
429 9 608 612 184 286 543 483 601 521 69 
430 11 609 516 62 105 89 311 49 553 488 413 31 
431 9 179 428 595 385 142 184 50 140 429 
432 11 459 142 375 140 50 321 370 205 435 532 545 
433 11 102 563 477 479 364 195 336 301 402 281 434 
434 11 337 316 120 81 479 102 578 617 293 330 477 
435 11 370 425 50 344 409 142 387 432 486 96 225 
436 11 258 241 631 363 518 604 126 141 515 625 288 
437 11 199 9 538 133 232 597 606 147 136 420 502 
438 11 16 171 549 26 214 139 185 598 104 178 119 
439 11 61 421 226 121 251 575 148 556 93 355 373 
440 11 569 550 558 4 503 22 374 424 180 493 111 
441 11 372 224 218 187 282 427 92 527 476 60 456 
442 11 504 335 20 492 299 203 3 493 256 249 424 
443 11 352 548 565 36 263 270 229 248 124 463 542 
444 11 167 24 211 585 555 400 144 300 324 15 526 
445 11 175 271 623 508 496 57 312 395 13 30 137 
446 10 326 596 311 488 373 64 645 267 638 556 
447 8 277 291 221 28 197 407 246 616 
448 11 153 511 42 66 397 160 283 613 626 265 302 
449 9 524 371 275 644 174 537 233 41 505 
450 11 111 517 320 65 114 238 235 162 562 599 87 
451 8 497 234 362 482 300 15 400 70 
452 11 568 123 44 331 191 269 69 210 521 278 601 
453 11 113 122 619 181 98 357 588 231 190 500 564 
454 11 38 80 637 330 108 584 337 364 396 348 534 
455 10 255 286 208 71 632 414 165 419 228 161 
456 11 92 218 282 520 641 380 441 13 312 372 187 
457 11 55 76 313 246 150 559 51 28 291 197 217 
458 11 97 242 577 117 74 484 164 377 346 284 347 
459 10 432 321 140 49 375 545 532 142 105 561 
460 11 487 232 614 319 29 597 9 129 606 136 199 
461 11 125 274 209 149 206 390 650 276 368 391 605 
462 11 134 82 328 305 5 239 577 622 639 365 481 
463 11 157 36 352 443 474 565 586 351 542 263 124 
464 11 73 202 308 14 260 273 85 198 340 620 540 
465 11 84 478 193 6 7 2 143 570 469 426 646 
466 11 159 156 289 240 103 43 233 201 405 537 275 
467 11 264 83 635 186 128 298 259 401 23 152 176 
468 11 367 376 332 590 365 144 639 12 74 377 97 
469 11 7 551 478 426 2 143 193 465 84 388 322 
470 11 475 185 343 56 383 119 26 536 32 41 214 
471 11 422 341 237 52 594 215 529 361 408 381 354 
472 11 141 635 83 46 604 401 152 258 288 264 436 
473 11 603 53 530 540 33 75 547 527 60 618 14 
474 11 581 514 630 112 157 628 463 506 54 554 124 
475 11 185 343 470 26 214 41 104 536 644 56 371 
476 11 60 14 53 540 427 73 527 603 620 473 224 
477 11 102 479 433 336 402 281 617 301 563 145 195 
478 11 143 465 7 469 551 84 193 2 570 426 6 
479 11 102 477 433 402 336 617 281 434 316 563 301 
480 11 509 163 146 23 152 298 636 292 401 46 288 
481 11 5 200 82 21 398 305 528 134 328 462 135 
482 11 234 451 22 4 611 158 180 362 400 497 300 
483 11 543 521 69 601 184 612 608 429 452 210 173 
484 11 242 117 164 458 177 207 592 32 358 72 627 
485 8 355 93 421 575 61 226 155 221 
486 11 387 253 96 345 225 344 425 350 531 572 79 
487 11 460 319 232 29 614 129 597 9 606 136 394 
488 11 311 64 290 89 596 31 609 507 645 430 446 
489 11 416 314 649 296 491 239 622 112 328 334 181 
490 11 68 63 259 176 280 186 614 29 128 77 487 
491 11 649 239 328 489 134 416 21 564 5 462 82 
492 11 335 3 504 493 442 249 424 374 20 172 158 
493 11 424 374 558 158 180 492 611 22 504 550 569 
494 11 566 266 151 645 204 507 610 115 596 339 502 
495 10 554 600 287 628 630 110 605 276 581 589 
496 11 623 175 445 100 395 271 137 508 57 589 94 
497 9 451 234 362 482 70 300 15 418 615 
498 11 557 618 391 116 340 106 547 33 75 202 230 
499 11 94 30 404 137 90 231 508 380 175 445 312 
500 11 190 98 619 588 598 139 564 549 171 453 122 
501 11 247 360 386 339 642 610 118 170 546 236 262 
502 11 538 133 384 95 204 591 151 118 199 266 566 
503 11 440 4 585 569 22 550 558 444 526 111 180 
504 11 442 335 492 20 493 3 299 203 424 558 249 
505 11 537 275 644 233 41 536 343 103 524 43 371 
506 11 54 514 334 112 622 12 474 157 581 332 630 
507 11 645 290 494 64 115 596 488 311 566 266 610 
508 11 445 312 13 175 271 30 641 404 520 623 496 
509 11 163 23 480 298 152 401 146 292 46 288 636 
510 11 132 136 147 606 597 9 138 166 329 394 437 
511 11 42 192 302 327 448 153 397 145 402 281 336 
512 11 194 627 378 87 358 168 40 562 10 109 164 
513 11 292 128 304 77 176 298 163 280 509 186 640 
514 11 506 54 112 474 334 581 630 157 622 628 12 
515 11 258 436 625 631 126 241 472 518 604 363 141 
516 11 62 430 105 49 413 553 245 609 306 89 545 
517 11 114 320 562 450 111 87 10 526 65 168 40 
518 11 631 126 241 363 436 258 604 625 187 27 288 
519 11 359 567 219 338 45 541 624 587 35 381 560 
520 11 641 13 312 282 92 508 380 271 404 456 30 
521 11 483 69 543 601 184 612 608 452 429 210 173 
522 9 315 414 306 161 413 553 245 93 226 
523 11 301 195 281 336 145 402 477 563 102 244 433 
524 9 275 449 644 537 371 233 505 41 174 
525 8 643 333 323 172 8 3 86 611 
526 11 585 324 295 10 88 114 444 167 503 168 517 
527 11 473 603 53 60 530 476 282 540 441 33 75 
528 11 398 481 305 383 200 117 135 82 5 119 178 
529 11 354 35 381 341 471 567 45 560 422 215 338 
530 11 473 75 603 547 53 33 540 57 230 527 116 
531 11 79 86 8 634 345 323 253 254 96 387 486 
532 11 545 561 321 342 375 101 105 49 205 459 587 
533 11 318 109 574 18 303 309 378 423 40 67 607 
534 10 91 396 584 108 348 38 210 80 191 269 
535 11 646 6 48 349 580 243 84 403 193 2 465 
536 11 43 343 505 103 537 156 41 275 644 233 470 
537 11 505 275 644 233 524 41 536 103 343 371 43 
538 11 133 502 199 437 384 591 95 420 204 118 151 
539 11 25 602 412 576 223 78 310 353 272 251 11 
540 11 53 33 603 473 14 60 547 530 202 73 476 
541 11 624 338 31 567 45 519 609 342 89 359 219 
542 11 36 552 565 586 351 212 70 443 382 463 548 
543 11 483 521 601 69 184 612 608 429 173 452 285 
544 11 17 393 406 37 265 322 160 283 66 629 325 
545 11 532 321 561 342 375 105 49 101 459 516 609 
546 11 170 386 236 206 390 209 642 501 85 273 274 
547 11 33 75 618 116 530 473 603 540 53 498 557 
548 11 443 565 352 229 36 263 270 248 408 542 124 
549 11 139 171 598 16 438 178 135 500 26 119 190 
550 11 569 440 558 424 4 374 22 493 180 503 504 
551 11 469 7 143 478 633 322 256 426 2 465 193 
552 11 212 382 586 351 542 257 593 36 70 15 362 
553 10 413 306 62 315 245 516 430 49 105 522 
554 10 495 628 630 600 287 581 110 474 112 589 
555 11 24 144 211 167 444 590 15 400 300 585 324 
556 11 148 373 121 638 326 439 61 251 226 602 421 
557 11 391 498 106 116 618 547 340 75 230 33 530 
558 11 569 550 424 440 374 22 4 180 493 158 611 
559 11 313 150 51 246 217 34 457 55 28 169 197 
560 11 381 361 215 529 519 216 219 359 52 408 587 
561 11 532 342 101 375 545 321 587 219 359 205 105 
562 11 320 87 517 40 512 114 450 168 10 65 627 
563 11 433 195 364 102 477 479 523 301 336 281 402 
564 11 588 98 649 21 491 181 190 500 122 619 200 
565 11 548 443 36 352 542 229 463 263 270 248 408 
566 11 204 494 151 266 645 502 507 538 596 133 267 
567 11 338 45 519 541 624 35 354 359 529 219 31 
568 11 123 452 331 44 269 191 278 210 69 348 521 
569 11 550 440 558 4 424 374 22 180 493 503 158 
570 11 249 621 39 465 478 143 99 6 356 243 317 
571 11 350 225 572 107 59 154 344 409 418 486 425 
572 9 350 571 225 154 253 59 486 418 107 
573 11 131 213 235 222 238 599 162 65 417 127 297 
574 11 18 533 318 109 303 309 378 423 67 607 40 
575 11 251 353 61 310 439 121 421 182 412 226 389 
576 11 223 25 539 412 11 602 189 279 310 182 353 
577 11 74 639 365 458 97 305 462 82 377 134 117 
578 11 411 220 366 81 399 120 316 293 337 434 396 
579 11 392 307 599 417 162 213 65 607 131 235 40 
580 11 349 261 397 388 2 626 193 48 426 535 84 
581 11 474 630 112 628 514 554 506 157 495 54 463 
582 11 45 35 354 130 338 115 567 529 262 268 31 
583 11 294 389 182 11 189 310 353 223 155 575 412 
584 11 108 348 637 278 269 91 38 191 210 534 80 
585 11 444 167 526 24 211 400 503 324 555 144 88 
586 11 351 257 552 212 382 542 593 36 157 463 332 
587 11 219 359 101 648 519 216 561 342 560 205 567 
588 11 98 564 619 190 500 122 181 453 113 357 649 
589 10 110 369 100 395 600 230 496 623 495 57 
590 11 144 555 593 15 367 24 211 468 300 167 332 
591 11 384 95 118 420 133 502 538 199 379 151 437 
592 11 177 72 207 201 67 405 423 484 289 194 378 
593 11 382 212 257 590 351 552 586 332 15 300 555 
594 11 237 422 471 341 52 215 130 268 529 248 408 
595 9 428 431 179 385 50 142 415 140 435 
596 10 645 64 488 311 507 290 446 494 566 267 
597 11 606 9 136 232 510 132 437 460 129 487 394 
598 11 139 549 171 500 178 190 16 438 135 200 98 
599 11 162 65 235 213 579 392 131 417 573 320 450 
600 10 495 287 554 369 110 589 650 628 276 605 
601 11 69 543 521 483 612 184 608 173 285 429 452 
602 11 412 539 25 310 353 251 223 576 121 575 11 
603 11 473 53 530 540 33 547 75 527 60 14 476 
604 11 141 288 363 46 241 436 401 152 472 258 631 
605 10 368 276 149 650 287 124 263 495 600 248 
606 11 597 136 9 510 132 232 437 147 129 394 460 
607 11 307 309 579 533 574 392 318 109 18 303 40 
608 9 429 612 184 543 483 601 521 286 69 
609 11 89 430 105 31 311 488 624 541 516 62 64 
610 11 339 247 360 266 115 151 494 501 262 507 642 
611 9 158 180 374 22 424 493 4 482 558 
612 10 608 429 184 543 601 483 521 69 286 165 
613 11 325 283 626 265 261 388 160 406 66 426 397 
614 11 460 487 29 232 319 420 490 199 280 379 9 
615 10 418 154 70 59 571 497 572 107 350 451 
616 11 407 197 28 183 227 34 485 221 93 355 447 
617 11 120 316 479 402 327 293 477 302 102 81 403 
618 11 116 498 547 557 33 340 75 391 106 202 530 
619 11 98 190 588 500 453 113 122 564 181 357 598 
620 11 73 308 636 14 198 464 146 476 27 260 60 
621 11 356 39 317 410 99 570 243 196 646 172 249 
622 11 334 54 12 416 239 506 462 514 134 328 489 
623 11 496 175 445 100 395 271 57 508 137 589 94 
624 11 541 338 31 567 45 519 609 89 342 359 219 
625 11 126 631 436 258 515 518 241 363 604 187 141 
626 11 261 325 613 388 283 265 426 580 397 349 2 
627 11 194 512 358 168 87 164 378 10 177 562 40 
628 10 630 554 581 495 112 474 600 110 287 514 
629 11 47 127 322 393 297 250 17 37 544 633 551 
630 10 628 581 112 554 474 495 514 600 506 287 
631 11 518 126 241 436 363 258 625 604 288 187 27 
632 11 165 71 208 228 173 455 285 19 255 612 419 
633 11 256 551 299 322 469 143 127 203 20 629 7 
634 10 79 254 86 531 8 345 647 96 323 99 
635 11 83 401 472 152 467 264 141 46 23 298 509 
636 11 146 27 620 480 288 23 427 509 46 163 152 
637 11 108 584 38 348 278 454 80 269 91 191 534 
638 10 326 556 148 267 373 121 539 602 138 78 
639 11 365 74 577 97 376 468 12 377 367 462 347 
640 11 260 198 85 308 273 292 236 464 73 170 513 
641 11 13 312 520 508 380 271 282 92 404 30 445 
642 11 360 262 268 339 501 206 274 247 546 386 130 
643 8 525 323 333 8 172 86 531 99 
644 11 275 41 505 537 371 524 343 233 174 536 449 
645 11 507 596 494 566 64 290 488 204 311 266 151 
646 11 243 6 535 196 317 84 465 48 193 621 570 
647 7 252 254 415 410 634 356 79 
648 11 216 587 101 205 107 219 359 560 59 409 561 
649 11 491 239 328 489 416 134 564 21 5 314 82 
650 10 276 149 605 368 287 600 106 391 495 461 
DEPOT_SECTION
   1
   -1
EOF
