NAME :  X-n613-kX-w244-c9.cctp
COMMENT : 	Adapted by Maziero, Usberti and Cavellucci from the Uchoa, Pecin, Pessoa, Poggi, Subramanian, and Vidal (2013)
TYPE :  CCTP
DIMENSION :    609
EDGE_WEIGHT_TYPE : 	EUC_2D	
CAPACITY : 	523
VERTICES_WITHIN_COVERAGE :  9
VERTICES_WITH_DEMAND : 	244
NODE_COORD_SECTION
1 500 500
2 550 574
3 177 24
4 448 476
5 934 619
6 323 122
7 430 76
8 364 9
9 988 994
10 91 636
11 926 977
12 2 579
13 326 342
14 455 822
15 48 74
16 814 334
17 997 22
18 838 899
19 634 360
20 324 191
21 750 283
22 996 106
23 473 967
24 642 334
25 539 764
26 510 194
27 807 664
28 949 710
29 21 994
30 293 934
31 832 366
32 8 531
33 56 893
34 82 605
35 197 626
36 661 777
37 207 272
38 945 510
39 505 137
40 325 693
41 240 335
42 776 462
43 810 235
44 496 288
45 624 171
46 799 293
47 120 393
48 250 839
49 31 266
50 64 349
51 898 729
52 740 387
53 838 992
54 952 991
55 558 497
56 695 240
57 622 113
58 670 95
59 967 595
60 926 470
61 665 284
62 753 558
63 946 61
64 820 415
65 453 551
66 565 786
67 768 573
68 841 180
69 172 849
70 799 203
71 663 950
72 33 134
73 215 505
74 973 751
75 308 651
76 519 412
77 677 737
78 937 383
79 338 276
80 997 416
81 852 151
82 366 573
83 839 66
84 245 311
85 743 248
86 265 806
87 851 403
88 621 530
89 553 917
90 467 83
91 866 308
92 556 270
93 189 936
94 131 426
95 329 945
96 64 997
97 761 475
98 248 366
99 141 114
100 235 937
101 80 598
102 133 453
103 153 763
104 739 585
105 165 754
106 933 751
107 670 474
108 319 201
109 734 286
110 118 342
111 951 973
112 303 313
113 709 929
114 993 822
115 707 624
116 92 212
117 716 302
118 184 802
119 601 936
120 668 454
121 583 424
122 151 409
123 754 53
124 89 361
125 843 196
126 679 788
127 233 266
128 994 524
129 229 917
130 381 596
131 566 501
132 96 294
133 180 770
134 199 508
135 226 827
136 691 293
137 338 332
138 905 714
139 146 954
140 148 907
141 46 71
142 594 419
143 209 732
144 419 783
145 852 847
146 194 344
147 751 651
148 530 340
149 6 405
150 961 227
151 60 343
152 87 261
153 962 886
154 974 321
155 882 81
156 777 993
157 877 318
158 645 892
159 909 276
160 859 247
161 109 124
162 214 725
163 292 982
164 674 506
165 724 614
166 247 618
167 133 392
168 140 512
169 986 490
170 139 888
171 988 341
172 255 776
173 864 343
174 614 864
175 363 805
176 594 73
177 531 156
178 221 392
179 221 398
180 809 947
181 864 805
182 843 335
183 477 878
184 129 202
185 940 551
186 183 69
187 498 641
188 867 413
189 540 551
190 281 990
191 604 224
192 907 417
193 650 349
194 998 2
195 570 808
196 216 820
197 959 382
198 527 34
199 123 708
200 337 488
201 355 476
202 887 524
203 443 886
204 892 60
205 436 349
206 427 927
207 663 441
208 78 435
209 997 108
210 324 213
211 369 115
212 177 280
213 539 753
214 81 372
215 102 788
216 43 527
217 765 671
218 31 906
219 854 983
220 610 874
221 83 143
222 835 330
223 570 361
224 390 283
225 102 840
226 982 681
227 650 227
228 975 485
229 135 322
230 287 6
231 446 24
232 530 474
233 700 542
234 397 872
235 763 838
236 305 9
237 12 340
238 285 858
239 358 892
240 123 118
241 498 952
242 752 59
243 444 51
244 888 591
245 281 498
246 927 591
247 185 324
248 79 486
249 690 495
250 767 78
251 199 357
252 257 625
253 757 346
254 559 164
255 56 937
256 559 96
257 716 848
258 415 7
259 782 493
260 198 754
261 506 686
262 780 784
263 351 593
264 972 719
265 267 937
266 921 181
267 196 447
268 748 875
269 845 567
270 437 907
271 699 405
272 978 373
273 286 936
274 755 180
275 696 458
276 188 130
277 341 291
278 628 240
279 977 737
280 487 328
281 963 272
282 640 838
283 784 13
284 57 916
285 810 409
286 701 741
287 314 201
288 661 104
289 740 622
290 550 234
291 215 853
292 138 876
293 318 722
294 253 617
295 90 662
296 909 472
297 308 910
298 706 703
299 994 964
300 468 904
301 181 279
302 132 324
303 935 232
304 891 448
305 610 312
306 582 826
307 373 584
308 330 146
309 968 383
310 436 570
311 725 274
312 517 304
313 835 254
314 901 434
315 858 202
316 261 997
317 493 583
318 512 311
319 592 403
320 949 560
321 426 413
322 634 611
323 200 557
324 44 99
325 823 681
326 958 756
327 913 482
328 594 984
329 73 713
330 4 687
331 406 637
332 717 349
333 273 727
334 622 359
335 316 622
336 114 595
337 720 330
338 485 245
339 728 679
340 563 890
341 412 21
342 600 831
343 682 188
344 419 665
345 555 691
346 799 117
347 671 173
348 117 117
349 55 117
350 242 124
351 139 795
352 670 711
353 22 470
354 919 386
355 988 857
356 166 675
357 269 813
358 144 450
359 66 302
360 275 504
361 812 595
362 65 382
363 683 718
364 744 458
365 370 159
366 155 263
367 93 827
368 897 63
369 866 240
370 714 689
371 9 995
372 136 611
373 925 459
374 371 271
375 97 729
376 443 659
377 374 831
378 585 137
379 473 176
380 878 528
381 748 261
382 141 431
383 208 624
384 76 809
385 780 44
386 653 811
387 827 0
388 754 854
389 909 367
390 62 951
391 805 374
392 204 284
393 774 806
394 139 39
395 73 455
396 800 483
397 722 828
398 983 285
399 516 93
400 489 103
401 297 291
402 517 407
403 468 780
404 300 560
405 754 944
406 999 143
407 220 145
408 840 536
409 542 926
410 509 745
411 515 461
412 791 479
413 821 266
414 459 481
415 47 141
416 417 102
417 950 385
418 87 135
419 967 239
420 57 886
421 991 595
422 962 506
423 375 948
424 631 572
425 210 596
426 476 910
427 829 100
428 133 673
429 578 982
430 353 675
431 834 675
432 141 964
433 266 734
434 146 650
435 353 284
436 305 987
437 150 727
438 733 696
439 301 687
440 858 548
441 308 224
442 821 189
443 45 279
444 108 220
445 523 381
446 446 524
447 907 598
448 943 843
449 473 609
450 659 823
451 326 19
452 92 368
453 29 271
454 804 619
455 369 215
456 325 240
457 197 903
458 996 278
459 189 871
460 519 684
461 297 819
462 102 896
463 20 818
464 850 667
465 916 759
466 401 140
467 364 57
468 823 178
469 590 605
470 749 943
471 924 977
472 770 720
473 315 879
474 78 1
475 105 857
476 352 810
477 36 243
478 903 279
479 521 366
480 58 482
481 153 0
482 812 506
483 481 68
484 705 785
485 16 596
486 974 675
487 503 914
488 937 284
489 431 112
490 636 548
491 728 560
492 156 777
493 623 149
494 811 794
495 879 709
496 404 453
497 838 272
498 646 185
499 520 843
500 337 149
501 761 972
502 637 433
503 607 588
504 575 511
505 952 72
506 818 942
507 427 589
508 688 326
509 547 662
510 423 507
511 93 4
512 699 23
513 762 595
514 389 815
515 48 7
516 586 171
517 391 990
518 860 942
519 562 289
520 779 980
521 305 733
522 676 855
523 231 555
524 661 798
525 954 975
526 888 912
527 483 24
528 69 618
529 866 631
530 244 362
531 72 937
532 793 569
533 145 885
534 582 43
535 73 425
536 979 684
537 911 888
538 921 111
539 108 98
540 126 241
541 737 414
542 830 426
543 546 141
544 429 536
545 741 233
546 373 286
547 989 248
548 305 814
549 690 548
550 449 506
551 491 754
552 252 82
553 52 449
554 278 918
555 61 132
556 344 620
557 500 421
558 913 865
559 161 501
560 734 467
561 410 836
562 733 712
563 205 115
564 152 932
565 360 459
566 945 335
567 61 872
568 408 85
569 633 945
570 83 627
571 550 809
572 890 266
573 711 338
574 515 998
575 946 604
576 61 580
577 785 575
578 931 871
579 474 76
580 967 395
581 243 984
582 849 185
583 817 685
584 728 848
585 182 780
586 119 898
587 607 31
588 43 337
589 900 572
590 417 480
591 931 355
592 693 31
593 394 858
594 749 418
595 827 37
596 30 362
597 870 528
598 945 714
599 789 100
600 492 526
601 234 361
602 165 386
603 262 707
604 87 989
605 597 528
606 401 969
607 146 661
608 910 977
609 771 90
DEMAND_SECTION
2 97
3 2
4 30
5 91
6 63
7 99
8 78
9 50
10 2
11 58
12 1
13 3
14 99
15 28
16 32
17 10
18 1
19 75
20 55
21 75
22 31
23 38
24 34
25 62
26 25
27 12
28 63
29 43
30 100
31 58
32 45
33 68
34 38
35 31
36 91
37 59
38 4
39 43
40 48
41 31
42 84
43 43
44 51
45 37
46 48
47 26
48 97
49 39
50 42
51 64
52 50
53 5
54 98
55 66
56 65
57 24
58 74
59 59
60 40
61 57
62 23
63 98
64 95
65 3
66 74
67 96
68 70
69 99
70 54
71 84
72 53
73 35
74 19
75 93
76 32
77 2
78 27
79 63
80 71
81 65
82 19
83 72
84 14
85 52
86 38
87 99
88 6
89 80
90 66
91 4
92 50
93 98
94 89
95 35
96 82
97 55
98 85
99 63
100 70
101 1
102 41
103 38
104 44
105 3
106 86
107 74
108 47
109 91
110 62
111 53
112 8
113 28
114 9
115 64
116 50
117 8
118 79
119 53
120 11
121 71
122 78
123 11
124 96
125 56
126 26
127 83
128 57
129 64
130 49
131 96
132 93
133 57
134 94
135 20
136 75
137 77
138 63
139 50
140 99
141 93
142 83
143 14
144 61
145 69
146 91
147 5
148 62
149 61
150 51
151 42
152 32
153 38
154 89
155 48
156 80
157 24
158 62
159 59
160 75
161 72
162 44
163 62
164 44
165 56
166 40
167 46
168 100
169 96
170 28
171 88
172 91
173 98
174 17
175 60
176 82
177 28
178 43
179 63
180 53
181 4
182 79
183 84
184 23
185 20
186 77
187 78
188 7
189 91
190 25
191 79
192 89
193 18
194 48
195 27
196 25
197 90
198 9
199 32
200 70
201 2
202 58
203 53
204 27
205 99
206 92
207 6
208 26
209 46
210 43
211 1
212 25
213 26
214 94
215 92
216 36
217 60
218 19
219 69
220 78
221 47
222 44
223 57
224 51
225 43
226 38
227 55
228 40
229 49
230 27
231 93
232 40
233 35
234 33
235 10
236 9
237 84
238 36
239 70
240 45
241 64
242 69
243 86
244 82
245 19
COVERAGE_SECTION
2 9 189 469 317 503 605 504 131 600 55 
3 9 481 394 186 511 552 563 99 539 474 
4 9 414 550 590 510 446 496 544 321 600 
5 9 575 246 447 59 244 589 320 421 185 
6 9 308 500 211 365 20 467 108 287 466 
7 9 568 243 416 489 90 579 483 231 341 
8 9 451 467 341 258 236 230 231 568 243 
9 9 299 54 525 111 11 471 608 153 526 
10 9 570 295 528 34 101 336 372 428 434 
11 9 471 608 111 525 54 9 299 219 518 
12 9 485 32 576 216 528 101 34 570 10 
13 9 137 112 277 401 435 79 546 98 374 
14 9 403 561 144 183 203 514 499 593 234 
15 9 141 324 349 555 72 539 415 515 418 
16 9 222 182 31 391 46 173 91 253 157 
17 9 194 63 505 22 209 368 204 538 406 
18 9 506 518 526 145 180 537 558 219 53 
19 9 334 193 24 305 319 223 508 142 502 
20 9 108 287 210 441 500 308 456 455 365 
21 9 109 381 311 85 117 46 545 337 136 
22 9 209 406 505 63 538 17 194 266 368 
23 9 241 574 426 206 487 300 270 606 409 
24 9 193 19 334 305 508 61 136 573 332 
25 9 213 66 410 571 551 195 403 306 345 
26 9 379 177 39 254 290 338 543 516 92 
27 9 325 583 431 217 464 454 147 472 529 
28 9 598 264 279 536 486 106 138 226 326 
29 9 371 96 390 604 255 531 284 218 33 
30 9 273 554 265 297 95 163 436 190 100 
31 9 391 182 222 16 173 87 285 64 188 
32 9 216 12 353 485 480 576 248 553 101 
33 9 420 567 284 218 255 462 531 390 475 
34 9 101 528 570 10 576 336 372 295 485 
35 9 383 425 166 434 294 356 252 607 372 
36 9 126 524 386 77 484 450 286 363 282 
37 9 392 127 301 212 366 84 247 41 146 
38 9 422 228 185 327 60 169 320 128 296 
39 9 177 400 543 399 379 26 254 90 256 
40 9 439 293 430 75 521 333 603 335 433 
41 9 84 530 601 98 146 251 247 178 392 
42 9 97 412 259 364 396 560 594 482 541 
43 9 313 413 70 497 442 160 125 369 315 
44 9 312 318 280 338 148 92 519 290 479 
45 9 493 498 516 347 378 191 57 343 227 
46 9 413 16 497 21 222 313 43 381 182 
47 9 167 94 122 452 382 214 124 602 110 
48 9 135 357 86 291 196 238 461 548 172 
49 9 453 443 477 359 152 132 588 237 116 
50 9 151 588 124 214 362 452 596 359 237 
51 9 138 495 465 106 598 28 326 264 74 
52 9 541 594 253 332 271 573 337 391 364 
53 9 219 180 506 518 520 156 608 501 471 
54 9 525 111 11 471 9 608 299 219 526 
55 9 131 504 232 605 411 189 88 600 2 
56 9 311 227 545 85 61 136 343 381 109 
57 9 493 288 378 176 58 45 256 516 498 
58 9 288 57 592 493 347 512 176 45 242 
59 9 575 421 320 246 5 185 447 589 128 
60 9 373 296 327 304 38 314 228 422 192 
61 9 136 508 56 117 24 278 227 311 305 
62 9 67 491 104 577 513 532 233 165 549 
63 9 505 368 204 538 17 22 155 209 194 
64 9 285 542 87 391 188 31 42 412 396 
65 9 310 446 544 550 507 600 317 510 449 
66 9 195 571 25 213 306 342 410 499 551 
67 9 577 62 513 532 104 491 361 289 454 
68 9 582 125 468 442 315 81 70 43 369 
69 9 459 291 292 533 118 170 196 135 457 
70 9 442 43 468 125 68 274 582 315 313 
71 9 569 113 158 119 328 470 405 429 220 
72 9 415 349 555 324 221 418 15 141 161 
73 9 134 523 323 559 360 267 245 168 358 
74 9 279 326 264 106 598 28 465 536 226 
75 9 335 439 40 556 430 252 294 166 263 
76 9 402 557 445 479 411 232 121 223 148 
77 9 363 286 352 36 298 126 484 370 562 
78 9 417 354 197 591 309 389 580 272 192 
79 9 277 435 374 546 456 401 112 224 137 
80 9 580 309 272 197 417 78 228 169 171 
81 9 68 582 468 125 442 315 427 346 70 
82 9 307 263 130 556 507 404 310 335 544 
83 9 595 427 155 204 368 599 385 346 387 
84 9 41 127 392 530 601 37 98 401 112 
85 9 381 545 311 21 109 56 117 43 136 
86 9 357 172 461 48 548 135 196 238 291 
87 9 188 542 64 285 31 391 192 314 304 
88 9 490 605 424 504 164 503 131 55 549 
89 9 409 340 487 119 241 429 220 426 328 
90 9 579 483 400 7 243 489 399 416 568 
91 9 157 173 182 222 497 478 572 159 16 
92 9 519 290 312 318 44 191 305 148 338 
93 9 457 564 129 100 139 140 432 459 533 
94 9 382 122 102 358 167 47 602 208 535 
95 9 30 297 273 423 436 163 554 239 265 
96 9 604 29 390 371 255 531 284 432 139 
97 9 42 364 259 560 412 396 594 482 541 
98 9 530 601 41 178 179 251 84 146 112 
99 9 240 348 161 539 276 418 186 563 221 
100 9 129 265 93 554 581 273 457 30 316 
101 9 34 528 576 570 336 10 372 485 295 
102 9 358 382 94 122 559 208 168 395 47 
103 9 492 105 133 585 351 437 260 118 215 
104 9 513 491 62 67 165 289 577 115 532 
105 9 103 133 492 437 585 260 143 351 118 
106 9 465 326 598 74 51 28 138 279 264 
107 9 120 249 275 164 207 502 560 88 233 
108 9 287 20 210 441 456 455 500 308 365 
109 9 311 21 117 381 85 136 337 545 573 
110 9 302 229 124 452 214 47 167 132 50 
111 9 525 54 11 471 608 9 299 153 526 
112 9 401 13 137 277 79 84 435 41 546 
113 9 470 405 71 268 501 158 569 257 522 
114 9 355 448 153 74 326 578 279 558 106 
115 9 165 289 104 147 339 513 370 491 322 
116 9 444 184 540 152 477 221 418 49 366 
117 9 109 136 337 311 573 508 21 332 381 
118 9 585 133 196 492 351 69 135 103 260 
119 9 569 328 429 89 340 409 158 220 71 
120 9 207 107 275 502 249 164 271 560 364 
121 9 142 319 502 223 76 402 232 445 334 
122 9 382 167 94 602 47 358 102 267 179 
123 9 242 250 385 609 283 599 512 592 595 
124 9 452 214 50 362 151 110 47 588 167 
125 9 582 68 315 442 468 70 81 369 43 
126 8 36 524 484 386 450 77 286 397 
127 9 37 392 84 301 212 41 401 247 366 
128 9 169 422 228 38 320 185 421 59 60 
129 9 100 457 265 93 554 273 459 30 291 
130 9 307 82 263 556 507 331 310 335 544 
131 9 55 504 605 232 189 88 411 2 600 
132 9 359 152 302 229 110 443 151 540 50 
133 9 585 105 260 492 103 118 143 351 437 
134 9 73 559 323 523 168 267 360 358 245 
135 9 196 48 291 86 357 118 459 69 172 
136 9 117 61 508 311 109 337 573 56 21 
137 9 13 112 277 435 79 401 546 374 224 
138 9 51 495 598 28 106 465 264 326 464 
139 9 432 564 93 140 586 170 533 604 457 
140 9 170 533 564 586 292 139 462 457 93 
141 9 15 324 349 555 72 515 539 415 418 
142 9 121 319 502 223 334 19 207 76 402 
143 9 162 260 133 105 585 433 437 603 103 
144 9 514 403 14 561 175 377 476 551 593 
145 9 181 18 558 494 537 526 578 393 235 
146 9 251 247 601 41 602 530 178 98 179 
147 9 217 289 339 165 438 115 370 27 513 
148 9 479 318 312 445 223 280 519 44 402 
149 9 596 362 553 237 353 535 588 208 50 
150 9 419 303 547 281 266 398 458 488 159 
151 9 50 588 124 214 596 362 359 452 237 
152 9 132 540 359 443 444 116 477 49 453 
153 9 578 355 448 537 558 114 526 299 111 
154 9 171 566 398 458 281 272 488 591 309 
155 9 204 368 83 538 427 63 595 505 81 
156 9 520 501 405 180 470 53 506 219 113 
157 9 91 173 182 222 478 159 572 389 497 
158 8 220 174 522 282 569 71 119 450 
159 9 478 572 488 303 157 91 281 369 160 
160 9 369 313 497 572 413 315 43 125 478 
161 9 348 240 418 539 221 99 555 349 415 
162 9 143 260 603 433 133 105 333 437 585 
163 9 190 436 316 273 30 581 265 95 554 
164 9 249 107 233 549 120 275 490 88 207 
165 9 289 115 104 513 147 491 67 62 339 
166 9 294 252 383 425 35 523 75 335 323 
167 9 47 122 602 94 382 452 110 124 214 
168 9 559 102 134 358 248 73 323 382 94 
169 9 228 422 128 38 60 373 327 80 185 
170 9 533 292 140 586 462 475 564 69 459 
171 9 154 272 566 309 197 398 417 580 591 
172 9 86 357 433 333 135 196 461 260 48 
173 9 182 157 222 91 31 16 389 87 391 
174 9 220 342 282 158 306 340 450 522 386 
175 9 476 377 514 561 548 144 593 461 234 
176 9 534 256 587 57 378 288 198 58 399 
177 9 543 254 39 26 378 516 379 399 256 
178 9 179 601 98 530 251 146 602 41 267 
179 9 178 601 98 530 251 267 602 146 41 
180 9 506 520 518 53 501 405 18 156 219 
181 8 145 494 465 558 51 262 106 448 
182 9 222 173 16 31 91 157 391 46 497 
183 9 300 426 203 487 270 499 14 206 241 
184 9 444 116 540 366 152 221 418 161 240 
185 9 320 38 246 589 422 59 575 447 202 
186 9 3 563 394 276 99 552 481 240 539 
187 9 449 261 460 509 317 376 345 344 2 
188 9 87 542 192 314 304 64 285 31 354 
189 9 2 504 600 131 55 317 605 469 503 
190 9 163 316 436 581 273 265 30 95 100 
191 9 278 227 290 516 45 498 92 254 493 
192 9 314 354 304 188 78 373 389 417 296 
193 9 24 19 334 508 305 573 61 332 136 
194 9 17 63 505 22 209 368 204 538 155 
195 9 571 306 66 342 25 499 213 174 282 
196 9 135 291 118 48 86 585 69 357 459 
197 9 309 417 580 272 78 591 354 566 171 
198 9 527 534 483 399 579 256 90 176 400 
199 9 375 437 428 329 607 356 295 105 434 
200 9 201 565 245 360 496 590 404 510 82 
201 9 565 200 496 590 510 245 360 4 321 
202 9 380 597 440 327 408 589 296 185 38 
203 9 270 300 183 426 206 234 593 561 14 
204 9 368 155 83 63 538 505 595 427 387 
205 9 280 321 224 318 44 479 546 312 445 
206 9 270 203 300 606 426 423 23 234 183 
207 9 120 502 107 275 271 249 164 142 560 
208 9 535 395 553 248 480 94 362 102 47 
209 9 22 406 505 63 538 17 266 194 368 
210 9 108 287 441 20 456 455 79 500 308 
211 9 466 365 6 500 568 308 416 467 489 
212 9 301 392 366 37 247 127 229 302 540 
213 9 25 410 66 551 571 195 345 460 261 
214 9 452 124 362 50 151 47 110 588 596 
215 9 384 351 367 225 492 103 375 475 105 
216 9 32 480 248 576 353 12 485 395 553 
217 9 147 339 438 27 472 562 370 583 289 
218 9 33 284 420 255 567 531 390 462 586 
219 9 53 518 506 608 180 471 11 520 156 
220 9 174 158 342 282 340 306 119 522 89 
221 9 418 555 161 415 349 348 240 72 539 
222 9 182 16 173 31 91 157 46 391 497 
223 9 148 319 479 445 334 142 305 19 121 
224 9 546 374 435 277 79 137 455 456 205 
225 9 367 475 384 292 215 567 462 351 586 
226 9 536 486 264 28 598 279 74 5 326 
227 9 278 498 191 56 343 347 61 45 136 
228 9 169 422 38 128 60 373 327 296 80 
229 9 302 110 132 247 212 124 366 146 301 
230 9 236 451 8 552 467 3 6 186 341 
231 9 243 341 258 527 7 483 579 90 568 
232 9 411 55 131 504 557 76 600 402 414 
233 9 549 491 164 249 62 104 490 107 67 
234 9 593 561 239 377 203 270 514 206 175 
235 8 388 393 584 268 397 257 262 494 
236 9 230 451 8 467 552 341 258 6 211 
237 9 596 588 151 50 149 359 362 443 453 
238 9 473 48 461 357 548 86 297 554 135 
239 9 234 473 593 297 423 95 377 561 30 
240 9 348 161 99 539 418 221 555 276 349 
241 9 23 487 426 574 409 300 89 206 270 
242 9 123 250 385 609 599 283 512 592 346 
243 9 231 7 90 579 483 341 527 568 258 
244 9 447 589 246 529 269 440 5 575 380 
245 9 360 200 404 73 523 201 134 565 267 
246 9 447 575 5 589 320 244 59 185 421 
247 9 146 251 392 212 301 229 302 37 41 
248 9 480 395 553 208 216 353 535 102 168 
249 9 164 107 275 120 233 560 549 207 364 
250 9 609 242 123 599 385 346 427 283 83 
251 9 146 601 247 178 530 602 41 179 98 
252 9 294 166 383 425 75 335 35 523 439 
253 9 332 337 52 573 391 16 117 21 109 
254 9 543 516 177 378 26 39 45 493 256 
255 9 390 531 284 218 33 420 96 604 462 
256 9 176 399 543 378 534 57 177 39 254 
257 8 584 397 388 522 268 235 450 484 
258 9 341 231 8 243 527 7 467 568 451 
259 9 412 396 97 42 482 364 560 62 408 
260 9 133 143 585 105 162 103 492 118 437 
261 9 460 187 509 345 410 376 551 213 449 
262 6 393 494 235 472 397 388 
263 9 307 82 556 130 335 404 331 75 507 
264 9 279 28 598 74 536 226 326 486 106 
265 9 273 554 30 100 129 297 163 581 190 
266 9 303 150 315 538 582 419 81 125 68 
267 9 358 179 382 122 178 73 134 102 559 
268 8 388 584 235 257 397 113 470 405 
269 9 440 408 361 597 244 380 532 589 202 
270 9 203 206 300 426 183 234 593 487 23 
271 9 541 52 207 594 275 120 332 502 573 
272 9 309 197 580 417 171 78 80 566 591 
273 9 30 265 554 297 95 163 100 190 436 
274 9 70 545 442 468 85 343 346 43 381 
275 9 120 107 207 249 560 364 164 271 541 
276 9 563 407 99 350 186 240 348 161 552 
277 9 435 79 546 374 137 112 401 224 13 
278 9 227 191 61 498 56 45 305 343 92 
279 9 74 264 326 28 598 106 536 226 486 
280 9 318 312 44 148 479 205 445 338 402 
281 9 398 488 419 458 547 150 303 154 159 
282 9 450 386 174 522 342 524 220 158 306 
283 9 385 387 595 123 242 250 83 609 512 
284 9 255 33 531 218 420 390 567 462 586 
285 9 64 542 391 87 31 188 594 42 52 
286 9 77 363 298 352 562 484 126 36 370 
287 9 108 20 210 441 456 308 455 500 365 
288 9 58 57 493 347 176 45 592 498 378 
289 9 165 147 115 513 104 217 67 339 491 
290 9 92 191 519 26 338 254 516 44 312 
291 9 135 459 196 48 69 457 118 129 357 
292 9 533 170 586 140 475 462 69 225 459 
293 9 521 40 439 333 433 603 430 75 172 
294 9 166 252 383 425 35 335 75 523 404 
295 9 10 570 428 528 329 607 199 434 34 
296 9 327 60 373 304 314 38 192 202 422 
297 9 30 554 473 273 95 265 239 238 163 
298 9 370 363 438 562 339 352 286 77 472 
299 9 9 525 111 54 11 471 153 608 355 
300 9 426 183 203 270 487 206 241 23 409 
301 9 212 392 37 366 247 127 229 146 302 
302 9 229 110 132 247 124 452 212 146 366 
303 9 150 419 281 159 488 266 547 572 478 
304 9 314 296 192 373 327 60 188 87 542 
305 9 24 334 519 19 193 61 223 92 278 
306 9 342 195 571 66 174 220 282 499 340 
307 9 82 130 263 556 507 331 310 335 544 
308 9 500 6 365 20 211 108 287 210 466 
309 9 197 580 272 417 78 80 591 171 354 
310 9 507 65 544 446 449 317 130 510 307 
311 9 109 381 21 117 85 136 545 56 337 
312 9 318 44 148 280 519 92 479 338 290 
313 9 413 497 160 43 369 46 572 315 125 
314 9 304 192 373 296 188 60 327 354 87 
315 9 125 582 68 369 442 468 160 81 313 
316 9 190 581 163 436 265 100 273 30 554 
317 9 449 65 189 600 2 187 310 507 446 
318 9 312 44 280 148 519 479 92 338 445 
319 9 142 121 223 334 502 19 445 76 402 
320 9 185 246 59 575 38 589 421 422 447 
321 9 496 205 4 590 557 414 565 402 76 
322 9 503 424 469 490 115 88 549 165 605 
323 9 523 425 134 73 383 559 35 168 166 
324 9 349 15 141 72 555 415 418 221 539 
325 8 583 431 27 464 217 495 454 472 
326 9 74 106 279 264 465 598 28 51 138 
327 9 296 60 373 304 38 202 314 422 380 
328 9 429 119 569 71 409 89 574 340 241 
329 9 375 199 295 428 330 437 10 215 570 
330 9 329 295 485 528 570 10 375 12 34 
331 9 344 376 130 507 307 556 430 263 310 
332 9 573 337 508 253 52 117 271 136 109 
333 9 433 603 521 293 439 172 162 40 143 
334 9 19 193 24 305 223 319 142 508 121 
335 9 556 75 263 252 294 404 430 439 166 
336 9 372 34 101 570 10 528 576 434 295 
337 9 573 332 117 508 253 109 136 21 311 
338 9 44 26 290 312 379 318 92 280 519 
339 9 370 438 298 562 147 217 289 115 472 
340 9 89 409 220 174 119 499 487 306 342 
341 9 258 231 243 8 7 467 568 527 416 
342 9 306 174 195 282 220 571 66 386 450 
343 9 347 498 227 56 45 493 274 545 278 
344 9 376 331 430 507 449 130 187 556 261 
345 9 509 460 261 213 410 25 187 551 469 
346 9 599 427 609 250 81 83 468 242 385 
347 9 343 498 45 493 227 288 56 57 58 
348 9 240 161 539 99 418 221 555 349 276 
349 9 555 324 415 72 418 221 15 141 161 
350 9 407 563 552 276 6 186 308 500 99 
351 9 492 103 215 118 585 133 105 367 225 
352 9 363 77 298 286 370 562 438 339 36 
353 9 553 480 395 248 216 32 208 149 535 
354 9 78 389 417 192 591 197 309 580 314 
355 9 114 153 448 578 558 537 326 74 299 
356 9 607 434 428 199 437 35 383 162 143 
357 9 86 461 48 548 172 135 238 196 291 
358 9 102 382 94 122 267 559 167 47 168 
359 9 132 443 151 588 152 50 453 49 124 
360 9 245 73 404 200 523 134 201 323 565 
361 9 454 532 577 269 67 513 408 529 440 
362 9 214 452 124 50 151 596 535 588 208 
363 9 352 77 298 286 370 562 438 339 36 
364 9 560 97 42 594 541 275 412 259 396 
365 9 500 466 308 211 20 455 6 108 287 
366 9 212 301 540 37 392 229 444 302 184 
367 9 225 384 475 215 567 351 292 420 462 
368 9 204 155 63 538 505 83 595 427 387 
369 9 160 313 572 315 497 125 413 478 43 
370 9 298 339 438 562 363 352 147 217 286 
371 9 29 96 390 255 604 531 218 284 33 
372 9 336 434 10 607 34 570 101 428 35 
373 9 60 296 327 314 304 192 38 228 422 
374 9 546 224 435 79 277 456 455 137 210 
375 9 329 199 437 215 103 295 428 105 492 
376 9 344 331 187 449 261 507 460 130 310 
377 9 514 175 476 593 561 234 239 144 548 
378 9 516 254 543 493 57 256 45 177 176 
379 9 26 39 177 338 400 489 466 543 254 
380 9 597 202 440 408 589 269 327 244 296 
381 9 85 21 311 109 545 117 56 46 136 
382 9 94 358 102 122 167 47 602 267 208 
383 9 35 425 166 294 252 356 323 434 607 
384 9 367 215 225 475 463 351 567 420 375 
385 9 123 283 242 250 609 595 599 83 387 
386 8 450 524 282 36 126 522 342 484 
387 9 595 283 385 83 204 123 368 242 155 
388 8 235 268 584 257 397 393 262 522 
389 9 354 591 78 417 566 192 173 197 157 
390 9 255 531 284 604 96 218 33 29 420 
391 9 31 285 16 64 222 87 182 253 542 
392 9 37 301 212 127 247 84 366 146 41 
393 6 262 235 494 388 397 584 
394 9 3 481 186 511 539 474 99 240 348 
395 9 208 553 535 480 248 353 102 94 358 
396 9 412 259 482 42 97 364 542 408 560 
397 8 257 584 388 235 484 522 268 393 
398 9 458 281 154 547 488 419 171 150 566 
399 9 400 256 483 39 579 90 543 198 177 
400 9 399 90 579 483 39 489 7 177 243 
401 9 112 79 277 84 435 137 456 13 441 
402 9 76 557 445 479 411 121 148 232 223 
403 9 551 14 144 410 25 213 561 499 514 
404 9 263 360 335 245 82 523 294 556 307 
405 9 470 501 520 113 156 180 506 268 388 
406 9 209 22 538 505 266 150 63 419 547 
407 9 350 563 276 552 99 186 240 6 184 
408 9 440 269 597 380 482 202 532 361 396 
409 9 89 487 340 241 119 429 426 300 574 
410 9 551 213 25 403 261 460 66 345 571 
411 9 232 557 76 402 55 414 131 4 600 
412 9 396 259 42 97 482 364 560 542 64 
413 9 313 497 43 46 160 369 91 222 70 
414 9 4 550 590 510 446 600 411 496 544 
415 9 72 555 349 221 418 324 161 15 141 
416 9 489 568 7 466 211 90 243 579 467 
417 9 197 78 309 580 272 354 591 389 566 
418 9 221 161 555 348 349 240 415 539 72 
419 9 150 547 281 303 398 458 488 159 266 
420 9 33 567 284 218 462 255 531 475 586 
421 9 59 575 320 5 246 185 128 486 447 
422 9 38 228 169 128 185 60 327 320 373 
423 9 606 517 95 206 239 270 297 234 436 
424 9 490 503 322 88 469 605 549 233 164 
425 9 383 35 323 166 523 294 252 372 434 
426 9 300 487 183 270 203 241 206 23 409 
427 9 346 83 599 81 155 609 595 250 385 
428 9 607 434 356 199 295 10 437 372 375 
429 9 328 119 574 569 409 89 241 71 340 
430 9 40 75 439 556 293 331 335 344 521 
431 8 325 464 583 27 529 495 454 217 
432 9 139 564 93 140 604 586 531 170 462 
433 9 333 603 521 172 162 293 143 439 260 
434 9 607 428 356 372 35 10 295 199 336 
435 9 277 79 546 374 224 137 456 401 112 
436 9 163 190 316 95 30 273 581 265 554 
437 9 105 199 103 492 133 375 356 260 428 
438 9 562 339 370 298 217 472 147 286 363 
439 9 40 75 293 603 521 333 430 433 335 
440 9 408 269 597 380 202 589 244 482 361 
441 9 210 456 287 108 20 79 455 401 277 
442 9 468 68 125 70 582 315 43 81 313 
443 9 453 49 359 477 152 132 588 151 237 
444 9 116 184 540 152 366 132 477 221 443 
445 9 479 402 76 148 557 223 280 318 319 
446 9 550 544 65 510 414 600 310 4 590 
447 9 244 246 589 5 575 529 185 320 59 
448 9 578 558 153 355 114 537 181 326 465 
449 9 317 187 507 310 376 65 331 344 261 
450 8 386 282 524 522 126 36 342 484 
451 9 236 8 230 467 341 258 552 6 211 
452 9 124 214 362 50 110 47 151 167 588 
453 9 49 443 477 359 152 588 132 237 151 
454 9 361 27 513 577 532 67 147 529 289 
455 9 210 20 456 108 365 374 287 441 79 
456 9 441 210 79 108 287 20 455 435 277 
457 9 459 93 129 140 100 291 564 533 69 
458 9 398 547 281 154 419 488 150 171 303 
459 9 69 291 457 533 292 170 140 135 196 
460 9 261 509 345 187 410 213 551 376 25 
461 9 548 357 86 238 48 476 172 473 175 
462 9 586 170 475 292 533 33 420 140 567 
463 9 384 567 367 420 33 225 215 218 475 
464 9 431 325 583 529 27 495 454 138 51 
465 9 106 51 326 138 598 74 28 495 279 
466 9 365 211 416 489 568 500 7 308 6 
467 9 8 568 451 211 341 7 416 258 236 
468 9 442 68 125 582 70 81 315 43 346 
469 9 503 322 2 424 509 490 189 605 88 
470 9 405 501 113 520 156 180 268 506 71 
471 9 11 608 111 525 54 9 219 299 518 
472 6 562 438 217 339 583 370 
473 9 297 238 239 554 30 461 273 548 95 
474 9 511 515 394 481 141 15 3 539 324 
475 9 225 367 292 462 586 170 567 533 384 
476 9 175 377 514 548 461 561 593 144 234 
477 9 49 453 443 152 116 359 444 132 540 
478 9 159 572 488 91 157 160 369 303 281 
479 9 445 148 402 76 223 280 318 557 312 
480 9 248 395 553 353 216 208 535 32 102 
481 9 3 394 511 186 474 515 539 99 240 
482 9 396 259 412 408 42 97 440 597 532 
483 9 579 90 400 243 399 527 7 231 198 
484 8 126 286 36 397 524 77 386 450 
485 9 12 576 528 101 32 34 216 570 10 
486 9 226 536 28 264 598 279 5 74 575 
487 9 426 300 241 409 183 89 23 340 203 
488 9 159 281 478 398 572 154 303 566 419 
489 9 416 568 7 466 90 579 400 211 243 
490 9 88 424 605 503 549 164 322 233 504 
491 9 62 104 233 549 67 513 165 577 289 
492 9 103 105 133 351 585 118 260 437 215 
493 9 45 57 378 498 516 347 288 254 343 
494 6 262 393 181 235 145 388 
495 9 138 51 464 431 465 325 583 598 106 
496 9 590 565 321 4 201 510 414 550 200 
497 9 313 413 160 369 46 43 91 572 222 
498 9 45 347 343 227 493 191 278 516 56 
499 9 571 183 195 306 340 14 66 487 300 
500 9 308 6 365 20 211 108 287 210 466 
501 9 520 156 405 470 180 506 113 53 219 
502 9 207 120 142 107 319 121 275 271 19 
503 9 469 424 322 490 2 88 605 189 504 
504 9 131 55 605 88 189 232 2 490 411 
505 9 63 538 22 368 209 204 17 155 194 
506 9 180 518 18 53 520 219 405 501 156 
507 9 310 65 130 449 331 544 307 82 317 
508 9 573 337 136 117 332 193 24 61 109 
509 9 345 460 261 187 469 2 213 410 449 
510 9 550 590 446 544 4 414 65 496 310 
511 9 474 515 394 481 141 15 3 539 324 
512 9 592 123 242 58 385 283 250 288 587 
513 9 67 104 577 289 62 532 165 454 491 
514 9 377 175 561 476 593 144 234 14 239 
515 9 474 511 141 15 324 394 481 539 349 
516 9 254 378 45 493 543 191 177 498 57 
517 9 606 423 206 95 23 436 270 163 239 
518 9 219 526 506 18 180 53 608 471 537 
519 9 92 312 305 318 290 148 44 223 191 
520 9 156 501 405 180 470 506 53 219 113 
521 9 293 333 433 40 439 603 172 430 548 
522 8 450 282 257 158 386 584 397 524 
523 9 323 425 73 134 166 294 360 404 383 
524 8 386 36 126 450 282 484 522 77 
525 9 111 54 11 471 9 299 608 153 526 
526 9 537 518 18 558 578 608 145 471 11 
527 9 231 483 198 243 579 90 258 341 7 
528 9 570 34 101 10 576 295 336 485 372 
529 9 464 244 447 431 454 361 325 269 27 
530 9 98 601 41 178 179 251 84 146 247 
531 9 255 390 284 33 218 462 420 604 96 
532 9 577 67 361 513 62 454 269 104 408 
533 9 170 292 140 586 462 69 459 564 475 
534 9 587 176 198 256 57 399 378 288 527 
535 9 208 395 553 362 214 47 94 480 452 
536 9 226 486 264 28 598 279 74 326 5 
537 9 558 578 526 153 448 145 18 518 355 
538 9 155 505 368 63 204 266 22 209 81 
539 9 348 240 161 99 418 221 349 555 324 
540 9 444 366 184 152 116 132 212 301 229 
541 9 594 52 271 364 560 275 42 97 332 
542 9 64 285 87 188 391 31 396 42 304 
543 9 177 254 378 39 256 516 399 26 400 
544 9 446 65 510 310 550 507 590 4 414 
545 9 85 381 311 56 21 109 274 70 43 
546 9 374 224 435 277 79 137 456 455 13 
547 9 419 458 150 281 398 303 488 154 159 
548 9 461 357 86 476 238 175 48 172 473 
549 9 233 491 164 249 490 104 62 424 88 
550 9 446 510 414 4 544 590 65 600 310 
551 9 410 403 213 25 261 460 14 144 66 
552 9 350 563 186 407 276 6 230 236 3 
553 9 395 208 535 480 353 248 149 362 216 
554 9 273 30 265 297 100 129 473 95 238 
555 9 349 415 221 418 72 324 161 348 539 
556 9 263 335 130 307 75 82 430 331 404 
557 9 76 402 411 445 479 232 414 321 4 
558 9 578 537 448 153 526 145 355 181 18 
559 9 168 134 73 358 102 267 323 382 94 
560 9 364 97 275 42 594 249 541 259 412 
561 9 593 514 377 234 14 144 175 203 476 
562 8 438 298 370 339 472 286 363 217 
563 9 276 407 350 186 552 99 240 348 3 
564 9 139 140 432 93 170 586 533 457 292 
565 9 201 200 496 590 510 321 245 4 360 
566 9 591 154 171 389 78 197 272 417 488 
567 9 420 33 284 218 475 462 225 367 586 
568 9 416 7 489 211 243 467 466 90 341 
569 9 71 119 158 328 429 220 113 174 89 
570 9 10 528 34 101 295 336 576 372 434 
571 9 195 66 306 499 25 342 213 410 551 
572 9 478 159 369 160 91 488 497 157 303 
573 9 337 332 508 117 253 136 52 109 193 
574 9 241 23 429 409 328 487 89 426 300 
575 9 5 59 246 447 320 421 185 589 244 
576 9 101 34 528 485 570 336 216 12 10 
577 9 532 67 513 361 62 104 454 491 269 
578 9 558 537 448 153 355 526 114 145 181 
579 9 90 483 400 243 7 399 527 489 231 
580 9 309 197 417 272 78 80 354 591 171 
581 9 316 190 100 163 265 436 273 129 30 
582 9 68 125 315 468 442 81 70 369 43 
583 8 325 431 27 464 217 472 495 454 
584 8 257 397 388 268 235 522 393 484 
585 9 133 118 492 105 260 103 351 196 143 
586 9 462 170 292 533 140 475 564 225 531 
587 9 534 176 198 256 57 592 58 288 512 
588 9 151 50 596 237 359 362 124 214 443 
589 9 244 447 246 185 440 380 202 320 597 
590 9 510 496 4 550 414 446 544 565 201 
591 9 566 389 78 354 417 197 309 272 580 
592 9 512 123 242 58 288 587 250 385 283 
593 9 234 561 377 514 239 203 175 476 270 
594 9 541 52 364 560 42 271 97 285 275 
595 9 83 387 385 283 427 204 155 250 599 
596 9 237 588 50 151 362 149 214 124 452 
597 9 380 202 440 408 269 589 482 327 244 
598 9 28 264 106 279 138 326 536 74 51 
599 9 346 609 250 427 242 385 123 83 595 
600 9 65 446 550 189 414 317 232 544 4 
601 9 530 98 41 178 251 179 146 84 247 
602 9 122 167 251 47 146 382 94 178 179 
603 9 333 433 439 521 162 293 143 40 172 
604 9 96 390 531 432 255 29 139 371 284 
605 9 88 504 131 490 55 424 189 503 2 
606 9 517 423 206 23 270 95 239 203 300 
607 9 434 428 356 372 199 295 10 35 437 
608 9 471 11 111 54 525 219 518 526 53 
609 9 250 599 242 346 123 385 427 83 595 
DEPOT_SECTION
   1
   -1
EOF
