NAME :  X-n655-kX-w65-c9.cctp
COMMENT : 	Adapted by Maziero, Usberti and Cavellucci from the Uchoa, Pecin, Pessoa, Poggi, Subramanian, and Vidal (2013)
TYPE :  CCTP
DIMENSION :    477
EDGE_WEIGHT_TYPE : 	EUC_2D	
CAPACITY : 	5
VERTICES_WITHIN_COVERAGE :  9
VERTICES_WITH_DEMAND : 	65
NODE_COORD_SECTION
1 500 500
2 346 793
3 692 966
4 171 666
5 287 795
6 133 668
7 704 959
8 400 795
9 195 897
10 845 931
11 829 724
12 300 860
13 218 829
14 116 780
15 237 631
16 126 681
17 825 922
18 315 913
19 271 769
20 530 917
21 156 900
22 265 808
23 171 742
24 388 776
25 153 664
26 393 855
27 320 751
28 594 862
29 213 810
30 723 924
31 192 877
32 661 910
33 153 729
34 334 812
35 558 944
36 502 783
37 266 747
38 23 753
39 180 584
40 702 854
41 354 649
42 412 709
43 721 928
44 168 674
45 364 640
46 375 727
47 247 977
48 332 853
49 664 929
50 646 901
51 248 723
52 116 628
53 123 690
54 247 539
55 715 966
56 314 712
57 237 747
58 202 679
59 409 946
60 684 879
61 142 576
62 204 636
63 440 817
64 697 882
65 772 977
66 177 889
67 341 787
68 391 725
69 82 764
70 734 834
71 102 631
72 354 612
73 374 865
74 421 812
75 646 931
76 560 910
77 702 965
78 273 790
79 329 750
80 850 855
81 393 953
82 389 923
83 341 851
84 781 946
85 329 862
86 53 777
87 133 596
88 273 812
89 223 812
90 663 944
91 336 940
92 249 956
93 433 852
94 294 856
95 285 879
96 175 885
97 669 902
98 763 969
99 138 632
100 193 593
101 220 818
102 145 800
103 739 960
104 639 894
105 329 726
106 799 987
107 660 917
108 382 741
109 242 626
110 509 886
111 190 416
112 353 659
113 132 677
114 364 771
115 893 900
116 411 757
117 397 805
118 171 644
119 260 816
120 764 980
121 149 657
122 716 925
123 191 843
124 566 966
125 620 908
126 358 727
127 268 705
128 406 927
129 139 943
130 549 931
131 177 664
132 433 707
133 301 753
134 120 764
135 178 664
136 109 751
137 419 952
138 309 737
139 289 787
140 350 812
141 88 794
142 151 658
143 185 883
144 603 872
145 317 747
146 579 988
147 361 731
148 37 706
149 154 745
150 324 703
151 727 900
152 383 694
153 151 679
154 149 654
155 212 842
156 217 644
157 250 597
158 835 953
159 324 910
160 344 793
161 176 922
162 204 682
163 262 830
164 385 931
165 706 957
166 201 655
167 379 791
168 728 720
169 296 858
170 663 942
171 135 908
172 805 910
173 646 872
174 113 692
175 430 668
176 588 977
177 236 656
178 89 671
179 136 667
180 377 846
181 375 728
182 269 763
183 235 694
184 452 826
185 281 909
186 215 585
187 325 707
188 419 817
189 392 704
190 152 544
191 136 580
192 155 556
193 345 859
194 99 666
195 519 722
196 168 757
197 676 800
198 229 686
199 772 941
200 637 926
201 464 795
202 327 758
203 98 690
204 852 860
205 124 598
206 235 831
207 680 969
208 323 800
209 525 931
210 120 772
211 839 978
212 214 652
213 236 738
214 138 699
215 336 773
216 190 648
217 119 620
218 198 853
219 288 514
220 888 888
221 165 542
222 682 934
223 759 985
224 416 819
225 724 966
226 403 812
227 270 789
228 482 818
229 69 537
230 734 946
231 644 943
232 681 943
233 323 765
234 514 782
235 141 713
236 624 870
237 328 801
238 185 648
239 689 956
240 137 895
241 299 975
242 448 752
243 348 642
244 675 910
245 245 776
246 434 705
247 283 804
248 889 924
249 350 844
250 519 720
251 720 924
252 259 800
253 514 712
254 421 818
255 174 765
256 750 969
257 481 831
258 141 959
259 320 840
260 341 651
261 365 730
262 789 953
263 680 906
264 145 740
265 467 973
266 309 761
267 153 907
268 335 809
269 989 940
270 176 655
271 759 975
272 345 821
273 749 841
274 133 650
275 254 803
276 293 782
277 226 806
278 147 600
279 437 837
280 310 738
281 146 594
282 864 905
283 271 792
284 317 845
285 469 986
286 235 641
287 405 833
288 617 890
289 508 893
290 712 984
291 577 895
292 225 550
293 171 397
294 391 780
295 418 845
296 155 768
297 135 553
298 383 713
299 631 842
300 313 899
301 777 738
302 699 923
303 323 706
304 232 689
305 232 654
306 540 966
307 137 742
308 205 693
309 203 663
310 212 657
311 274 816
312 358 665
313 522 768
314 232 688
315 179 630
316 359 620
317 276 725
318 269 741
319 300 881
320 234 495
321 848 971
322 141 576
323 158 722
324 140 687
325 293 767
326 571 769
327 236 891
328 409 941
329 219 907
330 381 689
331 298 706
332 149 681
333 745 731
334 314 700
335 218 889
336 286 867
337 331 662
338 817 976
339 210 767
340 60 635
341 209 914
342 348 823
343 600 940
344 219 943
345 334 754
346 333 697
347 700 975
348 354 815
349 281 903
350 393 876
351 116 629
352 457 836
353 723 793
354 322 922
355 182 725
356 276 788
357 337 871
358 157 712
359 110 751
360 97 782
361 245 799
362 705 860
363 251 740
364 331 736
365 678 955
366 310 710
367 138 651
368 299 520
369 314 735
370 238 903
371 116 779
372 25 788
373 115 837
374 191 605
375 39 803
376 269 809
377 333 845
378 103 581
379 390 849
380 678 973
381 368 739
382 218 733
383 698 973
384 742 935
385 338 814
386 96 621
387 741 911
388 728 990
389 628 922
390 713 842
391 243 643
392 736 891
393 379 850
394 348 845
395 370 701
396 281 761
397 121 730
398 405 747
399 722 827
400 380 638
401 192 679
402 391 872
403 754 984
404 319 838
405 289 917
406 466 764
407 409 807
408 302 908
409 140 817
410 303 803
411 479 913
412 686 901
413 379 698
414 659 924
415 290 701
416 289 978
417 239 744
418 312 820
419 195 565
420 339 789
421 259 794
422 219 685
423 378 793
424 329 846
425 317 866
426 279 817
427 942 960
428 369 728
429 688 978
430 190 881
431 136 608
432 184 611
433 326 860
434 279 803
435 688 984
436 653 911
437 319 744
438 390 741
439 104 721
440 667 910
441 896 805
442 324 725
443 258 810
444 233 734
445 794 896
446 692 953
447 299 858
448 647 844
449 427 680
450 227 914
451 57 738
452 708 994
453 105 706
454 241 837
455 312 704
456 199 748
457 227 644
458 331 670
459 59 723
460 201 647
461 249 655
462 183 835
463 354 804
464 331 901
465 817 995
466 172 670
467 397 950
468 309 797
469 324 959
470 437 695
471 77 613
472 721 986
473 272 770
474 688 871
475 708 917
476 380 847
477 83 847
DEMAND_SECTION
2 1
3 1
4 1
5 1
6 1
7 1
8 1
9 1
10 1
11 1
12 1
13 1
14 1
15 1
16 1
17 1
18 1
19 1
20 1
21 1
22 1
23 1
24 1
25 1
26 1
27 1
28 1
29 1
30 1
31 1
32 1
33 1
34 1
35 1
36 1
37 1
38 1
39 1
40 1
41 1
42 1
43 1
44 1
45 1
46 1
47 1
48 1
49 1
50 1
51 1
52 1
53 1
54 1
55 1
56 1
57 1
58 1
59 1
60 1
61 1
62 1
63 1
64 1
65 1
66 1
COVERAGE_SECTION
2 9 160 67 420 463 140 268 237 34 215 
3 9 383 77 239 207 347 429 446 7 380 
4 9 466 131 135 44 270 25 118 142 238 
5 9 139 247 434 356 276 78 283 227 410 
6 9 179 113 16 274 367 121 25 324 142 
7 9 165 77 55 446 3 239 383 347 225 
8 9 117 407 226 294 167 24 423 74 188 
9 9 143 430 31 66 341 96 335 329 161 
10 9 17 158 282 321 172 248 211 338 115 
11 6 301 333 168 441 353 80 
12 8 447 169 94 336 425 319 284 95 
13 9 101 155 206 89 29 277 454 123 218 
14 8 371 210 134 360 136 359 141 102 
15 9 109 286 391 457 156 305 177 461 212 
16 8 113 53 6 324 174 179 214 332 
17 9 10 172 158 445 282 262 84 321 338 
18 9 159 354 300 408 464 405 91 185 319 
19 9 473 182 396 227 356 78 325 37 283 
20 9 209 130 76 289 110 35 306 411 291 
21 9 267 240 171 66 96 161 143 9 430 
22 9 376 443 88 119 252 275 311 421 434 
23 7 196 149 355 33 255 323 264 
24 5 294 167 423 8 114 
25 9 142 121 154 153 179 332 4 44 6 
26 9 379 393 476 402 180 73 350 287 295 
27 9 145 437 79 202 233 345 266 280 369 
28 9 144 236 288 291 299 125 173 104 448 
29 7 89 101 277 13 206 155 361 
30 9 251 43 122 475 384 387 151 302 230 
31 9 430 143 66 96 9 218 335 123 155 
32 9 440 107 436 97 244 414 50 49 263 
33 7 323 264 149 358 235 307 23 
34 9 268 385 237 272 140 208 342 348 160 
35 9 130 124 306 76 209 20 343 176 146 
36 9 234 313 201 228 406 257 242 195 250 
37 7 318 182 363 396 19 317 473 
38 8 372 451 86 459 148 375 69 141 
39 9 100 374 419 432 186 281 278 192 61 
40 9 362 390 474 64 60 399 70 273 392 
41 9 243 112 45 260 312 337 400 316 458 
42 9 132 189 246 68 298 470 152 449 413 
43 9 30 251 122 475 230 384 302 387 151 
44 9 466 4 131 135 25 153 332 270 142 
45 9 41 243 400 316 112 260 312 72 337 
46 9 181 428 261 381 147 68 108 298 126 
47 8 92 416 344 241 450 405 341 329 
48 8 377 424 83 85 433 193 284 259 
49 9 414 107 170 90 75 32 222 440 436 
50 9 104 436 32 107 97 440 414 125 200 
51 9 363 213 444 417 57 127 317 318 37 
52 7 351 217 71 386 99 274 431 
53 8 16 174 113 214 324 6 453 203 
54 7 292 320 219 368 186 157 419 
55 9 225 7 77 165 347 290 383 472 3 
56 9 366 455 303 187 334 150 442 331 105 
57 9 417 213 444 363 382 51 37 245 318 
58 7 162 401 308 309 422 166 310 
59 7 328 137 467 81 128 164 82 
60 9 474 64 412 97 263 362 40 244 440 
61 9 322 191 281 87 192 297 278 205 431 
62 9 460 156 216 166 212 238 310 457 315 
63 9 184 254 74 279 188 224 352 201 407 
64 9 60 474 412 362 40 263 97 151 244 
65 8 120 98 271 223 403 256 106 262 
66 9 96 143 430 31 9 21 267 161 240 
67 8 420 160 2 215 237 463 208 268 
68 8 298 46 181 438 108 189 428 42 
69 8 360 136 141 359 86 451 371 14 
70 7 399 273 390 40 362 353 392 
71 8 386 52 351 217 471 194 99 274 
72 6 316 45 243 41 400 260 
73 5 393 402 180 476 26 
74 9 188 254 224 407 226 63 117 287 8 
75 9 200 231 414 49 107 170 389 90 436 
76 9 291 130 20 35 209 343 289 110 124 
77 9 7 165 383 3 347 55 239 446 429 
78 9 227 283 356 434 5 421 139 247 252 
79 8 345 202 27 145 437 364 233 369 
80 8 204 220 282 115 441 445 172 17 
81 7 467 59 328 164 137 128 82 
82 6 164 128 328 467 59 81 
83 8 48 193 394 377 249 424 85 433 
84 6 199 262 98 65 271 120 
85 9 433 48 357 425 83 193 424 377 284 
86 8 372 375 69 38 141 451 360 459 
87 8 205 431 281 278 191 61 322 217 
88 7 311 376 426 22 434 247 119 
89 9 101 277 29 13 206 361 454 155 275 
90 7 170 49 232 231 365 414 75 
91 5 469 354 159 18 464 
92 8 47 344 416 450 241 370 405 185 
93 9 279 295 352 184 287 63 254 224 188 
94 6 169 447 12 336 95 284 
95 9 336 319 12 169 349 94 447 185 300 
96 9 66 143 430 31 9 21 267 161 218 
97 9 440 244 32 263 107 412 436 50 414 
98 7 271 120 65 256 223 403 103 
99 5 274 367 52 217 351 
100 8 374 39 432 186 419 315 62 278 
101 9 89 13 29 277 206 155 454 361 275 
102 3 409 296 14 
103 6 256 230 225 55 271 384 
104 9 50 288 436 173 125 32 236 389 97 
105 8 442 364 369 187 56 303 437 280 
106 9 465 338 65 262 120 98 223 211 271 
107 9 32 414 436 440 49 97 244 75 50 
108 4 438 381 181 46 
109 8 15 286 391 457 157 305 461 156 
110 5 289 20 411 209 76 
111 7 293 320 221 190 54 292 219 
112 8 312 41 260 243 45 337 458 400 
113 8 16 6 179 324 53 332 153 214 
114 2 24 167 
115 9 220 248 282 10 204 80 17 427 158 
116 6 398 438 24 294 108 242 
117 9 226 8 407 423 167 224 74 188 294 
118 9 270 238 315 216 131 135 4 142 154 
119 9 443 22 376 88 163 275 311 252 426 
120 7 223 271 65 98 403 256 103 
121 7 142 154 25 367 179 274 6 
122 8 251 43 30 475 302 151 230 384 
123 7 462 218 155 13 31 101 430 
124 6 35 176 146 306 130 343 
125 9 389 288 104 200 50 436 75 236 343 
126 6 147 261 428 381 46 181 
127 5 317 415 51 331 183 
128 7 328 82 59 164 467 137 81 
129 9 258 171 267 161 21 240 66 96 9 
130 9 35 20 76 209 306 124 291 343 289 
131 9 135 4 466 270 44 238 118 216 401 
132 9 246 470 42 449 175 189 68 242 398 
133 6 266 325 145 280 138 27 
134 7 210 14 359 371 136 307 360 
135 9 131 4 466 270 44 238 216 118 401 
136 8 359 134 210 397 307 371 14 69 
137 8 59 328 467 81 128 164 82 265 
138 5 280 369 437 145 27 
139 9 276 5 356 78 247 227 283 434 325 
140 7 348 463 272 342 385 268 34 
141 9 360 14 69 371 86 210 134 136 359 
142 7 121 154 25 367 179 274 6 
143 9 430 31 66 96 9 218 21 335 341 
144 9 28 236 288 291 125 299 104 173 50 
145 9 437 27 280 79 369 138 202 266 133 
146 5 176 124 306 35 343 
147 6 261 126 428 381 181 46 
148 4 459 451 38 178 
149 8 264 33 23 307 196 296 323 255 
150 8 303 187 334 346 455 56 366 442 
151 9 392 387 30 251 475 122 43 64 302 
152 9 330 413 189 395 298 68 42 46 181 
153 6 332 324 25 44 113 179 
154 6 121 142 25 367 274 179 
155 9 13 218 123 101 206 454 462 29 89 
156 9 212 457 310 62 460 286 305 166 177 
157 5 109 15 186 286 391 
158 9 321 10 211 338 17 262 465 106 172 
159 7 18 464 354 300 408 91 405 
160 9 2 420 67 463 237 268 140 34 208 
161 9 267 21 9 66 341 96 143 129 171 
162 7 58 308 401 422 309 198 310 
163 8 119 311 443 88 426 22 376 454 
164 6 82 128 467 81 328 59 
165 9 7 77 55 446 3 239 383 347 225 
166 9 309 460 310 212 216 238 62 156 58 
167 9 423 294 24 8 117 114 463 226 2 
168 6 333 301 353 197 11 399 
169 7 94 447 12 336 425 319 95 
170 8 90 49 232 414 231 75 365 222 
171 9 240 267 21 129 161 66 96 258 143 
172 7 445 17 84 10 199 262 158 
173 9 236 104 448 50 288 299 97 60 436 
174 8 53 203 453 16 113 214 324 194 
175 8 449 470 246 132 42 189 330 152 
176 4 146 124 343 35 
177 9 305 461 286 391 457 156 212 310 15 
178 5 194 203 174 16 453 
179 9 6 113 121 367 16 25 142 274 154 
180 5 476 393 379 26 73 
181 9 46 428 261 381 147 108 68 126 298 
182 8 19 473 396 37 318 325 227 356 
183 7 304 314 198 422 308 51 162 
184 9 352 63 279 257 228 93 254 201 74 
185 8 349 405 408 95 18 300 319 336 
186 9 100 419 374 39 292 157 432 109 15 
187 8 303 150 56 334 346 455 366 442 
188 9 254 224 74 407 226 63 287 117 279 
189 9 152 298 413 330 42 68 395 46 181 
190 9 192 221 297 61 322 191 419 39 281 
191 9 322 61 87 281 205 278 297 431 192 
192 9 190 221 297 61 322 191 39 281 419 
193 7 83 48 357 394 85 249 377 
194 5 178 203 174 16 6 
195 8 250 253 313 234 36 406 326 242 
196 4 255 23 296 149 
197 7 353 399 448 390 40 299 70 
198 8 304 314 183 422 162 308 58 177 
199 6 84 262 98 384 65 256 
200 9 75 389 231 414 436 107 125 49 50 
201 9 228 406 63 184 36 257 352 74 242 
202 9 79 233 345 27 145 437 215 266 364 
203 6 174 453 178 194 53 16 
204 8 80 220 282 115 17 445 172 441 
205 9 87 431 191 281 217 278 378 61 322 
206 9 454 13 101 89 155 163 277 119 29 
207 7 380 3 429 365 239 435 383 
208 6 237 468 268 34 420 410 
209 9 20 130 35 306 76 289 110 411 124 
210 7 134 371 14 359 136 360 307 
211 9 321 338 158 465 106 10 262 17 84 
212 9 310 156 166 460 457 309 305 62 177 
213 8 444 417 57 363 51 382 37 318 
214 3 324 235 53 
215 7 67 233 420 202 345 2 160 
216 9 238 460 166 270 62 118 135 309 131 
217 8 52 351 71 431 99 205 386 87 
218 8 123 155 462 31 430 13 143 96 
219 3 368 54 320 
220 9 115 282 248 204 80 10 17 441 158 
221 9 190 192 297 419 61 322 39 191 281 
222 8 232 49 302 90 170 365 446 239 
223 7 403 120 271 65 98 256 388 
224 9 188 254 74 407 226 287 63 117 295 
225 8 55 103 165 472 7 77 230 290 
226 9 407 117 224 8 188 74 254 287 423 
227 7 78 283 356 421 252 434 5 
228 6 257 201 184 352 36 63 
229 8 378 297 471 191 205 322 61 190 
230 7 384 103 43 225 30 251 55 
231 6 75 200 90 170 49 414 
232 9 222 365 239 446 90 170 49 3 207 
233 7 202 27 215 266 79 345 145 
234 9 36 313 228 406 201 326 257 195 250 
235 4 214 358 323 33 
236 9 144 288 173 104 299 28 448 50 125 
237 8 208 268 34 385 420 160 67 468 
238 9 216 270 118 460 135 166 131 315 62 
239 9 446 3 365 7 232 77 207 165 383 
240 8 171 21 267 96 66 161 129 143 
241 8 416 469 91 47 92 354 405 18 
242 8 406 116 398 201 132 246 42 470 
243 8 41 260 45 112 312 316 337 72 
244 8 263 440 97 32 412 107 414 49 
245 6 361 421 19 182 227 252 
246 9 132 470 42 449 175 189 68 242 398 
247 6 434 5 88 426 311 376 
248 9 115 282 220 10 158 321 17 427 204 
249 5 394 83 193 377 48 
250 8 195 253 313 234 36 406 326 242 
251 9 30 43 122 475 302 151 384 387 230 
252 7 275 421 22 443 376 283 361 
253 8 250 195 313 234 406 36 242 470 
254 9 188 224 74 407 63 226 287 279 117 
255 3 196 296 23 
256 7 271 98 103 403 120 223 65 
257 5 228 352 184 201 63 
258 9 129 161 171 267 21 240 66 344 96 
259 6 404 284 424 377 48 433 
260 7 243 41 112 337 458 312 45 
261 6 147 428 126 381 46 181 
262 7 84 199 65 98 106 338 120 
263 8 244 412 97 440 32 107 302 60 
264 8 307 149 33 323 23 397 235 196 
265 9 285 137 411 59 328 209 306 467 128 
266 7 133 27 233 145 325 202 437 
267 9 21 171 240 161 66 96 129 143 9 
268 9 34 385 237 140 208 272 160 2 342 
269 9 427 248 115 220 282 10 321 158 211 
270 9 131 135 238 4 118 216 466 44 25 
271 7 98 120 223 403 256 65 103 
272 6 342 140 385 348 34 268 
273 5 70 399 390 362 40 
274 6 367 154 121 179 6 99 
275 7 252 443 361 421 22 119 376 
276 7 139 5 325 356 78 468 410 
277 7 89 101 29 361 13 206 275 
278 7 281 431 87 191 205 61 322 
279 9 93 184 63 352 295 254 188 224 74 
280 6 138 369 145 437 27 133 
281 8 278 87 191 431 61 322 205 39 
282 9 115 220 248 10 17 204 80 158 172 
283 9 78 227 356 421 252 434 5 22 247 
284 6 259 404 424 377 48 433 
285 9 265 137 59 306 411 328 209 467 81 
286 9 391 457 15 305 177 109 156 461 212 
287 9 224 295 188 226 254 379 26 74 407 
288 9 125 236 104 144 50 173 389 28 291 
289 5 110 20 411 209 76 
290 8 472 452 347 388 55 383 77 225 
291 9 76 144 28 288 125 130 343 20 35 
292 9 54 419 186 157 100 39 320 221 374 
293 7 111 320 221 190 192 297 54 
294 7 24 167 8 423 117 114 116 
295 9 93 287 279 224 26 254 188 379 74 
296 6 196 255 149 264 23 307 
297 9 190 192 61 322 191 221 281 87 378 
298 9 189 68 46 413 181 395 152 428 330 
299 8 448 236 173 144 28 288 104 50 
300 9 18 408 159 464 319 354 405 349 425 
301 6 333 168 11 353 70 399 
302 8 475 122 222 251 43 30 263 412 
303 8 187 150 56 334 455 346 366 442 
304 7 314 198 183 422 308 162 58 
305 9 177 457 286 391 461 156 212 310 15 
306 8 124 35 130 209 146 176 20 76 
307 8 264 149 397 33 134 359 136 235 
308 5 162 58 422 401 198 
309 9 166 310 58 212 460 162 401 216 238 
310 9 212 166 309 156 460 305 457 62 58 
311 7 88 426 376 22 119 434 247 
312 8 112 41 260 243 45 337 458 330 
313 9 234 36 195 250 326 406 253 201 228 
314 7 304 198 183 422 308 162 58 
315 8 118 238 432 216 270 62 374 460 
316 7 72 45 243 400 41 260 112 
317 3 318 127 37 
318 4 37 317 363 182 
319 9 95 336 12 300 169 425 447 94 408 
320 8 54 292 219 368 419 221 111 186 
321 9 211 158 338 465 10 106 17 248 262 
322 9 61 191 281 87 192 297 278 205 431 
323 4 33 358 235 264 
324 6 332 214 113 153 16 53 
325 7 396 276 133 266 139 473 19 
326 6 313 234 36 195 250 253 
327 6 370 335 329 450 341 9 
328 7 59 128 137 467 81 164 82 
329 8 450 341 335 370 327 9 344 430 
330 8 152 413 395 189 298 312 42 68 
331 6 415 366 455 56 334 303 
332 6 153 324 25 113 179 44 
333 6 168 301 353 11 197 399 
334 8 455 150 303 366 56 187 331 346 
335 9 327 329 9 370 341 450 31 430 143 
336 7 95 169 94 12 447 319 425 
337 5 458 260 112 41 243 
338 9 465 106 211 158 321 262 65 84 10 
339 3 456 57 382 
340 6 471 386 71 178 194 52 
341 8 329 450 9 335 344 370 161 327 
342 5 272 348 140 385 34 
343 5 389 125 176 200 35 
344 8 450 341 92 329 47 370 161 9 
345 8 79 202 27 233 145 364 437 215 
346 6 150 187 303 334 455 56 
347 9 383 77 3 429 290 435 7 55 165 
348 6 140 342 272 463 385 34 
349 8 185 405 408 95 319 300 18 336 
350 4 402 26 73 379 
351 7 52 217 71 99 386 274 431 
352 6 184 279 63 257 93 228 
353 8 399 70 197 390 273 40 333 362 
354 8 18 159 91 464 408 300 405 469 
355 1 23 
356 9 78 227 283 5 139 434 247 276 421 
357 6 85 193 433 48 83 425 
358 3 323 235 33 
359 8 136 134 210 397 307 371 14 69 
360 8 141 14 371 69 210 134 136 359 
361 6 275 252 421 443 277 22 
362 9 40 390 474 64 60 399 70 392 412 
363 9 417 213 57 37 51 318 444 182 317 
364 8 105 442 79 437 369 145 345 27 
365 8 239 232 207 446 3 380 90 170 
366 9 56 455 334 331 303 187 150 442 415 
367 6 274 154 121 142 179 6 
368 3 219 54 320 
369 7 138 280 437 145 442 27 105 
370 6 327 450 329 335 341 9 
371 8 14 210 134 360 136 359 141 102 
372 9 375 86 38 451 69 141 360 459 148 
373 5 409 477 102 141 14 
374 8 432 100 39 315 186 62 419 216 
375 9 372 86 141 38 69 360 477 451 14 
376 8 22 88 311 119 443 434 252 426 
377 8 424 48 83 259 394 284 404 85 
378 9 205 191 87 322 61 386 471 217 297 
379 7 26 476 393 180 287 73 402 
380 6 207 429 435 3 365 239 
381 6 261 147 428 181 46 108 
382 5 444 213 57 417 456 
383 9 347 3 77 429 7 435 55 165 207 
384 7 230 30 43 387 103 251 122 
385 8 34 268 272 140 342 237 348 463 
386 8 71 52 471 351 217 205 340 378 
387 8 151 392 30 384 251 43 122 475 
388 6 472 290 452 225 55 403 
389 7 200 125 75 231 436 50 104 
390 9 40 399 362 70 273 474 64 60 353 
391 8 286 15 461 177 305 457 109 156 
392 8 151 387 30 251 475 122 43 64 
393 5 476 180 379 26 73 
394 5 249 83 193 377 48 
395 9 413 152 330 298 189 46 181 428 126 
396 6 182 19 325 473 37 133 
397 8 439 307 136 359 235 264 453 33 
398 5 116 438 108 68 24 
399 7 70 390 273 40 353 362 197 
400 9 45 41 316 243 112 312 72 260 330 
401 7 58 162 308 309 131 135 466 
402 6 350 26 73 379 393 476 
403 7 223 271 120 256 98 65 388 
404 6 259 284 424 377 418 48 
405 9 185 349 408 18 300 354 159 95 319 
406 9 242 201 36 234 116 228 313 63 398 
407 9 226 117 74 188 224 8 254 287 294 
408 9 18 300 405 185 159 349 354 319 464 
409 3 102 373 14 
410 5 468 5 418 208 247 
411 5 289 110 209 20 265 
412 8 263 244 97 440 60 64 302 32 
413 9 152 330 395 189 298 46 68 181 428 
414 9 49 107 32 436 75 440 170 90 244 
415 6 331 127 366 455 334 56 
416 8 241 469 47 92 91 405 354 185 
417 9 57 213 444 363 51 382 37 318 245 
418 4 404 410 259 34 
419 9 39 100 186 292 221 374 192 432 190 
420 8 67 160 2 215 237 208 268 463 
421 6 252 275 227 283 22 78 
422 8 198 314 304 162 308 58 183 309 
423 9 167 294 24 8 117 114 463 226 2 
424 8 377 48 259 284 83 404 433 85 
425 9 433 85 12 48 447 284 357 169 319 
426 6 311 88 376 247 434 22 
427 9 269 248 115 220 282 321 10 211 158 
428 7 261 46 181 147 126 381 108 
429 8 435 380 383 207 347 3 77 239 
430 9 31 143 66 96 9 218 335 123 341 
431 7 87 278 205 281 217 99 52 
432 8 374 100 315 39 62 118 216 238 
433 9 85 48 425 424 357 83 284 377 193 
434 8 247 5 88 376 78 283 311 426 
435 7 429 347 380 383 207 3 452 
436 9 32 107 50 414 440 97 49 75 104 
437 9 145 27 369 280 79 138 364 202 345 
438 5 108 68 398 181 46 
439 7 453 397 136 174 359 203 53 
440 9 32 97 244 107 263 436 414 49 412 
441 8 80 204 220 115 11 282 248 10 
442 9 105 364 369 56 187 138 280 303 437 
443 9 119 22 275 252 376 88 421 311 361 
444 7 213 417 57 382 51 363 37 
445 5 172 17 199 84 387 
446 9 239 3 7 365 165 232 77 207 222 
447 7 12 169 94 336 425 284 319 
448 8 299 173 236 474 60 104 144 197 
449 9 175 470 246 132 42 189 152 330 413 
450 8 329 370 341 327 335 344 9 92 
451 7 459 69 38 148 86 439 136 
452 8 290 472 388 347 435 383 429 55 
453 7 439 174 203 53 397 16 214 
454 9 206 163 13 101 119 155 89 443 277 
455 9 334 366 56 303 150 187 331 346 415 
456 3 339 382 23 
457 9 286 156 305 177 212 15 391 310 109 
458 6 337 260 112 312 346 41 
459 6 451 148 439 38 69 453 
460 9 166 62 216 212 310 156 238 309 270 
461 6 177 391 305 286 457 15 
462 4 123 218 155 13 
463 7 140 348 2 160 272 385 268 
464 6 159 300 18 354 408 357 
465 9 338 106 211 321 158 65 262 120 223 
466 9 4 44 131 135 270 25 401 153 142 
467 7 81 59 328 137 164 128 82 
468 6 410 208 237 5 139 276 
469 6 91 241 354 416 18 159 
470 9 246 132 449 175 42 189 152 68 330 
471 8 386 340 71 378 52 351 217 205 
472 6 388 290 452 225 55 347 
473 9 19 182 396 356 227 78 325 283 37 
474 9 60 64 362 40 412 97 263 390 244 
475 8 122 302 251 30 43 151 412 263 
476 5 180 393 379 26 73 
477 8 373 141 375 409 360 240 14 86 
DEPOT_SECTION
   1
   -1
EOF
