NAME :  X-n685-kX-w136-c7.cctp
COMMENT : 	Adapted by Maziero, Usberti and Cavellucci from the Uchoa, Pecin, Pessoa, Poggi, Subramanian, and Vidal (2013)
TYPE :  CCTP
DIMENSION :    514
EDGE_WEIGHT_TYPE : 	EUC_2D	
CAPACITY : 	408
VERTICES_WITHIN_COVERAGE :  7
VERTICES_WITH_DEMAND : 	136
NODE_COORD_SECTION
1 500 500
2 112 700
3 363 779
4 245 896
5 238 19
6 184 351
7 305 763
8 366 814
9 137 857
10 564 31
11 303 157
12 523 830
13 134 231
14 851 445
15 740 311
16 163 95
17 275 499
18 470 814
19 453 217
20 818 525
21 311 911
22 177 374
23 230 4
24 590 302
25 196 103
26 553 879
27 316 446
28 665 375
29 587 609
30 510 95
31 907 455
32 805 956
33 342 345
34 785 309
35 649 584
36 850 24
37 26 126
38 447 817
39 145 527
40 218 825
41 405 151
42 389 436
43 452 619
44 407 367
45 948 514
46 836 996
47 578 334
48 491 929
49 325 696
50 838 842
51 983 788
52 623 549
53 915 72
54 774 336
55 81 238
56 534 537
57 295 406
58 853 358
59 742 581
60 32 964
61 747 352
62 610 799
63 786 853
64 506 168
65 755 957
66 408 67
67 485 734
68 419 256
69 508 155
70 941 589
71 68 42
72 817 595
73 397 274
74 727 302
75 216 237
76 821 320
77 516 531
78 614 163
79 561 920
80 128 834
81 162 534
82 279 644
83 188 329
84 520 301
85 336 782
86 728 230
87 139 848
88 350 154
89 242 162
90 791 925
91 907 497
92 52 593
93 786 457
94 629 745
95 935 439
96 641 78
97 78 835
98 232 226
99 123 479
100 205 840
101 932 357
102 917 917
103 325 559
104 413 373
105 362 477
106 827 881
107 845 263
108 11 938
109 88 535
110 436 200
111 940 319
112 325 59
113 34 264
114 47 470
115 322 89
116 757 29
117 825 289
118 287 304
119 657 82
120 288 406
121 287 623
122 616 828
123 60 445
124 978 511
125 956 171
126 818 184
127 605 464
128 462 934
129 563 229
130 506 33
131 814 68
132 457 26
133 547 983
134 623 49
135 164 326
136 256 410
137 551 8
138 940 421
139 587 947
140 231 470
141 917 773
142 553 355
143 964 782
144 193 135
145 632 320
146 585 987
147 631 844
148 598 542
149 579 317
150 454 676
151 54 971
152 504 747
153 424 367
154 45 177
155 458 390
156 480 741
157 424 65
158 606 280
159 311 237
160 837 594
161 596 957
162 213 118
163 315 173
164 693 538
165 249 497
166 213 878
167 884 558
168 397 475
169 888 399
170 557 197
171 368 270
172 254 421
173 3 697
174 63 432
175 531 811
176 675 657
177 930 645
178 336 439
179 536 219
180 684 432
181 701 543
182 507 829
183 156 483
184 14 568
185 350 781
186 357 207
187 356 501
188 592 613
189 599 58
190 203 387
191 414 285
192 756 280
193 668 18
194 949 898
195 369 303
196 801 597
197 782 190
198 14 583
199 194 98
200 106 109
201 454 45
202 335 464
203 516 730
204 918 58
205 958 984
206 670 508
207 743 477
208 238 669
209 530 678
210 482 11
211 528 853
212 696 404
213 506 702
214 49 895
215 633 782
216 681 633
217 768 575
218 959 76
219 855 313
220 999 440
221 560 58
222 430 401
223 165 27
224 409 50
225 708 176
226 887 99
227 368 21
228 122 330
229 115 722
230 452 297
231 592 406
232 303 284
233 261 751
234 794 809
235 569 561
236 932 133
237 259 874
238 491 948
239 589 818
240 111 973
241 102 759
242 92 873
243 121 799
244 935 711
245 766 638
246 98 147
247 542 425
248 518 201
249 393 751
250 958 155
251 515 267
252 453 759
253 512 720
254 639 940
255 807 88
256 27 543
257 935 133
258 860 400
259 560 922
260 746 237
261 808 146
262 419 421
263 500 650
264 42 529
265 513 915
266 582 155
267 151 700
268 792 436
269 452 748
270 262 200
271 880 549
272 857 677
273 928 229
274 599 351
275 444 301
276 762 972
277 504 609
278 294 651
279 517 798
280 257 162
281 28 367
282 480 944
283 583 268
284 170 87
285 481 226
286 633 172
287 209 321
288 759 813
289 492 115
290 494 177
291 557 821
292 760 939
293 853 444
294 602 517
295 42 343
296 749 800
297 282 613
298 225 766
299 444 199
300 503 69
301 379 107
302 884 863
303 440 849
304 143 882
305 237 146
306 424 765
307 664 891
308 154 338
309 524 941
310 963 505
311 130 180
312 188 880
313 96 258
314 837 987
315 822 285
316 184 529
317 825 387
318 854 308
319 345 503
320 128 660
321 825 977
322 811 299
323 288 488
324 512 612
325 751 32
326 190 391
327 856 988
328 878 929
329 936 255
330 228 916
331 586 852
332 797 290
333 813 941
334 138 787
335 264 482
336 786 959
337 156 554
338 381 778
339 315 370
340 261 635
341 839 874
342 903 37
343 863 385
344 241 911
345 185 809
346 295 900
347 277 404
348 262 911
349 252 887
350 847 375
351 308 645
352 946 162
353 820 95
354 395 485
355 741 220
356 721 248
357 810 241
358 278 420
359 937 191
360 845 993
361 827 859
362 263 616
363 675 855
364 823 980
365 840 868
366 306 690
367 700 251
368 64 633
369 723 320
370 747 321
371 240 382
372 811 977
373 772 392
374 483 560
375 788 903
376 807 47
377 287 642
378 188 843
379 803 661
380 442 876
381 68 1000
382 824 38
383 332 592
384 245 799
385 413 463
386 387 439
387 740 294
388 278 634
389 342 556
390 266 662
391 729 35
392 620 52
393 634 209
394 844 135
395 374 838
396 295 539
397 415 801
398 670 38
399 697 421
400 869 423
401 986 838
402 835 34
403 262 908
404 266 522
405 703 239
406 591 199
407 814 34
408 797 997
409 860 167
410 733 971
411 314 547
412 167 491
413 960 984
414 762 878
415 664 132
416 671 69
417 689 296
418 829 220
419 280 739
420 87 600
421 822 1000
422 779 40
423 734 329
424 70 952
425 845 210
426 710 202
427 961 844
428 801 980
429 315 467
430 499 911
431 291 915
432 643 190
433 41 868
434 802 69
435 593 339
436 653 82
437 138 580
438 300 641
439 427 451
440 860 376
441 294 897
442 103 513
443 771 328
444 754 25
445 943 828
446 268 242
447 833 937
448 844 92
449 465 621
450 725 297
451 340 536
452 183 524
453 918 954
454 518 488
455 182 831
456 424 586
457 445 943
458 787 940
459 779 24
460 437 355
461 530 783
462 445 763
463 288 920
464 288 497
465 509 815
466 182 265
467 803 160
468 246 405
469 124 883
470 296 879
471 318 880
472 407 239
473 468 291
474 290 615
475 254 877
476 347 563
477 802 826
478 835 304
479 467 574
480 333 669
481 784 209
482 327 923
483 99 484
484 270 602
485 331 793
486 756 28
487 336 448
488 585 724
489 804 283
490 604 298
491 685 972
492 304 652
493 264 508
494 336 899
495 256 885
496 128 449
497 674 90
498 312 500
499 298 554
500 631 790
501 820 968
502 488 589
503 880 307
504 482 587
505 220 822
506 335 579
507 284 735
508 281 701
509 74 628
510 286 610
511 848 166
512 349 734
513 130 755
514 792 823
DEMAND_SECTION
2 8
3 25
4 36
5 83
6 63
7 3
8 15
9 47
10 21
11 54
12 87
13 94
14 22
15 31
16 78
17 71
18 32
19 60
20 87
21 31
22 53
23 76
24 23
25 93
26 56
27 72
28 44
29 92
30 23
31 48
32 87
33 70
34 27
35 72
36 9
37 64
38 6
39 40
40 19
41 68
42 52
43 41
44 57
45 94
46 73
47 10
48 6
49 31
50 87
51 70
52 71
53 32
54 3
55 94
56 67
57 98
58 3
59 97
60 31
61 25
62 94
63 87
64 9
65 66
66 56
67 13
68 65
69 1
70 93
71 56
72 92
73 64
74 10
75 83
76 43
77 64
78 14
79 81
80 27
81 46
82 1
83 96
84 19
85 7
86 17
87 26
88 71
89 56
90 51
91 43
92 50
93 49
94 64
95 1
96 14
97 42
98 97
99 97
100 22
101 1
102 61
103 30
104 77
105 61
106 62
107 33
108 24
109 5
110 87
111 1
112 91
113 76
114 55
115 62
116 5
117 5
118 96
119 48
120 73
121 46
122 59
123 82
124 69
125 14
126 7
127 7
128 44
129 5
130 1
131 37
132 98
133 52
134 11
135 58
136 72
137 4
COVERAGE_SECTION
2 5 229 267 320 513 241 
3 7 185 338 85 8 485 249 512 
4 6 349 344 495 403 475 348 
5 7 23 223 199 25 112 284 162 
6 7 83 22 135 308 287 326 190 
7 7 419 507 85 485 233 185 512 
8 6 395 3 185 338 485 85 
9 6 87 80 304 469 242 455 
10 7 137 221 189 130 392 134 300 
11 7 163 280 88 270 89 305 115 
12 7 182 175 465 211 279 291 461 
13 7 313 311 55 466 75 246 98 
14 7 293 400 258 31 169 268 343 
15 7 370 74 387 369 423 450 192 
16 7 284 199 25 144 162 200 223 
17 7 464 493 323 335 404 165 498 
18 7 38 465 182 303 279 12 397 
19 7 299 110 285 472 68 290 248 
20 7 271 72 217 160 167 196 93 
21 7 346 431 482 441 463 494 471 
22 6 326 6 190 308 83 135 
23 7 5 223 199 284 25 112 16 
24 7 490 149 158 47 283 435 145 
25 7 199 162 284 144 16 305 89 
26 7 211 79 331 259 265 12 291 
27 7 487 178 429 202 57 358 120 
28 7 212 399 180 145 274 231 369 
29 7 188 235 35 148 52 324 277 
30 7 289 300 69 130 221 64 201 
31 7 95 91 138 400 293 14 169 
32 7 333 336 501 372 428 458 321 
33 7 339 195 44 118 232 104 57 
34 5 332 443 322 54 489 
35 7 52 216 164 188 148 181 29 
36 7 402 382 407 376 342 131 434 
37 7 154 246 200 71 311 55 113 
38 7 18 303 397 462 306 252 380 
39 7 81 337 452 316 412 442 183 
40 7 505 100 378 455 345 384 166 
41 7 301 88 110 299 186 19 66 
42 7 386 262 385 168 439 105 354 
43 5 449 456 504 479 502 
44 7 104 153 460 222 262 155 33 
45 7 310 124 91 31 70 95 271 
46 7 314 360 421 364 321 327 372 
47 7 435 149 274 142 24 490 145 
48 7 238 282 430 265 128 309 457 
49 6 366 480 508 512 492 351 
50 7 361 365 341 477 106 514 302 
51 7 143 401 445 427 141 244 194 
52 7 148 294 35 235 206 29 164 
53 7 204 342 226 218 236 257 448 
54 7 443 34 61 370 423 15 76 
55 7 313 13 113 154 311 246 228 
56 7 77 235 454 374 148 502 294 
57 7 120 347 358 136 339 172 27 
58 7 350 440 343 317 258 219 76 
59 7 217 181 196 245 164 72 216 
60 7 151 108 424 381 214 240 433 
61 7 423 54 370 443 369 15 373 
62 7 500 239 215 122 147 94 291 
63 7 477 514 414 361 234 288 106 
64 7 69 290 248 289 170 179 285 
65 7 276 292 410 336 458 90 32 
66 7 157 224 301 201 227 132 112 
67 7 156 152 253 203 269 213 252 
68 7 472 73 191 275 19 171 230 
69 7 64 290 289 248 30 170 179 
70 7 177 167 271 45 124 310 91 
71 7 200 37 223 16 246 284 154 
72 7 196 160 217 245 379 20 59 
73 7 191 68 171 472 195 275 230 
74 7 450 387 15 369 370 423 192 
75 7 98 466 446 270 89 13 287 
76 7 478 322 117 219 315 318 34 
77 6 56 454 374 235 502 479 
78 7 286 266 432 406 393 415 170 
79 7 259 139 26 309 265 161 430 
80 7 87 9 243 334 469 97 304 
81 7 39 337 316 452 412 183 437 
82 7 377 388 278 340 438 121 390 
83 7 6 287 135 308 22 190 326 
84 7 251 473 149 142 47 230 24 
85 7 485 185 3 7 8 338 512 
86 6 355 260 356 405 426 367 
87 7 9 80 304 469 455 378 243 
88 7 163 11 186 41 301 115 159 
89 7 280 305 270 162 144 11 98 
90 7 458 375 333 32 292 336 447 
91 7 31 45 310 271 95 167 124 
92 7 420 198 509 368 184 256 264 
93 7 268 207 14 373 293 20 317 
94 7 215 500 488 62 239 122 147 
95 7 138 31 169 91 220 400 310 
96 7 436 119 416 392 134 497 189 
97 7 242 80 433 243 87 9 469 
98 7 75 446 270 466 89 280 159 
99 6 483 496 183 442 412 39 
100 7 378 40 505 455 345 166 312 
101 7 111 169 138 503 343 440 58 
102 3 194 453 328 
103 7 411 389 476 506 451 499 383 
104 7 44 153 460 222 155 262 42 
105 6 187 202 319 354 168 487 
106 6 341 365 361 50 375 63 
107 7 315 117 357 478 318 418 489 
108 7 60 151 214 424 433 381 242 
109 7 442 264 483 39 256 420 99 
110 7 299 19 472 285 41 68 290 
111 7 101 503 329 219 318 273 58 
112 7 115 227 301 66 224 5 88 
113 7 55 313 295 154 281 13 228 
114 7 123 174 483 264 442 256 99 
115 7 112 301 11 88 227 163 66 
116 6 486 444 325 459 422 391 
117 6 315 322 478 489 332 76 
118 7 232 446 33 159 339 287 195 
119 7 436 96 416 497 398 134 392 
120 7 57 347 358 136 172 468 339 
121 7 474 297 510 388 377 82 438 
122 7 147 239 62 331 500 215 291 
123 7 174 114 483 496 99 442 281 
124 7 310 45 91 220 95 70 31 
125 6 352 250 359 257 236 273 
126 7 467 511 197 425 418 261 481 
127 7 294 231 247 148 206 180 52 
128 7 457 282 48 238 430 265 380 
129 7 179 170 406 283 248 251 158 
130 7 210 300 132 137 201 10 221 
131 6 434 255 376 353 382 407 
132 7 201 210 130 157 224 300 66 
133 7 146 309 139 161 259 79 238 
134 7 392 189 96 436 119 398 416 
135 7 308 83 6 228 287 22 466 
136 7 172 468 347 358 120 371 57 
137 7 10 130 221 189 210 300 392 
138 7 95 31 169 220 101 400 91 
139 7 161 79 259 146 254 133 309 
140 4 165 335 493 17 
141 6 143 445 244 51 427 401 
142 7 47 435 149 274 84 231 24 
143 7 51 141 445 401 427 244 302 
144 7 162 25 199 305 16 284 89 
145 7 490 435 274 24 158 149 47 
146 7 161 133 139 259 79 254 309 
147 7 122 363 331 239 62 500 307 
148 7 294 52 235 56 35 29 188 
149 7 47 24 435 490 274 142 158 
150 5 263 449 43 213 67 
151 7 60 424 381 108 240 214 433 
152 7 203 67 156 253 461 213 252 
153 7 104 44 460 222 155 262 275 
154 7 37 246 55 311 113 200 313 
155 7 222 153 460 104 262 44 439 
156 7 67 152 269 252 203 253 462 
157 7 66 224 201 132 301 227 210 
158 5 490 283 24 149 145 
159 7 446 232 186 270 163 171 118 
160 7 72 196 167 271 20 217 379 
161 7 139 146 254 259 79 133 309 
162 7 25 144 199 305 89 284 16 
163 7 11 88 186 270 280 159 89 
164 7 181 206 35 59 52 207 217 
165 7 493 335 17 404 140 464 323 
166 4 312 4 100 349 
167 7 271 160 70 91 20 72 45 
168 5 354 385 105 386 439 
169 7 258 343 400 440 350 58 138 
170 7 179 129 406 248 266 64 69 
171 7 73 195 191 472 68 186 159 
172 7 136 468 358 347 120 371 57 
173 7 368 509 2 92 198 229 241 
174 7 123 114 483 496 281 99 442 
175 7 279 12 465 291 461 182 211 
176 7 216 35 245 188 94 29 59 
177 7 70 244 272 167 160 271 72 
178 7 487 27 202 429 105 386 42 
179 7 248 129 170 251 285 64 290 
180 7 399 212 28 207 206 127 231 
181 7 164 206 59 35 217 52 207 
182 7 465 12 175 211 279 18 291 
183 4 412 99 496 39 
184 7 198 256 92 264 420 109 368 
185 7 3 85 485 338 8 512 7 
186 7 88 163 159 472 171 11 41 
187 4 319 105 451 354 
188 7 29 235 35 52 148 324 277 
189 7 392 134 221 10 96 436 119 
190 6 326 22 371 6 468 136 
191 7 73 68 275 230 472 171 195 
192 2 387 15 
193 4 398 416 134 392 
194 7 102 427 453 401 445 302 328 
195 7 171 73 191 33 68 232 44 
196 7 72 160 217 245 59 379 20 
197 3 481 126 467 
198 7 184 92 256 264 368 420 509 
199 7 25 284 162 16 144 305 223 
200 7 246 16 284 311 71 37 199 
201 7 132 157 210 224 66 130 300 
202 7 487 429 178 27 105 319 187 
203 7 253 152 213 67 156 209 461 
204 7 53 342 218 226 36 236 257 
205 3 413 453 102 
206 7 164 181 52 294 180 127 35 
207 7 93 268 399 180 181 164 206 
208 3 390 340 82 
209 7 213 263 253 203 324 67 488 
210 7 132 130 201 300 137 157 224 
211 7 12 182 26 175 465 291 279 
212 7 399 180 28 61 373 423 207 
213 7 253 203 209 67 152 156 263 
214 7 433 242 108 424 97 60 151 
215 7 500 62 94 122 239 147 488 
216 7 176 35 59 245 188 181 164 
217 7 59 196 72 245 20 160 181 
218 7 53 204 257 236 342 226 250 
219 7 318 478 503 76 117 315 58 
220 7 138 95 124 310 45 31 101 
221 7 10 189 137 300 130 392 30 
222 7 262 155 104 153 44 460 439 
223 7 284 16 23 5 199 25 71 
224 7 66 157 201 227 132 301 210 
225 4 426 355 86 415 
226 7 53 448 204 236 394 257 342 
227 7 224 112 66 157 115 301 132 
228 7 308 135 6 83 22 313 295 
229 6 2 513 241 267 320 334 
230 7 275 473 191 68 73 460 84 
231 7 247 274 127 142 435 47 28 
232 7 118 159 446 171 195 33 339 
233 5 419 507 298 7 384 
234 6 514 477 288 63 296 50 
235 7 148 56 29 52 294 188 77 
236 7 257 352 250 125 226 359 53 
237 6 475 495 349 4 403 348 
238 7 282 48 128 309 430 265 457 
239 7 62 122 291 331 147 500 215 
240 5 424 381 151 60 469 
241 7 513 229 243 334 2 267 80 
242 7 469 97 9 214 433 304 80 
243 7 334 80 241 513 87 97 9 
244 6 141 177 143 272 51 445 
245 7 379 196 59 217 72 160 216 
246 7 200 311 154 37 16 13 55 
247 7 231 454 142 127 155 274 47 
248 7 179 290 64 170 285 69 129 
249 7 338 306 3 512 185 462 397 
250 6 352 125 257 236 359 218 
251 7 84 179 285 473 129 248 283 
252 7 462 269 306 156 67 152 397 
253 7 203 213 152 67 156 209 269 
254 7 161 139 307 491 146 79 259 
255 4 353 434 131 448 
256 7 264 184 198 92 109 114 442 
257 7 236 352 250 125 359 226 218 
258 7 343 440 400 169 350 317 58 
259 7 79 139 309 26 265 161 133 
260 4 355 86 356 405 
261 5 467 394 126 511 197 
262 7 222 439 42 386 385 104 155 
263 7 324 209 277 449 213 150 43 
264 7 256 109 184 114 198 442 92 
265 7 430 48 309 238 282 79 259 
266 7 78 406 170 286 432 69 393 
267 4 2 229 320 513 
268 7 93 373 317 14 293 207 258 
269 7 252 462 156 306 67 152 249 
270 7 280 98 446 89 11 75 163 
271 7 167 91 160 20 70 45 72 
272 5 379 177 160 244 72 
273 5 329 359 125 352 250 
274 7 435 47 149 145 142 24 490 
275 7 230 473 191 68 73 460 153 
276 7 65 336 410 292 428 458 408 
277 7 324 502 504 263 449 479 43 
278 6 492 377 438 351 82 388 
279 7 175 465 461 12 182 291 18 
280 7 89 305 270 11 163 162 98 
281 7 295 174 123 228 113 114 313 
282 7 238 48 128 457 430 265 309 
283 6 158 24 490 129 149 47 
284 7 16 199 25 144 162 223 200 
285 7 19 248 299 290 110 251 179 
286 6 78 432 393 406 415 266 
287 7 83 6 135 308 22 466 190 
288 6 296 514 234 477 63 414 
289 7 30 69 300 64 290 201 130 
290 7 64 69 248 285 299 19 179 
291 7 175 239 12 331 211 279 461 
292 7 65 458 276 336 90 410 375 
293 7 14 400 258 31 169 343 268 
294 7 148 52 127 235 206 56 35 
295 7 281 113 228 174 313 123 55 
296 5 288 234 514 477 63 
297 6 510 474 121 484 362 388 
298 4 233 384 505 40 
299 7 110 19 285 472 290 41 68 
300 7 30 130 289 201 221 210 132 
301 7 66 41 88 115 157 224 112 
302 6 365 341 50 361 106 102 
303 7 380 38 18 397 395 182 465 
304 5 469 9 87 312 80 
305 7 89 280 162 144 25 270 199 
306 7 462 252 269 249 397 338 38 
307 6 363 254 147 122 491 331 
308 7 135 6 228 83 22 287 326 
309 7 265 238 48 430 259 79 282 
310 7 124 45 91 95 220 31 70 
311 7 246 13 200 55 144 154 313 
312 3 166 378 100 
313 7 55 13 113 228 311 466 135 
314 7 46 360 321 364 327 421 501 
315 6 117 322 489 478 332 107 
316 5 452 81 337 39 412 
317 7 350 258 440 343 58 373 400 
318 7 219 478 503 76 117 315 322 
319 4 187 105 451 498 
320 5 2 267 229 509 368 
321 6 364 501 372 314 46 421 
322 6 117 332 489 315 76 478 
323 6 464 17 335 498 493 429 
324 7 277 502 504 263 449 479 43 
325 4 486 116 444 391 
326 4 190 22 6 371 
327 4 360 314 46 321 
328 1 102 
329 5 273 111 359 503 125 
330 3 344 4 348 
331 7 239 122 291 26 147 62 211 
332 4 489 322 34 315 
333 5 32 447 458 90 501 
334 6 243 513 241 80 345 87 
335 7 17 165 323 493 464 140 404 
336 7 32 458 428 276 65 372 333 
337 5 81 39 437 316 452 
338 7 3 249 185 8 397 85 306 
339 7 33 57 120 347 358 136 118 
340 6 388 362 82 377 390 121 
341 6 365 106 361 50 302 63 
342 7 204 53 36 226 218 402 382 
343 7 440 258 350 58 169 317 400 
344 5 330 4 348 403 349 
345 6 455 378 40 100 505 334 
346 6 441 431 21 463 470 471 
347 7 120 358 57 136 172 468 371 
348 4 403 344 4 349 
349 7 495 475 4 237 403 344 348 
350 7 440 58 343 317 258 169 400 
351 5 492 438 278 377 82 
352 6 125 250 359 257 236 273 
353 4 255 448 131 434 
354 4 168 385 105 187 
355 6 86 260 356 426 405 481 
356 5 86 405 367 260 355 
357 3 418 107 481 
358 7 347 120 57 136 172 468 27 
359 5 125 352 273 250 236 
360 6 46 314 327 421 321 364 
361 7 365 341 50 106 63 477 514 
362 6 484 297 340 388 510 121 
363 5 307 147 122 500 215 
364 7 321 372 501 314 421 46 428 
365 6 341 361 106 50 302 63 
366 6 49 508 480 492 278 351 
367 3 405 356 86 
368 5 509 420 92 320 198 
369 7 423 74 15 450 370 387 61 
370 7 15 423 369 443 74 387 54 
371 6 468 136 190 172 347 326 
372 7 428 364 501 321 32 408 421 
373 7 61 268 317 54 443 93 423 
374 6 479 504 502 77 277 56 
375 7 90 414 458 106 333 292 63 
376 6 407 382 131 434 422 402 
377 7 82 278 388 438 121 492 351 
378 6 455 100 345 40 312 505 
379 5 245 272 196 72 160 
380 7 303 38 128 430 457 18 48 
381 6 151 424 60 240 108 214 
382 7 407 402 376 36 131 434 422 
383 3 506 476 103 
384 5 505 40 298 233 100 
385 6 439 168 354 386 42 262 
386 7 42 385 168 262 439 105 354 
387 7 74 450 15 192 370 369 423 
388 7 82 377 121 340 297 474 278 
389 5 476 103 451 506 411 
390 6 82 340 208 377 278 388 
391 4 325 444 486 116 
392 7 134 189 96 436 119 398 416 
393 4 432 286 406 78 
394 7 511 409 261 448 353 467 126 
395 3 8 397 3 
396 4 499 411 404 103 
397 7 38 306 338 462 8 303 249 
398 4 193 416 119 436 
399 7 180 212 28 207 373 61 206 
400 7 258 293 14 169 343 440 31 
401 7 427 445 51 143 194 141 102 
402 7 382 36 407 376 131 434 422 
403 5 348 4 344 349 495 
404 6 493 17 165 464 396 323 
405 3 367 356 86 
406 7 170 129 78 393 266 286 432 
407 7 382 376 402 131 422 459 36 
408 7 428 372 421 364 321 501 46 
409 5 511 394 126 425 261 
410 7 65 276 292 491 336 458 408 
411 5 103 499 396 451 389 
412 5 183 452 39 316 81 
413 3 205 453 102 
414 6 63 375 90 292 514 106 
415 6 497 119 286 436 78 96 
416 5 119 497 436 96 398 
417 3 450 74 369 
418 6 425 357 126 107 481 197 
419 5 507 233 7 508 366 
420 5 509 92 368 437 109 
421 7 46 314 364 321 360 372 408 
422 5 459 116 486 325 376 
423 7 369 370 15 61 74 450 387 
424 7 151 60 240 381 108 214 242 
425 6 418 126 511 409 357 107 
426 6 225 86 355 405 356 260 
427 7 445 401 194 51 143 302 141 
428 7 372 408 364 501 32 321 336 
429 7 202 27 487 498 323 178 464 
430 7 265 48 238 282 309 128 259 
431 6 463 346 441 21 348 403 
432 6 286 393 78 406 415 225 
433 7 214 97 242 108 469 424 80 
434 3 131 255 376 
435 7 274 47 149 24 490 142 145 
436 7 119 96 416 497 134 392 398 
437 4 337 81 39 420 
438 7 351 278 492 377 82 121 388 
439 6 385 262 168 42 386 354 
440 7 343 350 58 258 169 317 400 
441 6 346 431 470 21 463 471 
442 7 109 483 99 39 183 81 264 
443 7 54 34 370 61 15 423 332 
444 6 486 116 325 459 391 422 
445 7 427 401 143 51 141 302 194 
446 7 98 270 159 75 232 118 280 
447 3 333 32 501 
448 6 353 255 131 394 226 434 
449 7 43 504 502 277 263 479 324 
450 6 74 387 15 369 370 423 
451 4 389 103 411 476 
452 5 316 81 412 39 337 
453 2 102 328 
454 5 77 56 247 374 235 
455 6 378 345 100 40 505 87 
456 1 43 
457 7 128 282 238 48 430 380 265 
458 7 90 336 32 333 292 65 375 
459 6 422 116 486 444 325 376 
460 7 153 104 44 155 222 275 230 
461 7 279 175 465 152 291 12 182 
462 7 252 269 306 156 397 67 249 
463 6 431 346 441 21 348 403 
464 6 323 17 498 493 335 404 
465 7 182 279 12 175 461 18 211 
466 7 75 13 287 98 83 135 308 
467 4 261 126 197 511 
468 6 136 172 371 347 358 120 
469 5 304 9 242 87 80 
470 5 441 346 471 21 431 
471 5 470 494 441 346 21 
472 7 68 73 191 110 171 19 299 
473 7 230 275 84 251 191 68 285 
474 7 510 297 121 388 484 362 377 
475 7 237 495 349 4 403 348 344 
476 4 389 506 103 451 
477 7 514 234 63 50 361 288 365 
478 7 117 318 76 219 315 322 489 
479 6 504 374 502 456 43 449 
480 4 49 366 492 351 
481 4 197 357 126 355 
482 2 21 494 
483 7 99 442 496 109 114 123 183 
484 5 297 362 510 474 121 
485 5 85 185 3 7 8 
486 6 116 444 325 459 422 391 
487 7 178 202 27 429 105 386 42 
488 7 94 203 209 253 215 62 500 
489 4 332 322 315 117 
490 7 24 158 149 145 283 435 47 
491 7 410 254 65 276 292 307 161 
492 6 351 278 438 377 82 388 
493 6 17 404 165 335 464 323 
494 3 471 482 21 
495 7 349 475 237 4 403 348 344 
496 5 99 183 483 412 174 
497 5 119 416 436 96 415 
498 5 464 323 319 429 17 
499 4 396 411 103 389 
500 6 215 62 122 94 239 147 
501 6 321 364 372 32 428 314 
502 7 504 277 479 374 324 449 43 
503 7 219 318 478 107 58 117 76 
504 7 502 479 374 277 449 324 43 
505 7 40 100 384 345 378 455 166 
506 4 383 476 103 389 
507 5 419 233 508 7 366 
508 5 366 507 419 390 49 
509 5 368 420 92 320 198 
510 6 297 474 121 484 362 388 
511 6 409 394 126 425 261 467 
512 7 49 3 185 249 85 7 338 
513 6 241 334 229 243 2 267 
514 7 477 234 63 288 296 50 361 
DEPOT_SECTION
   1
   -1
EOF
