NAME :  X-n685-kX-w273-c11.cctp
COMMENT : 	Adapted by Maziero, Usberti and Cavellucci from the Uchoa, Pecin, Pessoa, Poggi, Subramanian, and Vidal (2013)
TYPE :  CCTP
DIMENSION :    654
EDGE_WEIGHT_TYPE : 	EUC_2D	
CAPACITY : 	408
VERTICES_WITHIN_COVERAGE :  11
VERTICES_WITH_DEMAND : 	273
NODE_COORD_SECTION
1 500 500
2 112 700
3 363 779
4 245 896
5 238 19
6 184 351
7 305 763
8 366 814
9 137 857
10 564 31
11 303 157
12 523 830
13 134 231
14 851 445
15 740 311
16 163 95
17 275 499
18 470 814
19 453 217
20 818 525
21 311 911
22 177 374
23 230 4
24 590 302
25 196 103
26 553 879
27 316 446
28 665 375
29 587 609
30 510 95
31 907 455
32 805 956
33 342 345
34 785 309
35 649 584
36 850 24
37 26 126
38 447 817
39 145 527
40 218 825
41 405 151
42 389 436
43 452 619
44 407 367
45 948 514
46 836 996
47 578 334
48 491 929
49 325 696
50 838 842
51 983 788
52 623 549
53 915 72
54 774 336
55 81 238
56 534 537
57 295 406
58 853 358
59 742 581
60 32 964
61 747 352
62 610 799
63 786 853
64 506 168
65 755 957
66 408 67
67 485 734
68 419 256
69 508 155
70 941 589
71 68 42
72 817 595
73 397 274
74 727 302
75 216 237
76 821 320
77 516 531
78 614 163
79 561 920
80 128 834
81 162 534
82 279 644
83 188 329
84 520 301
85 336 782
86 728 230
87 139 848
88 350 154
89 242 162
90 791 925
91 907 497
92 52 593
93 786 457
94 629 745
95 935 439
96 641 78
97 78 835
98 232 226
99 123 479
100 205 840
101 932 357
102 917 917
103 325 559
104 413 373
105 362 477
106 827 881
107 845 263
108 11 938
109 88 535
110 436 200
111 940 319
112 325 59
113 34 264
114 47 470
115 322 89
116 757 29
117 825 289
118 287 304
119 657 82
120 288 406
121 287 623
122 616 828
123 60 445
124 978 511
125 956 171
126 818 184
127 605 464
128 462 934
129 563 229
130 506 33
131 814 68
132 457 26
133 547 983
134 623 49
135 164 326
136 256 410
137 551 8
138 940 421
139 587 947
140 231 470
141 917 773
142 553 355
143 964 782
144 331 857
145 193 135
146 389 572
147 632 320
148 585 987
149 631 844
150 704 809
151 881 194
152 598 542
153 682 37
154 579 317
155 454 676
156 54 971
157 504 747
158 424 367
159 45 177
160 216 986
161 458 390
162 480 741
163 806 752
164 424 65
165 606 280
166 311 237
167 837 594
168 596 957
169 213 118
170 315 173
171 693 538
172 729 167
173 249 497
174 213 878
175 884 558
176 397 475
177 888 399
178 557 197
179 368 270
180 254 421
181 3 697
182 227 994
183 63 432
184 531 811
185 675 657
186 930 645
187 336 439
188 536 219
189 684 432
190 701 543
191 507 829
192 156 483
193 14 568
194 404 597
195 350 781
196 357 207
197 356 501
198 231 732
199 592 613
200 683 261
201 599 58
202 203 387
203 414 285
204 756 280
205 337 957
206 668 18
207 949 898
208 773 165
209 369 303
210 801 597
211 782 190
212 14 583
213 194 98
214 106 109
215 454 45
216 335 464
217 516 730
218 918 58
219 958 984
220 670 508
221 743 477
222 896 962
223 238 669
224 530 678
225 482 11
226 528 853
227 696 404
228 506 702
229 49 895
230 633 782
231 681 633
232 768 575
233 959 76
234 855 313
235 999 440
236 560 58
237 430 401
238 165 27
239 409 50
240 708 176
241 887 99
242 368 21
243 122 330
244 115 722
245 452 297
246 592 406
247 303 284
248 261 751
249 457 506
250 794 809
251 569 561
252 707 87
253 932 133
254 259 874
255 491 948
256 589 818
257 111 973
258 102 759
259 92 873
260 121 799
261 935 711
262 766 638
263 352 905
264 98 147
265 542 425
266 518 201
267 698 252
268 393 751
269 778 80
270 958 155
271 515 267
272 453 759
273 690 37
274 512 720
275 639 940
276 807 88
277 27 543
278 935 133
279 860 400
280 560 922
281 746 237
282 808 146
283 419 421
284 898 206
285 500 650
286 42 529
287 513 915
288 582 155
289 151 700
290 377 563
291 792 436
292 452 748
293 262 200
294 880 549
295 857 677
296 928 229
297 599 351
298 444 301
299 762 972
300 504 609
301 630 246
302 294 651
303 517 798
304 257 162
305 28 367
306 480 944
307 583 268
308 339 933
309 170 87
310 383 541
311 481 226
312 633 172
313 209 321
314 759 813
315 492 115
316 699 276
317 494 177
318 557 821
319 760 939
320 853 444
321 602 517
322 42 343
323 749 800
324 282 613
325 225 766
326 444 199
327 503 69
328 379 107
329 884 863
330 440 849
331 143 882
332 237 146
333 424 765
334 664 891
335 154 338
336 524 941
337 963 505
338 130 180
339 188 880
340 96 258
341 273 915
342 369 562
343 837 987
344 778 263
345 822 285
346 184 529
347 825 387
348 854 308
349 345 503
350 371 598
351 404 507
352 128 660
353 825 977
354 205 897
355 811 299
356 288 488
357 167 434
358 512 612
359 340 895
360 751 32
361 190 391
362 856 988
363 878 929
364 198 480
365 231 546
366 936 255
367 228 916
368 586 852
369 797 290
370 813 941
371 138 787
372 660 256
373 762 77
374 264 482
375 786 959
376 156 554
377 381 778
378 315 370
379 261 635
380 839 874
381 903 37
382 764 69
383 198 639
384 863 385
385 169 450
386 241 911
387 185 809
388 662 253
389 295 900
390 441 491
391 255 971
392 277 404
393 262 911
394 713 61
395 249 921
396 252 887
397 847 375
398 837 937
399 308 645
400 946 162
401 820 95
402 363 917
403 395 485
404 741 220
405 390 612
406 721 248
407 810 241
408 278 420
409 937 191
410 845 993
411 827 859
412 265 989
413 361 517
414 263 616
415 675 855
416 219 927
417 823 980
418 437 562
419 840 868
420 124 627
421 216 635
422 213 699
423 306 690
424 700 251
425 188 772
426 64 633
427 723 320
428 747 321
429 240 382
430 181 742
431 811 977
432 358 544
433 772 392
434 483 560
435 788 903
436 770 261
437 263 601
438 807 47
439 287 642
440 412 517
441 188 843
442 418 542
443 803 661
444 442 876
445 68 1000
446 824 38
447 332 592
448 245 799
449 685 263
450 413 463
451 387 439
452 353 910
453 740 294
454 278 634
455 342 556
456 266 662
457 729 35
458 258 715
459 196 455
460 620 52
461 316 598
462 634 209
463 311 662
464 721 113
465 844 135
466 404 633
467 374 838
468 295 539
469 415 801
470 776 240
471 670 38
472 697 421
473 869 423
474 185 927
475 986 838
476 835 34
477 764 176
478 262 908
479 775 275
480 266 522
481 703 239
482 591 199
483 814 34
484 776 274
485 797 997
486 715 109
487 860 167
488 755 90
489 733 971
490 201 448
491 769 73
492 314 547
493 416 507
494 167 491
495 184 887
496 960 984
497 762 878
498 664 132
499 671 69
500 689 296
501 779 54
502 829 220
503 198 706
504 369 946
505 280 739
506 279 833
507 930 977
508 87 600
509 822 1000
510 352 522
511 779 40
512 891 995
513 734 329
514 354 880
515 70 952
516 845 210
517 710 202
518 784 87
519 835 735
520 961 844
521 740 123
522 870 974
523 801 980
524 315 467
525 499 911
526 291 915
527 643 190
528 41 868
529 802 69
530 593 339
531 653 82
532 138 580
533 300 641
534 427 451
535 860 376
536 734 50
537 688 26
538 788 276
539 294 897
540 103 513
541 758 55
542 374 576
543 771 328
544 754 25
545 303 849
546 864 956
547 943 828
548 223 654
549 268 242
550 211 414
551 833 937
552 743 79
553 844 92
554 859 949
555 283 839
556 465 621
557 700 879
558 393 595
559 725 297
560 394 585
561 399 635
562 340 536
563 183 524
564 918 954
565 518 488
566 182 831
567 424 586
568 445 943
569 787 940
570 716 101
571 779 24
572 437 355
573 530 783
574 445 763
575 288 920
576 288 497
577 837 960
578 795 278
579 509 815
580 182 265
581 803 160
582 250 543
583 246 405
584 306 521
585 124 883
586 244 637
587 754 75
588 296 879
589 318 880
590 789 89
591 407 239
592 468 291
593 290 615
594 249 986
595 254 877
596 347 563
597 802 826
598 325 620
599 361 923
600 835 304
601 188 991
602 467 574
603 333 669
604 784 209
605 327 923
606 99 484
607 270 602
608 331 793
609 379 553
610 756 28
611 336 448
612 323 834
613 585 724
614 323 986
615 804 283
616 319 517
617 604 298
618 685 972
619 304 652
620 264 508
621 336 899
622 256 885
623 128 449
624 877 962
625 674 90
626 312 500
627 298 554
628 631 790
629 756 122
630 183 877
631 820 968
632 488 589
633 768 176
634 880 307
635 184 915
636 327 842
637 482 587
638 220 822
639 335 579
640 284 735
641 861 917
642 281 701
643 901 963
644 74 628
645 879 981
646 286 610
647 848 166
648 349 734
649 229 963
650 130 755
651 792 823
652 289 856
653 879 945
654 404 534
DEMAND_SECTION
2 8
3 25
4 36
5 83
6 63
7 3
8 15
9 47
10 21
11 54
12 87
13 94
14 22
15 31
16 78
17 71
18 32
19 60
20 87
21 31
22 53
23 76
24 23
25 93
26 56
27 72
28 44
29 92
30 23
31 48
32 87
33 70
34 27
35 72
36 9
37 64
38 6
39 40
40 19
41 68
42 52
43 41
44 57
45 94
46 73
47 10
48 6
49 31
50 87
51 70
52 71
53 32
54 3
55 94
56 67
57 98
58 3
59 97
60 31
61 25
62 94
63 87
64 9
65 66
66 56
67 13
68 65
69 1
70 93
71 56
72 92
73 64
74 10
75 83
76 43
77 64
78 14
79 81
80 27
81 46
82 1
83 96
84 19
85 7
86 17
87 26
88 71
89 56
90 51
91 43
92 50
93 49
94 64
95 1
96 14
97 42
98 97
99 97
100 22
101 1
102 61
103 30
104 77
105 61
106 62
107 33
108 24
109 5
110 87
111 1
112 91
113 76
114 55
115 62
116 5
117 5
118 96
119 48
120 73
121 46
122 59
123 82
124 69
125 14
126 7
127 7
128 44
129 5
130 1
131 37
132 98
133 52
134 11
135 58
136 72
137 4
138 47
139 97
140 79
141 90
142 17
143 69
144 46
145 78
146 1
147 25
148 96
149 91
150 87
151 3
152 100
153 46
154 32
155 22
156 38
157 55
158 51
159 83
160 17
161 91
162 15
163 75
164 66
165 12
166 56
167 95
168 92
169 79
170 71
171 95
172 37
173 61
174 50
175 74
176 51
177 14
178 30
179 92
180 70
181 46
182 7
183 77
184 83
185 55
186 82
187 60
188 12
189 35
190 93
191 89
192 59
193 46
194 21
195 22
196 99
197 15
198 38
199 88
200 48
201 48
202 68
203 62
204 20
205 26
206 36
207 65
208 19
209 79
210 82
211 36
212 28
213 92
214 51
215 95
216 83
217 52
218 47
219 78
220 63
221 5
222 66
223 20
224 78
225 96
226 74
227 27
228 68
229 16
230 57
231 54
232 64
233 19
234 3
235 16
236 49
237 64
238 100
239 55
240 33
241 11
242 55
243 84
244 45
245 58
246 42
247 71
248 32
249 5
250 83
251 77
252 28
253 22
254 11
255 49
256 84
257 17
258 10
259 43
260 8
261 75
262 52
263 27
264 66
265 46
266 18
267 39
268 49
269 45
270 45
271 49
272 2
273 46
274 72
COVERAGE_SECTION
2 10 244 289 352 650 258 420 430 644 426 503 
3 11 195 377 85 8 608 268 648 469 7 467 333 
4 11 396 386 622 478 595 393 395 254 367 341 174 
5 11 23 238 213 25 112 309 169 16 115 145 332 
6 11 83 22 135 335 313 361 202 429 243 550 583 
7 11 505 640 85 608 248 195 648 3 642 458 49 
8 11 467 3 195 377 608 85 612 636 469 144 514 
9 11 87 80 331 585 259 630 566 441 339 495 260 
10 11 137 236 201 130 460 134 327 30 225 96 531 
11 11 170 304 88 293 89 332 115 196 166 328 549 
12 11 191 184 579 226 303 318 573 18 26 256 368 
13 11 340 338 55 580 75 264 98 135 243 159 113 
14 11 320 473 279 31 177 291 384 347 93 397 535 
15 11 428 74 453 427 513 559 204 543 54 61 34 
16 11 309 213 25 145 169 214 238 264 332 338 89 
17 11 576 620 356 374 480 173 626 584 468 616 524 
18 11 38 579 191 330 303 12 469 574 272 184 333 
19 11 326 110 311 591 68 317 266 64 592 203 73 
20 11 294 72 232 167 175 210 93 14 320 221 91 
21 11 389 526 605 539 575 621 589 359 588 308 341 
22 11 361 6 202 335 83 135 550 357 313 429 243 
23 11 5 238 213 309 25 112 16 169 115 145 242 
24 11 617 154 165 47 307 530 147 297 142 301 84 
25 11 213 169 309 145 16 332 89 238 304 214 5 
26 11 226 79 368 280 287 12 318 525 191 336 184 
27 11 611 187 524 216 57 408 120 356 626 105 392 
28 11 227 472 189 147 297 246 427 530 500 513 61 
29 11 199 251 35 152 52 358 300 56 224 321 285 
30 11 315 327 69 130 236 64 215 10 317 132 225 
31 11 95 91 138 473 320 14 177 45 279 337 384 
32 11 370 375 631 431 523 569 353 417 577 90 551 
33 11 378 209 44 118 247 104 57 179 120 158 392 
34 11 369 543 355 54 615 538 578 479 484 76 428 
35 11 52 231 171 199 152 190 29 185 220 321 251 
36 11 476 446 483 438 381 131 529 553 571 511 218 
37 11 159 264 214 71 338 55 113 16 309 340 13 
38 11 18 330 469 574 333 272 444 191 579 292 303 
39 11 81 376 563 346 494 540 192 99 532 109 606 
40 11 638 100 441 566 387 448 174 325 425 506 339 
41 11 328 88 110 326 196 19 66 164 591 170 317 
42 11 451 283 450 176 534 105 403 187 237 611 216 
43 11 556 567 637 602 632 466 194 300 561 155 285 
44 11 104 158 572 237 283 161 33 42 209 451 298 
45 11 337 124 91 31 70 95 294 175 235 138 320 
46 11 343 410 509 417 353 362 431 631 577 523 485 
47 11 530 154 297 142 24 617 147 165 307 84 246 
48 11 255 306 525 287 128 336 568 280 79 444 133 
49 10 423 603 463 642 648 619 399 302 640 533 
50 11 411 419 380 597 106 651 329 63 250 641 435 
51 11 143 475 547 520 141 261 207 329 102 186 50 
52 11 152 321 35 251 220 29 171 199 190 127 56 
53 11 218 381 241 233 253 278 553 36 476 270 400 
54 11 543 34 61 428 513 15 76 369 355 427 453 
55 11 340 13 113 159 338 264 243 580 322 135 335 
56 11 77 251 565 434 152 632 321 637 602 300 358 
57 11 120 392 408 136 378 180 27 583 187 611 429 
58 11 397 535 384 347 279 234 76 348 177 600 634 
59 11 232 190 210 262 171 72 231 35 20 167 185 
60 11 156 108 515 445 229 257 528 259 585 97 331 
61 11 513 54 428 543 427 15 433 74 34 453 559 
62 11 628 256 230 122 149 94 318 368 613 184 573 
63 11 597 651 497 411 250 314 106 435 50 419 380 
64 11 69 317 266 315 178 188 311 326 19 30 110 
65 11 299 319 489 375 569 90 32 523 485 431 370 
66 11 164 239 328 215 242 132 112 41 115 225 327 
67 11 162 157 274 217 292 228 272 574 155 573 333 
68 11 591 73 203 298 19 179 245 110 592 326 209 
69 11 64 317 315 266 30 178 188 288 311 326 19 
70 11 186 175 294 45 124 337 91 167 261 295 72 
71 11 214 37 238 16 264 309 159 213 25 338 145 
72 11 210 167 232 262 443 20 59 175 294 295 70 
73 11 203 68 179 591 209 298 245 592 196 19 110 
74 11 559 453 15 427 428 513 204 316 500 543 61 
75 11 98 580 549 293 89 13 313 304 332 166 83 
76 11 600 355 117 234 345 348 34 369 615 578 54 
77 11 56 565 434 251 249 632 602 637 300 358 152 
78 11 312 288 527 482 462 498 178 129 301 96 531 
79 11 280 139 26 336 287 168 525 133 48 148 368 
80 11 87 9 260 371 585 97 331 259 566 441 387 
81 9 39 376 346 563 494 192 532 540 364 
82 11 439 454 302 379 533 121 456 619 399 324 593 
83 11 6 313 135 335 22 202 361 580 243 429 550 
84 11 271 592 154 142 47 245 24 307 298 530 129 
85 11 608 195 3 7 8 377 648 612 636 268 467 
86 11 404 281 406 481 517 424 267 470 436 316 449 
87 11 9 80 331 585 566 441 260 259 630 339 387 
88 11 170 11 196 41 328 115 166 304 110 112 293 
89 11 304 332 293 169 145 11 98 170 25 75 213 
90 11 569 435 370 32 319 375 551 65 398 631 299 
91 11 31 45 337 294 95 175 124 14 320 138 473 
92 10 508 212 644 426 193 277 286 109 420 532 
93 11 291 221 14 433 320 20 347 473 279 472 397 
94 11 230 628 613 62 256 122 149 150 185 318 573 
95 11 138 31 177 91 235 473 337 45 101 320 14 
96 11 531 119 499 460 134 625 201 471 153 498 273 
97 11 259 80 528 260 87 9 585 229 371 258 331 
98 11 75 549 293 580 89 304 166 332 247 118 13 
99 11 606 623 192 540 494 39 385 357 109 81 123 
100 11 441 40 638 566 387 174 339 630 495 354 448 
101 11 111 177 138 634 384 535 58 95 279 397 234 
102 11 207 564 363 653 643 222 641 624 507 329 546 
103 11 492 455 596 639 562 627 447 432 468 461 584 
104 11 44 158 572 237 161 283 42 451 33 298 534 
105 11 197 216 349 403 176 611 413 451 187 510 524 
106 11 380 419 411 50 435 63 641 551 90 398 329 
107 11 345 117 407 600 348 502 615 355 234 578 516 
108 11 60 156 229 515 528 445 259 257 97 585 331 
109 11 540 286 606 39 277 508 99 532 92 376 81 
110 11 326 19 591 311 41 68 317 64 196 266 73 
111 11 101 634 366 234 348 296 58 177 535 384 138 
112 11 115 242 328 66 239 5 88 164 11 23 170 
113 11 55 340 322 159 305 13 243 338 264 37 335 
114 11 123 183 606 286 540 277 99 109 623 193 305 
115 11 112 328 11 88 242 170 66 239 304 332 41 
116 9 610 544 360 571 511 541 457 536 501 
117 11 345 355 600 615 369 76 578 107 348 234 538 
118 11 247 549 33 166 378 313 209 179 429 98 75 
119 11 531 96 499 625 471 134 460 252 498 153 273 
120 11 57 392 408 136 180 583 378 27 429 187 611 
121 11 593 324 646 454 439 82 533 414 607 302 379 
122 11 149 256 62 368 628 230 318 415 334 26 94 
123 11 183 114 606 623 99 540 305 286 109 192 277 
124 11 337 45 91 235 95 70 31 138 175 294 473 
125 11 400 270 409 278 253 296 284 151 366 233 487 
126 11 581 647 211 516 502 282 604 487 208 633 465 
127 11 321 246 265 152 220 189 52 565 56 472 251 
128 11 568 306 48 255 525 287 444 336 330 504 133 
129 11 188 178 482 307 266 271 165 301 462 288 24 
130 11 225 327 132 137 215 10 236 30 315 164 201 
131 11 529 276 438 401 446 590 483 518 269 501 553 
132 11 215 225 130 164 239 327 66 30 242 137 315 
133 11 148 336 139 168 280 79 255 287 48 306 525 
134 11 460 201 96 531 119 471 499 206 153 10 236 
135 11 335 83 6 243 313 22 580 361 202 429 340 
136 11 180 583 392 408 120 429 57 550 202 140 490 
137 11 10 130 236 201 225 327 460 134 30 132 215 
138 11 95 31 177 235 101 473 91 279 384 337 320 
139 11 168 79 280 148 275 133 336 26 287 334 368 
140 11 173 364 374 490 459 620 17 180 550 356 480 
141 11 143 547 261 51 520 519 475 329 50 163 295 
142 11 47 530 154 297 84 246 24 265 617 147 165 
143 11 51 141 547 475 520 261 329 207 519 50 186 
144 11 636 612 589 545 514 359 588 621 652 467 555 
145 11 169 25 213 332 16 309 89 304 338 214 293 
146 10 560 290 542 609 342 558 194 310 350 567 
147 11 617 530 297 24 165 154 47 500 28 372 307 
148 11 168 133 139 280 79 275 336 618 255 287 48 
149 11 122 415 368 256 62 628 334 230 318 557 150 
150 11 323 415 314 557 628 230 149 651 122 250 497 
151 11 284 487 516 647 409 502 296 126 465 400 107 
152 11 321 52 251 56 35 29 199 127 220 77 171 
153 11 273 471 537 206 499 394 457 119 531 536 625 
154 11 47 24 530 617 297 142 165 307 147 84 271 
155 11 285 556 43 228 67 466 561 162 292 274 224 
156 11 60 515 445 108 257 229 528 259 585 331 601 
157 11 217 67 162 274 573 228 272 292 303 574 579 
158 11 104 44 572 237 161 283 298 245 42 451 203 
159 11 37 264 55 338 113 214 340 13 71 16 145 
160 7 182 649 601 594 391 412 416 
161 11 237 158 572 104 283 44 534 42 450 451 298 
162 11 67 157 292 272 217 274 574 228 333 573 303 
163 11 519 250 651 597 323 314 295 443 50 63 411 
164 11 66 239 215 132 328 242 225 327 315 41 130 
165 11 617 307 24 301 154 147 372 530 47 388 129 
166 11 549 247 196 293 170 179 118 11 98 209 88 
167 11 72 210 175 294 20 232 443 262 295 59 70 
168 11 139 148 275 280 79 133 336 26 618 287 334 
169 11 25 145 213 332 89 309 16 304 293 11 5 
170 11 11 88 196 293 304 166 89 332 549 115 328 
171 11 190 220 35 59 52 221 232 321 152 231 189 
172 11 240 477 517 633 208 521 629 404 464 211 486 
173 10 620 374 17 480 140 576 356 582 365 364 
174 11 354 339 495 630 4 100 396 367 595 386 441 
175 11 294 167 70 91 20 72 45 210 337 186 124 
176 11 403 450 351 105 451 493 534 42 440 390 197 
177 11 279 384 473 535 397 58 138 320 14 31 101 
178 11 188 129 482 266 288 64 69 78 317 307 462 
179 11 73 209 203 591 68 196 166 247 33 298 118 
180 11 136 583 408 392 120 429 57 550 140 490 202 
181 11 426 644 2 92 212 244 258 508 193 352 420 
182 6 160 594 649 391 412 601 
183 11 123 114 606 623 305 99 540 322 286 357 109 
184 11 303 12 579 318 573 191 226 256 18 157 368 
185 11 231 35 262 199 94 29 59 613 190 52 171 
186 11 70 261 295 175 167 294 72 443 141 519 45 
187 11 611 27 216 524 105 451 42 57 120 408 197 
188 11 266 129 178 271 311 64 317 482 307 69 288 
189 11 472 227 28 221 220 127 246 433 61 93 171 
190 11 171 220 59 35 232 52 221 231 321 152 189 
191 11 579 12 184 226 303 18 318 573 38 26 330 
192 11 494 99 385 364 623 39 459 563 357 81 346 
193 11 212 277 92 286 508 109 426 644 114 540 606 
194 10 558 560 405 567 146 350 466 542 561 290 
195 11 3 85 608 377 8 648 7 268 612 467 636 
196 11 88 170 166 591 179 11 41 73 68 110 326 
197 11 349 413 510 105 562 616 403 216 432 626 310 
198 11 458 325 248 422 503 505 430 640 425 642 223 
199 11 29 251 35 52 152 358 300 224 231 185 56 
200 11 449 267 424 316 388 372 481 500 406 86 301 
201 11 460 134 236 10 96 531 119 137 499 471 206 
202 11 361 550 22 429 6 583 136 357 83 180 490 
203 11 73 68 298 245 591 179 209 592 572 19 44 
204 11 479 453 484 436 344 538 15 559 74 578 34 
205 10 308 614 504 605 599 402 452 21 263 621 
206 11 471 537 153 273 499 134 460 394 457 119 96 
207 11 102 520 564 475 547 329 363 507 643 222 653 
208 11 633 477 211 581 282 172 604 629 126 521 404 
209 11 179 73 203 33 68 247 44 591 298 118 104 
210 11 72 167 232 262 59 443 20 175 294 295 190 
211 11 604 633 477 208 126 581 470 282 404 502 172 
212 11 193 92 277 286 426 508 644 109 540 181 114 
213 11 25 309 169 16 145 332 238 89 214 5 304 
214 11 264 16 309 338 71 37 213 25 145 159 238 
215 11 132 164 225 239 66 130 327 30 315 242 328 
216 11 611 524 187 27 105 349 197 626 356 616 576 
217 11 274 157 228 67 162 224 573 292 303 272 613 
218 11 53 381 233 241 36 253 278 553 476 446 131 
219 11 496 507 564 643 222 512 102 645 624 207 653 
220 11 171 190 52 321 189 127 35 221 152 472 59 
221 11 93 291 472 189 190 171 220 227 20 433 232 
222 11 643 624 564 653 645 522 512 546 507 363 554 
223 11 548 456 586 422 421 379 82 383 458 454 503 
224 11 228 285 274 217 358 67 613 157 300 155 162 
225 11 132 130 215 327 137 164 239 10 30 236 66 
226 11 12 191 26 184 579 318 303 368 287 525 18 
227 11 472 189 28 61 433 513 221 427 428 291 15 
228 11 274 217 224 67 157 162 285 155 292 272 613 
229 11 528 259 108 515 97 60 156 585 331 9 80 
230 11 628 62 94 122 256 149 613 150 368 415 318 
231 11 185 35 59 262 199 190 171 29 52 232 94 
232 11 59 210 72 262 20 167 190 171 443 221 231 
233 11 53 218 278 253 381 241 270 400 125 553 409 
234 11 348 600 634 76 117 345 58 355 107 615 369 
235 11 138 95 124 337 45 31 101 91 177 473 111 
236 11 10 201 137 327 130 460 30 134 96 315 225 
237 11 283 161 104 158 44 572 534 42 451 450 176 
238 11 309 16 23 5 213 25 71 214 169 145 264 
239 11 66 164 215 242 132 328 225 112 115 327 130 
240 11 172 517 404 477 86 633 498 521 481 464 208 
241 11 53 553 218 253 465 278 381 401 487 233 647 
242 11 239 112 66 164 115 328 132 215 225 5 88 
243 11 335 135 6 83 22 340 322 313 580 361 202 
244 11 2 650 258 289 352 371 430 260 503 425 420 
245 11 298 592 203 68 73 572 84 271 591 158 311 
246 11 265 297 127 142 530 47 28 154 147 189 24 
247 11 118 166 549 179 209 33 378 98 293 196 73 
248 11 505 640 198 458 325 7 448 642 422 423 425 
249 11 390 493 440 351 442 418 434 654 450 534 77 
250 11 651 597 314 63 323 50 163 411 419 497 106 
251 11 152 56 29 52 321 199 77 358 300 35 434 
252 8 570 486 394 464 625 552 499 536 
253 11 278 400 270 125 241 409 53 233 218 151 487 
254 11 595 622 396 4 478 652 393 588 386 539 555 
255 11 306 48 128 336 525 287 568 133 280 79 444 
256 11 62 122 318 368 149 628 230 184 12 573 226 
257 11 515 445 156 601 60 474 585 635 331 229 259 
258 11 650 244 260 371 2 289 80 97 430 425 87 
259 11 585 97 9 229 528 331 80 87 260 515 630 
260 11 371 80 258 650 87 97 9 387 566 425 244 
261 11 141 186 143 295 51 519 547 70 163 520 475 
262 11 443 210 59 232 72 167 231 185 295 190 519 
263 11 452 359 402 621 599 514 308 605 21 589 504 
264 11 214 338 159 37 16 13 55 309 145 25 213 
265 11 246 565 142 127 161 297 47 530 77 321 56 
266 11 188 317 64 178 311 69 129 271 19 482 326 
267 11 424 481 200 449 406 316 388 86 372 500 281 
268 11 377 333 3 648 195 574 469 292 272 85 8 
269 11 518 491 590 373 382 488 587 501 529 276 541 
270 11 400 125 278 253 409 233 284 296 151 241 53 
271 11 84 188 311 592 129 266 307 245 298 19 154 
272 11 574 292 333 162 67 157 469 18 38 268 217 
273 10 153 537 471 206 394 499 457 536 252 625 
274 11 217 228 157 67 162 224 292 573 272 285 155 
275 11 168 139 334 618 148 79 280 557 415 149 489 
276 11 401 590 529 131 518 269 553 438 491 501 373 
277 11 286 193 212 92 109 114 540 508 606 426 644 
278 11 253 400 270 125 409 241 233 53 218 151 284 
279 11 384 535 473 177 397 347 58 320 14 31 291 
280 11 79 139 336 26 287 168 133 525 48 148 255 
281 11 404 86 406 470 436 344 481 204 604 424 479 
282 11 581 465 126 208 647 633 211 401 477 487 629 
283 11 237 534 42 451 450 104 161 158 44 176 403 
284 11 151 296 409 516 487 366 647 400 125 502 107 
285 11 358 224 300 556 228 155 43 632 637 274 217 
286 11 277 109 193 114 212 540 92 606 508 123 99 
287 11 525 48 336 255 306 79 280 26 128 226 568 
288 11 78 482 178 312 527 69 462 129 64 188 266 
289 11 2 244 352 503 430 650 422 258 383 420 425 
290 10 342 609 542 146 310 432 560 596 350 455 
291 11 93 433 347 14 320 221 279 473 397 384 535 
292 11 272 574 162 333 67 157 268 469 217 274 18 
293 11 304 98 549 89 11 75 170 332 166 247 145 
294 11 175 91 167 20 70 45 72 210 337 31 124 
295 11 443 519 186 167 261 72 163 210 262 141 70 
296 11 366 284 409 151 125 400 270 516 107 111 487 
297 11 530 47 154 147 142 24 617 246 28 165 307 
298 11 245 592 203 68 73 572 158 591 209 44 84 
299 11 65 375 489 319 523 569 485 32 431 90 631 
300 11 358 632 637 285 556 602 43 434 224 56 77 
301 11 372 388 462 165 307 200 527 449 617 482 267 
302 11 619 439 533 399 82 463 454 121 456 593 379 
303 11 184 579 573 12 191 318 18 157 226 162 217 
304 11 89 332 293 11 170 169 98 145 549 25 75 
305 11 322 183 123 243 113 114 340 335 623 606 55 
306 11 255 48 128 568 525 287 336 133 444 280 79 
307 11 165 24 617 129 154 301 47 188 271 482 84 
308 11 605 205 599 452 402 263 504 621 21 359 526 
309 11 16 213 25 145 169 238 214 332 264 5 338 
310 10 609 654 290 342 432 146 413 442 510 542 
311 11 19 266 326 317 110 271 188 64 592 68 591 
312 11 78 527 462 482 498 288 301 240 178 517 388 
313 11 83 6 135 335 22 580 202 429 361 118 75 
314 11 323 651 250 597 63 150 497 163 411 50 557 
315 11 30 69 327 64 317 215 130 164 236 266 41 
316 11 449 200 500 267 424 559 406 481 74 372 388 
317 11 64 69 266 311 326 19 188 110 315 178 30 
318 11 184 256 12 368 226 303 573 579 191 62 26 
319 11 65 569 299 375 90 489 435 32 370 523 497 
320 11 14 473 279 31 177 384 291 347 93 535 397 
321 11 152 52 127 251 220 56 35 77 565 29 171 
322 11 305 113 243 183 340 123 55 335 135 114 623 
323 11 314 150 250 651 597 63 163 497 415 557 50 
324 11 646 593 121 607 414 454 437 439 379 82 533 
325 11 198 425 248 448 430 638 40 387 458 505 503 
326 11 110 19 311 591 317 41 68 64 266 69 196 
327 11 30 130 315 215 236 225 132 10 137 164 69 
328 11 66 41 88 115 164 239 112 242 11 170 215 
329 11 419 380 50 411 641 106 102 363 547 207 520 
330 11 444 38 18 469 467 191 579 8 12 333 525 
331 11 585 9 87 630 495 339 80 259 635 441 474 
332 11 89 304 169 145 25 293 213 11 98 170 309 
333 11 574 272 292 268 469 377 38 162 3 18 67 
334 11 415 557 275 149 122 618 368 150 139 168 497 
335 11 135 6 243 83 22 313 361 202 580 550 357 
336 11 287 255 48 525 280 79 306 133 128 139 26 
337 11 124 45 91 95 235 31 70 138 294 175 473 
338 11 264 13 214 55 145 159 340 16 580 25 309 
339 11 630 495 354 174 635 441 100 331 474 566 367 
340 11 55 13 113 243 338 580 135 159 335 322 264 
341 9 393 478 575 526 395 389 539 386 4 
342 10 290 609 542 432 146 596 310 455 560 350 
343 11 46 410 353 417 362 509 631 577 431 522 523 
344 11 436 484 479 538 470 578 204 369 615 407 281 
345 11 117 355 615 600 369 578 107 76 538 348 234 
346 8 563 81 376 39 494 365 364 192 
347 11 397 279 535 384 58 433 473 291 14 177 320 
348 11 234 600 634 76 117 345 355 107 58 615 369 
349 11 197 510 413 616 105 562 626 216 432 584 524 
350 8 542 558 405 560 146 194 290 342 
351 10 493 440 403 654 176 442 310 390 413 450 
352 9 420 2 289 244 644 426 383 508 532 
353 11 417 631 431 343 577 46 509 523 410 32 362 
354 11 174 495 339 635 367 630 416 474 386 4 396 
355 11 117 369 615 345 76 600 578 34 538 479 484 
356 11 576 17 374 626 620 524 584 173 480 616 27 
357 11 385 459 490 623 550 361 192 364 494 202 22 
358 11 300 632 637 285 556 602 43 434 224 29 251 
359 11 621 263 452 514 589 605 402 21 599 308 144 
360 9 610 116 544 457 541 536 511 571 501 
361 11 202 22 550 6 357 429 490 583 83 385 335 
362 11 410 343 522 46 645 353 546 624 417 577 509 
363 11 653 641 554 546 624 222 102 643 398 522 551 
364 11 459 490 494 140 192 385 563 346 173 357 81 
365 5 582 480 346 620 173 
366 11 296 284 111 409 634 151 125 107 400 348 234 
367 8 386 416 395 4 354 393 478 396 
368 11 256 122 318 26 149 62 226 12 184 79 280 
369 11 615 578 355 538 34 345 484 479 117 344 76 
370 11 32 551 398 569 90 631 577 375 431 353 417 
371 11 260 650 258 80 387 425 87 430 566 244 9 
372 11 388 200 449 301 267 424 316 481 500 462 165 
373 9 382 491 587 488 269 552 541 518 501 
374 11 17 173 356 620 576 140 480 626 524 584 180 
375 11 32 569 523 299 65 431 370 319 90 631 485 
376 7 81 39 532 346 563 494 540 
377 11 3 268 195 8 469 85 333 608 648 467 574 
378 11 33 57 120 392 408 136 118 187 27 429 583 
379 10 454 586 414 82 439 456 121 324 437 607 
380 11 419 106 411 50 329 641 63 435 597 398 551 
381 11 218 53 36 241 233 476 446 553 483 131 438 
382 9 491 373 587 541 269 501 488 552 518 
383 6 421 548 586 223 422 379 
384 11 535 279 397 58 177 347 473 320 14 234 101 
385 11 357 459 490 192 494 623 364 99 550 361 140 
386 9 395 367 4 393 478 396 416 622 341 
387 11 566 441 40 100 425 638 371 325 87 448 80 
388 11 372 200 449 301 267 424 481 316 500 462 406 
389 11 539 526 21 575 588 341 589 478 393 605 621 
390 10 249 493 440 351 450 534 403 176 442 654 
391 4 594 412 649 182 
392 11 120 408 57 136 180 583 429 378 27 550 187 
393 9 478 341 395 386 4 396 622 575 526 
394 8 536 252 457 273 552 153 570 499 
395 7 386 393 478 367 4 341 416 
396 11 622 595 4 254 478 386 393 395 341 367 174 
397 11 535 58 384 347 279 177 473 76 234 348 320 
398 11 551 577 370 554 641 546 631 32 353 363 653 
399 10 619 533 302 463 439 82 121 598 454 593 
400 11 125 270 409 278 253 284 296 151 241 487 233 
401 11 276 553 131 529 590 518 269 465 438 282 491 
402 11 599 452 263 308 504 359 621 605 514 205 21 
403 10 176 351 450 493 105 440 197 390 413 451 
404 11 86 281 406 517 470 481 604 436 477 211 424 
405 7 558 194 350 466 561 560 542 
406 11 86 481 424 267 281 404 316 449 200 204 517 
407 11 502 470 344 578 107 538 604 615 436 345 484 
408 11 392 120 57 136 180 583 27 429 524 187 378 
409 11 125 400 296 270 284 151 253 278 366 487 647 
410 11 46 343 362 509 353 417 522 577 631 645 431 
411 11 419 380 50 106 63 597 651 329 435 250 641 
412 5 594 391 182 649 160 
413 10 510 197 349 432 562 310 105 609 616 455 
414 10 437 607 324 379 454 646 121 593 586 82 
415 11 557 334 149 150 122 628 230 62 368 497 275 
416 8 367 386 395 354 474 635 649 4 
417 11 353 431 631 343 509 46 523 577 410 32 485 
418 10 567 442 602 654 434 194 146 560 440 637 
419 11 380 411 106 50 329 641 63 597 435 651 398 
420 8 352 508 532 644 426 2 383 289 
421 6 383 548 586 223 379 414 
422 11 503 198 223 548 458 430 289 383 421 456 325 
423 11 49 642 463 603 619 302 399 456 533 640 439 
424 11 267 481 449 200 406 316 86 388 372 500 281 
425 11 430 325 387 371 198 566 638 650 40 448 503 
426 10 644 508 92 420 352 212 2 193 181 532 
427 11 513 74 15 559 428 453 61 500 543 316 204 
428 11 15 513 427 543 74 453 54 61 559 34 204 
429 11 583 136 202 180 392 550 361 120 408 57 6 
430 11 425 503 325 198 289 650 422 371 387 244 2 
431 11 523 417 631 353 32 485 509 343 46 375 577 
432 11 455 562 342 596 510 609 310 290 413 103 542 
433 11 61 291 347 54 543 93 513 428 227 397 472 
434 11 602 637 632 77 418 300 56 249 358 556 567 
435 11 90 497 569 106 370 319 63 32 375 551 380 
436 11 344 484 479 470 538 204 578 281 369 615 407 
437 7 607 414 324 646 593 121 379 
438 11 483 446 131 529 501 511 476 571 276 269 491 
439 11 82 302 454 533 121 619 399 379 593 324 456 
440 10 493 351 654 442 403 310 390 176 249 609 
441 11 566 100 387 630 40 339 638 174 495 87 9 
442 10 654 440 418 310 493 351 609 146 567 290 
443 11 262 295 210 72 167 519 163 232 59 231 185 
444 11 330 38 128 525 568 18 48 306 467 191 469 
445 11 156 515 60 257 108 229 601 259 585 528 474 
446 11 483 476 438 36 131 529 511 571 501 276 401 
447 7 639 461 598 596 103 455 350 
448 11 638 40 325 506 248 555 100 387 425 198 505 
449 11 200 267 316 424 388 372 481 500 406 559 86 
450 11 534 176 403 451 42 390 283 493 351 105 440 
451 11 42 450 176 283 534 105 403 187 611 237 216 
452 11 263 402 599 359 621 308 605 514 504 21 589 
453 11 74 559 15 204 428 427 513 479 484 316 436 
454 11 82 439 121 379 324 593 302 414 533 646 456 
455 11 596 103 432 562 639 342 492 510 290 447 609 
456 11 82 379 223 439 302 454 586 619 533 642 121 
457 8 536 360 544 610 116 394 541 273 
458 11 642 198 505 640 248 422 223 423 456 325 503 
459 11 490 364 385 357 140 550 494 192 361 180 173 
460 11 134 201 96 531 119 471 499 206 10 236 153 
461 8 447 598 639 593 646 324 121 103 
462 11 527 301 312 482 78 388 372 200 129 449 288 
463 10 619 399 302 603 533 423 439 49 82 454 
464 9 486 570 521 252 629 552 488 587 625 
465 11 647 487 282 553 401 581 126 241 276 151 590 
466 7 561 405 194 558 350 560 43 
467 11 8 144 514 636 612 469 3 377 195 608 359 
468 10 627 492 584 616 480 103 576 626 620 17 
469 11 38 333 377 574 8 330 268 467 3 18 272 
470 11 436 344 281 604 407 484 479 538 404 578 204 
471 11 153 206 273 537 499 119 531 134 96 394 460 
472 11 189 227 28 221 433 61 220 93 291 513 127 
473 11 279 320 14 177 384 535 31 397 347 58 95 
474 10 635 416 354 495 367 339 630 174 649 386 
475 11 520 547 51 143 207 141 102 329 564 261 363 
476 11 446 36 483 438 131 529 511 571 501 553 276 
477 11 633 208 211 172 604 581 404 282 126 629 240 
478 10 393 341 395 4 386 396 622 575 526 595 
479 11 484 344 538 436 204 578 369 615 34 470 453 
480 10 620 17 582 173 576 468 356 374 584 365 
481 11 424 267 406 86 200 449 316 517 404 281 388 
482 11 178 129 78 462 288 312 527 188 301 307 266 
483 11 446 438 476 131 511 571 36 529 501 276 116 
484 11 479 344 538 436 578 204 369 615 470 34 453 
485 11 523 431 509 417 353 631 46 375 343 32 299 
486 9 464 570 252 521 552 629 488 625 394 
487 11 647 151 465 126 516 284 282 581 502 241 553 
488 9 373 587 552 491 382 269 518 629 590 
489 11 65 299 319 618 375 569 485 523 32 90 431 
490 11 459 364 385 550 140 357 494 192 361 180 202 
491 10 382 373 269 587 501 518 541 488 590 552 
492 10 103 627 468 584 562 455 616 596 639 432 
493 10 440 351 390 403 654 442 176 249 450 310 
494 11 192 364 563 385 39 346 81 99 459 490 357 
495 11 339 630 354 635 174 474 331 441 100 367 416 
496 11 219 507 564 643 222 512 102 645 624 207 653 
497 11 63 435 90 319 557 651 106 314 597 569 411 
498 11 625 119 312 531 486 78 96 464 570 240 252 
499 11 119 625 531 96 471 153 273 252 394 537 206 
500 11 316 449 200 559 74 427 267 424 372 388 453 
501 11 511 382 491 541 269 529 373 438 571 116 518 
502 11 516 407 126 107 604 211 470 647 151 487 345 
503 11 422 430 198 289 223 548 458 325 383 425 421 
504 11 599 402 308 205 452 263 605 621 359 614 21 
505 11 640 248 458 7 642 198 423 325 49 448 648 
506 11 555 652 545 612 254 448 588 636 595 144 622 
507 11 564 219 496 643 222 512 645 624 522 653 102 
508 10 644 92 426 420 532 109 352 212 193 277 
509 11 46 343 417 353 410 431 485 523 631 362 577 
510 11 413 562 349 197 432 616 455 310 596 609 342 
511 11 501 571 116 541 610 360 438 544 382 491 483 
512 11 645 522 222 643 362 624 507 410 546 564 653 
513 11 427 428 15 61 74 559 453 543 54 204 34 
514 11 359 263 621 452 144 589 402 599 467 636 605 
515 11 156 60 257 445 108 229 259 585 528 331 9 
516 11 502 126 151 647 487 407 107 284 604 581 211 
517 11 240 86 404 481 172 406 281 424 267 477 633 
518 11 590 269 491 276 373 529 382 488 587 501 131 
519 11 163 295 443 250 141 597 651 261 50 323 314 
520 11 547 475 207 51 143 329 141 102 564 363 50 
521 10 629 464 486 570 488 552 172 252 587 373 
522 11 645 624 546 362 554 222 512 653 410 643 343 
523 11 431 485 417 631 32 353 375 509 343 46 299 
524 11 216 27 611 626 356 187 576 349 105 616 17 
525 11 287 48 255 306 336 128 280 26 79 568 226 
526 9 575 389 341 539 21 393 478 588 605 
527 11 312 462 78 482 301 498 240 388 372 517 288 
528 11 229 97 259 108 585 515 80 60 9 87 331 
529 11 131 276 438 590 518 269 501 401 491 483 511 
530 11 297 47 154 24 617 142 147 165 246 307 28 
531 11 119 96 499 625 134 460 471 498 153 252 273 
532 6 376 420 81 39 508 109 
533 10 399 302 619 439 82 121 454 463 593 324 
534 11 450 283 176 42 390 451 403 237 493 351 249 
535 11 384 397 58 279 177 347 473 234 76 320 348 
536 8 457 394 360 541 552 116 610 544 
537 10 273 153 206 471 457 394 499 536 360 119 
538 11 578 484 479 344 369 615 436 204 34 355 345 
539 11 389 526 588 21 575 341 589 478 393 622 652 
540 11 109 606 99 39 192 81 286 376 494 623 114 
541 9 382 587 491 501 373 360 536 116 511 
542 10 290 342 146 350 560 609 558 596 310 432 
543 11 54 34 428 61 15 513 369 453 355 427 204 
544 9 610 116 360 571 457 511 541 536 501 
545 11 652 555 612 636 144 506 588 589 539 254 389 
546 11 554 624 522 653 577 645 363 222 362 398 551 
547 11 520 475 143 51 141 329 207 102 50 419 380 
548 9 421 223 586 383 379 456 422 414 82 
549 11 98 293 166 75 247 118 304 170 89 580 11 
550 11 202 361 490 583 429 180 459 136 357 22 385 
551 11 398 370 577 554 32 631 641 546 353 90 417 
552 8 587 488 373 382 491 541 536 269 
553 11 401 276 131 465 241 529 590 438 446 476 518 
554 11 546 653 624 398 577 522 363 551 641 645 222 
555 11 506 652 545 612 254 588 636 595 144 622 589 
556 11 43 637 632 300 285 602 358 567 155 466 434 
557 11 415 334 497 150 149 319 275 314 63 435 323 
558 10 560 194 405 350 146 542 567 290 466 561 
559 11 74 453 15 427 316 428 513 204 500 406 267 
560 10 558 146 194 542 350 405 290 567 342 609 
561 7 466 405 194 558 350 560 43 
562 11 510 432 455 103 413 492 596 616 349 584 197 
563 8 346 81 494 39 376 364 192 365 
564 11 643 222 507 102 653 624 363 645 512 219 496 
565 11 77 56 249 265 390 434 251 321 127 152 534 
566 11 441 387 100 40 638 87 630 339 9 80 174 
567 11 194 418 560 558 146 43 405 442 602 466 542 
568 11 128 306 255 48 525 444 287 504 336 402 599 
569 11 90 375 32 370 319 65 435 299 523 631 431 
570 9 486 464 252 521 552 394 488 625 629 
571 11 511 116 610 544 360 501 438 483 541 382 446 
572 11 158 104 44 161 237 298 245 283 592 203 209 
573 11 303 184 579 157 318 12 191 217 162 274 67 
574 11 272 292 333 162 469 67 268 38 18 157 377 
575 8 526 341 389 539 21 393 478 395 
576 11 356 17 626 620 374 584 480 616 173 524 468 
577 11 631 353 398 551 417 554 343 546 370 431 32 
578 11 538 615 369 484 479 344 355 345 436 117 34 
579 11 191 303 12 184 573 18 226 318 38 157 330 
580 11 75 13 313 98 83 135 335 6 340 243 549 
581 11 282 126 208 211 633 477 647 465 604 487 629 
582 6 365 480 620 468 173 627 
583 11 136 180 429 392 408 550 120 202 57 361 490 
584 11 616 468 626 492 576 627 562 17 356 480 103 
585 11 331 9 259 87 80 630 495 339 97 635 441 
586 9 379 548 414 421 223 456 454 82 437 
587 8 373 382 552 488 491 541 269 518 
588 11 539 389 589 652 545 21 526 254 622 144 555 
589 11 588 144 621 359 539 389 21 545 514 652 636 
590 11 518 269 276 529 491 373 382 401 131 488 501 
591 11 68 73 203 110 179 19 326 196 298 245 209 
592 11 245 298 84 271 203 68 311 572 73 19 591 
593 11 646 324 121 454 607 414 439 533 437 82 461 
594 5 391 412 182 649 160 
595 11 254 622 396 4 478 393 386 174 652 341 588 
596 10 455 639 103 342 432 562 290 542 447 609 
597 11 651 250 63 50 411 314 419 323 106 380 497 
598 8 461 447 399 533 593 121 619 646 
599 11 402 452 263 308 504 605 359 621 205 514 21 
600 11 117 348 76 234 345 355 615 369 107 634 578 
601 9 160 182 649 594 474 391 416 635 412 
602 11 637 434 632 418 567 43 556 300 358 442 77 
603 7 463 49 423 619 399 302 533 
604 11 211 470 633 477 407 126 404 208 502 281 581 
605 11 308 21 621 452 263 359 599 205 402 526 389 
606 11 99 540 623 109 114 123 192 39 183 494 286 
607 8 437 324 414 646 593 121 454 379 
608 11 85 195 3 7 8 612 636 377 467 648 545 
609 10 290 310 342 146 432 542 654 596 560 455 
610 9 116 544 360 571 511 541 457 536 501 
611 11 187 216 27 524 105 451 42 349 197 626 57 
612 11 636 144 545 555 652 608 506 589 8 467 588 
613 11 94 217 224 274 230 62 628 573 228 157 256 
614 7 205 308 412 504 605 391 594 
615 11 369 578 355 538 345 117 484 479 34 344 600 
616 11 584 626 562 349 492 468 510 576 197 103 356 
617 11 24 165 154 147 307 530 47 297 301 372 388 
618 11 489 275 65 299 319 334 168 557 139 148 375 
619 10 399 302 463 533 439 82 454 121 603 423 
620 11 17 480 173 374 576 356 582 468 584 626 140 
621 11 359 263 452 514 589 605 21 402 308 599 389 
622 11 396 595 254 4 478 393 386 341 395 539 588 
623 11 99 385 357 192 606 494 183 123 459 540 490 
624 11 522 546 653 222 645 554 643 362 363 512 577 
625 11 119 499 531 252 96 498 570 486 394 464 471 
626 11 616 584 576 356 349 524 17 216 468 197 510 
627 10 468 492 103 584 616 455 480 639 562 461 
628 11 230 62 122 94 256 149 150 368 415 318 613 
629 11 521 488 464 486 373 518 552 570 208 269 587 
630 11 339 495 174 354 441 635 331 100 566 9 474 
631 11 353 417 431 32 577 523 343 370 46 509 551 
632 11 637 300 602 434 358 556 43 418 285 77 567 
633 11 477 208 211 604 581 172 282 126 404 629 240 
634 11 234 348 600 107 58 117 76 111 345 355 101 
635 10 474 354 495 339 416 630 367 174 331 386 
636 11 612 144 545 589 652 555 467 514 8 588 506 
637 11 632 602 434 300 556 358 43 418 567 77 285 
638 11 40 100 448 387 441 566 174 325 425 506 254 
639 9 447 596 103 455 461 342 492 542 350 
640 11 505 248 458 642 7 423 198 49 648 325 85 
641 11 363 398 554 653 551 546 380 624 577 106 419 
642 11 423 458 640 505 456 49 463 302 223 248 619 
643 11 222 564 624 645 653 507 522 512 546 363 554 
644 10 426 508 92 420 352 212 532 2 193 109 
645 11 522 512 624 362 222 643 546 410 653 554 343 
646 11 324 593 121 607 414 437 454 439 461 533 82 
647 11 487 465 126 151 516 282 581 502 284 211 553 
648 11 49 3 195 268 85 7 377 423 608 640 603 
649 5 160 391 594 182 416 
650 11 258 371 244 260 430 2 289 425 387 80 503 
651 11 597 250 63 314 323 50 411 497 419 106 380 
652 11 545 555 588 506 254 589 612 636 539 595 144 
653 11 363 624 546 554 222 643 522 641 645 564 398 
654 10 442 440 310 351 493 609 290 146 418 342 
DEPOT_SECTION
   1
   -1
EOF
