NAME :  X-n641-kX-w64-c7.cctp
COMMENT : 	Adapted by Maziero, Usberti and Cavellucci from the Uchoa, Pecin, Pessoa, Poggi, Subramanian, and Vidal (2013)
TYPE :  CCTP
DIMENSION :    330
EDGE_WEIGHT_TYPE : 	EUC_2D	
CAPACITY : 	1381
VERTICES_WITHIN_COVERAGE :  7
VERTICES_WITH_DEMAND : 	64
NODE_COORD_SECTION
1 0 0
2 80 386
3 521 652
4 597 936
5 836 69
6 503 987
7 618 169
8 115 662
9 312 175
10 78 83
11 364 317
12 12 454
13 980 537
14 403 383
15 144 443
16 739 464
17 886 511
18 904 106
19 794 539
20 821 608
21 781 347
22 336 490
23 101 736
24 365 68
25 618 684
26 282 286
27 311 806
28 557 793
29 54 50
30 651 264
31 619 661
32 156 994
33 950 369
34 183 707
35 673 856
36 5 651
37 867 449
38 946 914
39 75 82
40 522 8
41 573 493
42 833 699
43 881 677
44 201 77
45 536 593
46 67 895
47 99 113
48 120 133
49 428 231
50 701 845
51 190 508
52 431 218
53 626 782
54 113 914
55 569 117
56 865 639
57 708 9
58 511 977
59 104 838
60 229 467
61 956 568
62 431 929
63 615 707
64 913 42
65 854 504
66 236 176
67 377 404
68 380 468
69 590 752
70 620 146
71 616 746
72 556 640
73 99 777
74 920 116
75 525 23
76 757 593
77 289 765
78 246 267
79 648 790
80 636 653
81 555 181
82 738 446
83 130 836
84 882 942
85 102 787
86 669 905
87 490 45
88 883 547
89 971 638
90 256 227
91 489 411
92 514 866
93 7 118
94 161 160
95 27 21
96 64 937
97 121 847
98 770 896
99 986 803
100 379 259
101 686 273
102 133 869
103 157 499
104 649 934
105 670 615
106 978 479
107 646 823
108 193 565
109 26 411
110 114 126
111 946 326
112 116 701
113 837 507
114 441 235
115 68 374
116 582 768
117 220 519
118 593 651
119 71 712
120 26 569
121 918 629
122 165 731
123 227 977
124 788 366
125 33 507
126 597 983
127 799 35
128 529 178
129 118 484
130 477 280
131 591 189
132 807 670
133 874 932
134 245 24
135 960 27
136 139 44
137 684 501
138 20 905
139 57 354
140 862 741
141 240 516
142 782 700
143 951 550
144 710 44
145 537 764
146 407 191
147 629 133
148 608 911
149 727 517
150 679 836
151 73 420
152 637 903
153 55 920
154 116 175
155 344 992
156 28 667
157 439 245
158 891 450
159 115 896
160 655 766
161 210 731
162 42 176
163 505 517
164 923 66
165 490 844
166 342 859
167 876 843
168 631 889
169 634 721
170 943 776
171 533 441
172 752 907
173 617 648
174 494 54
175 921 869
176 594 990
177 23 693
178 509 133
179 187 933
180 910 526
181 470 949
182 522 961
183 602 499
184 655 931
185 469 942
186 561 574
187 948 781
188 857 586
189 918 448
190 247 860
191 434 167
192 531 937
193 668 318
194 774 375
195 104 5
196 351 968
197 371 880
198 696 912
199 754 894
200 45 61
201 724 419
202 704 881
203 325 252
204 736 6
205 156 513
206 69 89
207 782 635
208 585 289
209 800 708
210 249 15
211 984 964
212 846 680
213 324 862
214 604 499
215 82 705
216 639 197
217 368 469
218 642 479
219 598 732
220 424 158
221 825 660
222 763 320
223 399 34
224 510 68
225 74 921
226 220 690
227 552 210
228 176 182
229 501 475
230 779 37
231 873 112
232 644 148
233 322 862
234 537 103
235 861 100
236 529 695
237 675 210
238 651 310
239 461 838
240 897 59
241 297 252
242 125 723
243 150 672
244 849 63
245 944 384
246 905 477
247 714 36
248 601 599
249 210 25
250 946 53
251 494 646
252 214 534
253 815 93
254 150 697
255 326 92
256 88 487
257 167 677
258 861 91
259 897 123
260 161 685
261 344 459
262 958 32
263 182 410
264 236 454
265 383 370
266 543 638
267 372 21
268 822 586
269 858 405
270 342 363
271 616 158
272 260 277
273 222 118
274 912 123
275 266 332
276 504 663
277 203 441
278 363 40
279 784 472
280 928 16
281 705 463
282 102 636
283 592 743
284 798 382
285 551 296
286 785 320
287 602 101
288 491 528
289 762 360
290 199 695
291 537 609
292 784 464
293 792 611
294 786 74
295 311 127
296 344 152
297 96 627
298 429 14
299 588 689
300 641 165
301 867 100
302 967 508
303 420 424
304 254 301
305 532 657
306 498 805
307 337 176
308 987 16
309 541 973
310 909 104
311 338 491
312 756 316
313 346 454
314 354 322
315 608 213
316 953 337
317 516 661
318 309 323
319 186 520
320 379 303
321 69 822
322 416 97
323 758 423
324 354 509
325 690 234
326 160 694
327 345 206
328 106 676
329 586 399
330 918 94
DEMAND_SECTION
2 59
3 87
4 98
5 73
6 70
7 64
8 98
9 87
10 99
11 78
12 68
13 99
14 53
15 56
16 66
17 67
18 74
19 86
20 75
21 71
22 87
23 87
24 66
25 71
26 75
27 62
28 78
29 83
30 63
31 95
32 52
33 57
34 58
35 65
36 86
37 85
38 58
39 84
40 92
41 50
42 72
43 76
44 79
45 58
46 100
47 94
48 86
49 70
50 80
51 75
52 86
53 95
54 94
55 79
56 97
57 56
58 88
59 72
60 58
61 64
62 51
63 84
64 71
65 95
COVERAGE_SECTION
2 5 115 151 139 109 15 
3 6 317 305 276 266 251 72 
4 7 148 126 104 152 176 168 184 
5 7 244 253 258 235 301 127 294 
6 7 58 182 309 181 185 192 176 
7 7 271 70 300 232 131 216 147 
8 5 328 282 243 112 297 
9 5 307 296 327 295 66 
10 7 39 206 47 200 29 110 48 
11 6 314 320 270 318 265 100 
12 5 109 125 151 256 2 
13 6 143 302 61 106 180 246 
14 4 265 67 303 270 
15 7 129 263 103 277 205 256 151 
16 7 82 281 292 323 279 201 149 
17 7 180 65 88 246 113 158 37 
18 5 310 259 330 74 274 
19 7 113 268 76 279 65 149 293 
20 7 268 293 188 207 221 56 132 
21 6 124 289 286 194 222 284 
22 6 311 324 261 313 217 68 
23 5 242 215 112 119 73 
24 4 278 255 223 267 
25 7 31 63 299 80 173 169 118 
26 7 272 304 241 78 318 275 203 
27 5 77 213 233 166 190 
28 7 116 145 69 306 283 53 219 
29 7 200 39 95 10 206 195 47 
30 6 101 238 325 193 237 315 
31 7 173 80 25 118 299 63 169 
32 6 179 123 54 159 96 225 
33 3 245 316 111 
34 7 290 326 122 260 254 257 161 
35 7 150 50 202 107 86 168 152 
36 2 156 177 
37 5 158 269 246 189 65 
38 7 175 211 84 133 167 99 187 
39 7 10 206 200 29 47 110 48 
40 6 75 87 174 224 298 234 
41 7 183 214 171 218 163 229 186 
42 7 212 209 132 221 140 142 43 
43 7 212 56 42 221 121 140 132 
44 6 273 249 134 136 210 94 
45 6 291 186 266 72 3 305 
46 7 225 153 96 138 159 54 59 
47 7 110 48 10 206 39 154 200 
48 7 110 47 154 94 10 206 39 
49 7 52 114 157 146 100 191 130 
50 7 150 35 202 107 198 86 199 
51 7 319 117 103 205 252 141 60 
52 7 49 114 157 146 191 220 100 
53 7 79 160 71 107 116 69 283 
54 7 159 225 102 46 96 153 97 
55 7 234 287 70 147 178 271 81 
56 7 43 212 221 20 121 188 132 
57 5 204 247 144 230 127 
58 7 6 182 309 192 181 185 176 
59 7 97 83 321 102 85 159 73 
60 3 264 277 141 
61 7 143 13 302 180 89 121 88 
62 7 185 181 197 196 6 58 182 
63 7 25 169 219 299 71 283 31 
64 4 240 164 280 250 
65 7 113 17 88 37 246 180 158 
66 6 90 228 273 9 94 295 
67 3 14 265 303 
68 5 217 261 313 311 22 
69 7 283 116 219 71 53 63 28 
70 6 271 147 7 232 300 287 
71 7 219 283 69 169 53 63 116 
72 7 266 305 291 3 118 317 45 
73 5 85 23 321 242 59 
74 5 274 310 18 330 259 
75 6 40 87 174 224 234 298 
76 6 293 207 19 268 20 149 
77 1 27 
78 4 272 304 26 90 
79 7 53 160 107 71 150 69 116 
80 7 31 173 25 118 105 63 299 
81 7 128 227 131 315 7 271 55 
82 6 16 201 323 281 292 279 
83 4 97 59 102 85 
84 5 133 38 175 167 211 
85 5 73 321 23 59 83 
86 7 198 184 152 104 168 202 35 
87 6 174 224 75 40 298 234 
88 7 180 17 188 65 113 143 268 
89 7 121 61 143 43 13 56 188 
90 5 78 241 272 66 26 
91 5 171 229 303 14 329 
92 6 165 239 306 192 28 185 
93 6 162 206 200 39 10 29 
94 5 228 154 48 110 273 
95 7 29 200 39 195 10 206 93 
96 7 153 225 46 54 138 159 102 
97 5 83 59 102 159 321 
98 5 199 172 202 198 50 
99 6 187 170 175 167 38 140 
100 7 320 203 49 11 157 327 52 
101 5 30 325 193 238 237 
102 5 97 159 83 59 54 
103 5 205 51 319 129 15 
104 7 184 152 86 148 168 4 198 
105 4 80 173 31 248 
106 5 302 13 189 246 143 
107 7 79 150 35 53 160 50 168 
108 4 252 319 117 51 
109 7 12 151 115 2 139 125 256 
110 7 48 47 154 10 94 206 39 
111 2 316 33 
112 5 242 328 215 254 23 
113 7 65 17 19 88 279 37 292 
114 7 157 49 52 146 130 100 191 
115 5 2 139 151 109 12 
116 7 69 283 28 219 71 145 53 
117 7 252 141 51 319 60 108 205 
118 7 173 31 299 72 25 80 266 
119 3 215 23 112 
120 2 125 36 
121 7 56 89 43 61 188 143 212 
122 2 34 254 
123 4 179 32 155 190 
124 5 194 284 21 289 286 
125 3 12 256 120 
126 7 176 4 309 104 148 182 184 
127 7 230 294 5 244 253 204 258 
128 6 81 227 178 131 55 234 
129 4 256 103 205 15 
130 7 157 114 49 285 52 100 320 
131 7 315 7 81 271 227 216 70 
132 7 221 42 142 209 212 207 293 
133 4 84 38 175 167 
134 3 210 249 44 
135 5 262 308 250 280 64 
136 7 195 44 10 249 39 47 206 
137 4 281 149 218 16 
138 7 153 46 96 225 54 159 321 
139 4 115 2 109 151 
140 7 42 212 43 209 170 221 132 
141 6 117 252 60 51 319 264 
142 7 209 132 42 221 207 212 140 
143 7 61 13 302 180 88 17 106 
144 4 247 57 204 230 
145 4 28 116 69 306 
146 7 52 191 220 49 114 157 327 
147 6 70 232 271 300 7 287 
148 7 4 152 168 104 184 86 126 
149 5 137 16 281 19 82 
150 7 35 50 107 202 79 86 168 
151 7 2 115 109 139 256 12 15 
152 7 168 148 86 104 184 4 35 
153 7 96 225 46 138 54 159 102 
154 4 48 94 110 228 
155 6 196 62 197 123 213 233 
156 2 177 36 
157 7 114 49 52 130 100 146 191 
158 3 37 189 246 
159 7 54 102 46 225 97 59 83 
160 7 79 53 71 169 107 69 219 
161 3 34 290 226 
162 4 93 154 47 110 
163 4 288 229 41 186 
164 2 64 250 
165 5 239 92 306 28 145 
166 5 213 233 197 27 190 
167 6 175 133 170 187 84 38 
168 7 152 148 86 104 184 35 4 
169 7 63 71 219 25 283 160 69 
170 6 187 99 140 167 175 43 
171 6 229 91 41 329 163 183 
172 5 199 98 202 198 50 
173 7 31 80 118 25 299 248 63 
174 5 87 224 75 40 234 
175 7 38 167 133 84 187 99 170 
176 7 126 4 309 104 182 148 192 
177 3 156 36 119 
178 5 234 128 55 224 81 
179 5 123 32 54 159 102 
180 7 17 88 143 246 65 302 61 
181 7 185 62 6 58 182 192 309 
182 7 58 309 192 6 181 185 126 
183 5 214 41 218 137 186 
184 7 104 86 152 198 168 148 4 
185 7 181 62 58 6 182 192 309 
186 7 45 291 248 72 266 163 41 
187 6 170 99 175 140 167 43 
188 7 268 20 88 56 293 121 19 
189 3 158 246 37 
190 3 233 213 27 
191 6 220 146 52 49 114 322 
192 7 182 309 58 6 181 185 4 
193 3 238 101 30 
194 5 124 289 284 21 323 
195 7 136 29 95 200 10 39 206 
196 6 155 62 197 166 213 233 
197 5 166 213 233 62 196 
198 7 86 202 184 104 172 152 35 
199 5 172 98 202 198 50 
200 7 29 39 206 10 95 93 47 
201 4 82 323 16 281 
202 7 198 50 35 86 150 199 172 
203 7 241 327 100 26 272 90 318 
204 6 57 247 144 230 127 294 
205 4 103 319 51 129 
206 7 39 10 200 47 29 110 48 
207 7 293 132 20 76 221 268 142 
208 6 285 238 30 315 227 193 
209 7 142 42 132 212 221 140 207 
210 3 134 249 44 
211 6 38 84 175 133 99 167 
212 7 42 221 43 132 56 209 140 
213 5 233 166 197 27 190 
214 5 183 41 218 137 186 
215 4 119 112 23 328 
216 7 300 7 315 237 271 131 232 
217 5 68 261 313 311 22 
218 5 214 183 137 281 41 
219 7 283 69 71 63 169 116 299 
220 6 191 146 52 322 49 114 
221 7 132 212 42 56 207 20 209 
222 4 312 286 21 289 
223 5 267 278 298 24 322 
224 5 174 87 234 75 40 
225 7 96 153 46 54 159 138 102 
226 3 290 34 161 
227 7 81 128 131 315 7 271 208 
228 4 94 66 154 48 
229 5 163 171 288 91 41 
230 7 127 294 204 5 247 253 144 
231 6 301 235 258 259 18 310 
232 5 300 147 70 271 7 
233 5 213 166 197 27 190 
234 5 55 178 224 174 287 
235 5 301 258 231 244 5 
236 4 317 305 276 3 
237 4 325 216 300 30 
238 4 193 30 101 208 
239 4 165 306 92 62 
240 3 64 164 330 
241 6 203 26 272 90 78 304 
242 4 112 23 254 122 
243 5 260 257 326 254 8 
244 6 5 258 235 301 253 240 
245 3 33 316 111 
246 5 158 189 17 37 180 
247 5 144 57 204 230 294 
248 7 186 173 118 72 80 31 45 
249 5 134 210 44 136 273 
250 4 262 164 135 64 
251 3 276 317 3 
252 6 117 319 141 51 108 205 
253 5 5 294 244 258 235 
254 5 326 260 243 257 34 
255 2 295 24 
256 5 129 125 151 103 15 
257 5 260 243 326 254 34 
258 5 235 301 231 244 5 
259 6 274 18 310 74 231 330 
260 5 326 257 254 243 34 
261 5 313 217 22 311 68 
262 5 135 250 308 280 64 
263 4 277 15 264 60 
264 2 60 277 
265 5 14 67 270 11 314 
266 7 72 305 3 291 317 45 276 
267 3 278 223 24 
268 7 20 188 293 19 207 76 56 
269 1 37 
270 3 265 314 11 
271 7 7 70 300 147 232 131 216 
272 4 78 26 304 241 
273 5 44 66 94 228 295 
274 5 74 259 18 310 330 
275 4 304 318 26 272 
276 4 317 3 251 305 
277 4 264 60 263 15 
278 3 267 24 223 
279 6 292 16 82 323 113 19 
280 6 64 135 262 250 164 240 
281 6 16 82 137 201 149 218 
282 4 297 8 328 243 
283 7 69 219 71 116 63 169 53 
284 4 124 194 21 289 
285 6 208 130 227 238 315 30 
286 3 222 21 312 
287 6 55 147 70 271 232 234 
288 3 163 229 45 
289 7 194 21 124 222 284 312 286 
290 6 34 226 257 161 260 326 
291 7 45 266 72 186 3 305 317 
292 6 279 16 82 323 113 201 
293 7 207 20 76 268 221 132 188 
294 5 253 230 127 5 244 
295 4 255 296 9 307 
296 5 307 9 295 327 255 
297 3 282 8 328 
298 7 223 267 87 278 174 24 322 
299 6 25 63 118 31 219 173 
300 6 232 7 271 70 216 147 
301 6 235 258 231 18 259 244 
302 6 106 13 143 180 61 246 
303 5 14 67 68 265 217 
304 4 272 26 275 78 
305 7 3 317 266 72 276 236 251 
306 5 165 239 145 28 92 
307 6 9 296 327 295 146 203 
308 5 135 262 250 280 64 
309 7 182 58 192 6 176 126 4 
310 5 18 330 74 274 259 
311 6 22 324 261 217 313 68 
312 4 222 286 21 289 
313 5 261 217 22 68 311 
314 5 11 320 270 318 265 
315 7 131 216 7 227 271 300 81 
316 3 111 33 245 
317 6 3 276 305 251 266 236 
318 6 275 314 26 270 11 304 
319 7 51 205 252 117 103 108 141 
320 7 11 314 100 265 270 318 203 
321 7 59 85 73 97 83 46 102 
322 6 24 220 223 191 278 298 
323 6 82 201 16 292 194 279 
324 5 311 22 217 68 261 
325 4 237 101 30 216 
326 5 260 254 257 243 34 
327 7 307 9 203 296 100 146 241 
328 5 8 112 215 282 243 
329 2 171 41 
330 3 310 18 74 
DEPOT_SECTION
   1
   -1
EOF
