NAME :  X-n685-kX-w68-c9.cctp
COMMENT : 	Adapted by Maziero, Usberti and Cavellucci from the Uchoa, Pecin, Pessoa, Poggi, Subramanian, and Vidal (2013)
TYPE :  CCTP
DIMENSION :    416
EDGE_WEIGHT_TYPE : 	EUC_2D	
CAPACITY : 	408
VERTICES_WITHIN_COVERAGE :  9
VERTICES_WITH_DEMAND : 	68
NODE_COORD_SECTION
1 500 500
2 112 700
3 363 779
4 245 896
5 238 19
6 184 351
7 305 763
8 366 814
9 137 857
10 564 31
11 303 157
12 523 830
13 134 231
14 851 445
15 740 311
16 163 95
17 275 499
18 470 814
19 453 217
20 818 525
21 311 911
22 177 374
23 230 4
24 590 302
25 196 103
26 553 879
27 316 446
28 665 375
29 587 609
30 510 95
31 907 455
32 805 956
33 342 345
34 785 309
35 649 584
36 850 24
37 26 126
38 447 817
39 145 527
40 218 825
41 405 151
42 389 436
43 452 619
44 407 367
45 948 514
46 836 996
47 578 334
48 491 929
49 325 696
50 838 842
51 983 788
52 623 549
53 915 72
54 774 336
55 81 238
56 534 537
57 295 406
58 853 358
59 742 581
60 32 964
61 747 352
62 610 799
63 786 853
64 506 168
65 755 957
66 408 67
67 485 734
68 419 256
69 508 155
70 941 589
71 68 42
72 817 595
73 397 274
74 727 302
75 216 237
76 821 320
77 516 531
78 561 920
79 128 834
80 162 534
81 188 329
82 520 301
83 336 782
84 139 848
85 350 154
86 242 162
87 791 925
88 907 497
89 786 457
90 629 745
91 935 439
92 78 835
93 123 479
94 205 840
95 932 357
96 413 373
97 827 881
98 11 938
99 88 535
100 436 200
101 940 319
102 325 59
103 34 264
104 322 89
105 287 304
106 288 406
107 616 828
108 978 511
109 605 464
110 462 934
111 506 33
112 457 26
113 547 983
114 164 326
115 256 410
116 551 8
117 940 421
118 587 947
119 231 470
120 917 773
121 553 355
122 964 782
123 193 135
124 632 320
125 631 844
126 598 542
127 579 317
128 454 676
129 54 971
130 504 747
131 424 367
132 45 177
133 458 390
134 480 741
135 806 752
136 424 65
137 606 280
138 311 237
139 837 594
140 596 957
141 213 118
142 315 173
143 693 538
144 249 497
145 213 878
146 884 558
147 397 475
148 888 399
149 557 197
150 368 270
151 254 421
152 3 697
153 531 811
154 675 657
155 336 439
156 536 219
157 684 432
158 701 543
159 507 829
160 156 483
161 350 781
162 357 207
163 592 613
164 599 58
165 203 387
166 414 285
167 756 280
168 337 957
169 369 303
170 801 597
171 194 98
172 106 109
173 454 45
174 335 464
175 516 730
176 918 58
177 670 508
178 743 477
179 530 678
180 482 11
181 528 853
182 696 404
183 506 702
184 49 895
185 633 782
186 681 633
187 768 575
188 959 76
189 855 313
190 999 440
191 560 58
192 430 401
193 165 27
194 409 50
195 887 99
196 368 21
197 122 330
198 115 722
199 452 297
200 592 406
201 303 284
202 261 751
203 794 809
204 569 561
205 932 133
206 259 874
207 491 948
208 589 818
209 111 973
210 102 759
211 92 873
212 121 799
213 935 711
214 766 638
215 352 905
216 98 147
217 542 425
218 518 201
219 393 751
220 453 759
221 512 720
222 935 133
223 860 400
224 560 922
225 419 421
226 500 650
227 513 915
228 582 155
229 151 700
230 792 436
231 452 748
232 262 200
233 880 549
234 599 351
235 444 301
236 762 972
237 504 609
238 517 798
239 257 162
240 480 944
241 583 268
242 339 933
243 170 87
244 481 226
245 209 321
246 759 813
247 492 115
248 494 177
249 557 821
250 760 939
251 853 444
252 602 517
253 42 343
254 749 800
255 225 766
256 444 199
257 503 69
258 379 107
259 884 863
260 440 849
261 143 882
262 237 146
263 424 765
264 154 338
265 524 941
266 963 505
267 130 180
268 96 258
269 837 987
270 184 529
271 825 387
272 854 308
273 128 660
274 825 977
275 811 299
276 288 488
277 512 612
278 340 895
279 190 391
280 856 988
281 228 916
282 586 852
283 797 290
284 813 941
285 264 482
286 786 959
287 156 554
288 381 778
289 315 370
290 839 874
291 903 37
292 863 385
293 241 911
294 185 809
295 295 900
296 277 404
297 262 911
298 249 921
299 252 887
300 847 375
301 837 937
302 278 420
303 845 993
304 827 859
305 675 855
306 823 980
307 840 868
308 124 627
309 306 690
310 188 772
311 64 633
312 723 320
313 747 321
314 811 977
315 772 392
316 483 560
317 788 903
318 188 843
319 803 661
320 442 876
321 68 1000
322 824 38
323 245 799
324 413 463
325 387 439
326 740 294
327 620 52
328 311 662
329 374 838
330 415 801
331 697 421
332 869 423
333 986 838
334 835 34
335 262 908
336 775 275
337 266 522
338 814 34
339 797 997
340 733 971
341 167 491
342 762 878
343 280 739
344 822 1000
345 734 329
346 70 952
347 835 735
348 961 844
349 801 980
350 315 467
351 499 911
352 291 915
353 41 868
354 593 339
355 138 580
356 427 451
357 860 376
358 788 276
359 294 897
360 103 513
361 771 328
362 943 828
363 833 937
364 465 621
365 700 879
366 725 297
367 183 524
368 518 488
369 182 831
370 424 586
371 445 943
372 787 940
373 437 355
374 530 783
375 445 763
376 288 920
377 288 497
378 509 815
379 182 265
380 246 405
381 306 521
382 124 883
383 296 879
384 318 880
385 407 239
386 468 291
387 254 877
388 802 826
389 467 574
390 333 669
391 327 923
392 99 484
393 331 793
394 336 448
395 323 834
396 585 724
397 804 283
398 604 298
399 685 972
400 264 508
401 336 899
402 256 885
403 312 500
404 631 790
405 820 968
406 488 589
407 880 307
408 327 842
409 482 587
410 220 822
411 284 735
412 281 701
413 74 628
414 349 734
415 130 755
416 792 823
DEMAND_SECTION
2 8
3 25
4 36
5 83
6 63
7 3
8 15
9 47
10 21
11 54
12 87
13 94
14 22
15 31
16 78
17 71
18 32
19 60
20 87
21 31
22 53
23 76
24 23
25 93
26 56
27 72
28 44
29 92
30 23
31 48
32 87
33 70
34 27
35 72
36 9
37 64
38 6
39 40
40 19
41 68
42 52
43 41
44 57
45 94
46 73
47 10
48 6
49 31
50 87
51 70
52 71
53 32
54 3
55 94
56 67
57 98
58 3
59 97
60 31
61 25
62 94
63 87
64 9
65 66
66 56
67 13
68 65
69 1
COVERAGE_SECTION
2 7 198 229 273 415 210 308 413 
3 9 161 288 83 8 393 219 414 330 7 
4 9 299 293 402 335 387 297 298 206 281 
5 9 23 193 171 25 102 243 141 16 104 
6 8 81 22 114 264 245 279 165 197 
7 9 343 411 83 393 202 161 414 3 412 
8 9 329 3 161 288 393 83 395 408 330 
9 7 84 79 261 382 211 369 318 
10 8 116 191 164 111 327 257 30 180 
11 9 142 239 85 232 86 262 104 162 138 
12 9 159 153 378 181 238 249 374 18 26 
13 8 268 267 55 379 75 216 114 197 
14 9 251 332 223 31 148 230 292 271 89 
15 9 313 74 326 312 345 366 167 361 54 
16 9 243 171 25 123 141 172 193 216 262 
17 8 377 400 276 285 337 144 403 381 
18 9 38 378 159 260 238 12 330 375 220 
19 9 256 100 244 385 68 248 218 64 386 
20 9 233 72 187 139 146 170 89 14 251 
21 9 295 352 391 359 376 401 384 278 383 
22 7 279 6 165 264 81 114 245 
23 9 5 193 171 243 25 102 16 141 104 
24 9 398 127 137 47 241 354 124 234 121 
25 9 171 141 243 123 16 262 86 193 239 
26 9 181 78 282 224 227 12 249 351 159 
27 9 394 155 350 174 57 302 106 276 403 
28 8 182 331 157 124 234 200 312 354 
29 9 163 204 35 126 52 277 237 56 179 
30 9 247 257 69 111 191 64 173 10 248 
31 9 91 88 117 332 251 14 148 45 223 
32 8 284 286 405 314 349 372 274 306 
33 9 289 169 44 105 201 96 57 150 106 
34 7 283 361 275 54 397 358 336 
35 9 52 186 143 163 126 158 29 154 177 
36 4 334 322 338 291 
37 9 132 216 172 71 267 55 103 16 243 
38 9 18 260 330 375 263 220 320 159 378 
39 9 80 287 367 270 341 360 160 93 355 
40 9 410 94 318 369 294 323 145 255 310 
41 9 258 85 100 256 162 19 66 136 385 
42 7 325 225 324 147 356 155 192 
43 6 364 370 409 389 406 237 
44 9 96 131 373 192 225 133 33 42 169 
45 9 266 108 88 31 70 91 233 146 190 
46 8 269 303 344 306 274 280 314 405 
47 9 354 127 234 121 24 398 124 137 241 
48 9 207 240 351 227 110 265 371 224 78 
49 6 309 390 328 412 414 411 
50 9 304 307 290 388 97 416 259 63 203 
51 7 122 333 362 348 120 213 259 
52 9 126 252 35 204 177 29 143 163 158 
53 8 176 291 195 188 205 222 36 334 
54 9 361 34 61 313 345 15 76 283 275 
55 9 268 13 103 132 267 216 197 379 253 
56 9 77 204 368 316 126 406 252 409 389 
57 9 106 296 302 115 289 151 27 380 155 
58 9 300 357 292 271 223 189 76 272 148 
59 9 187 158 170 214 143 72 186 35 20 
60 9 129 98 346 321 184 209 353 211 382 
61 9 345 54 313 361 312 15 315 74 34 
62 9 404 208 185 107 125 90 249 282 396 
63 9 388 416 342 304 203 246 97 317 50 
64 9 69 248 218 247 149 156 244 256 19 
65 9 236 250 340 286 372 87 32 349 339 
66 9 136 194 258 173 196 112 102 41 104 
67 9 134 130 221 175 231 183 220 375 128 
68 9 385 73 166 235 19 150 199 100 386 
69 9 64 248 247 218 30 149 156 228 244 
70 8 146 233 45 108 266 88 139 213 
71 9 172 37 193 16 216 243 132 171 25 
72 9 170 139 187 214 319 20 59 146 233 
73 9 166 68 150 385 169 235 199 386 162 
74 7 366 326 15 312 313 345 167 
75 7 379 232 86 13 245 239 262 
76 6 275 189 272 34 283 397 
77 8 56 368 316 204 406 389 409 237 
78 9 224 118 26 265 227 140 351 113 48 
79 8 84 9 212 382 92 261 211 369 
80 7 39 287 270 367 341 160 355 
81 9 6 245 114 264 22 165 279 379 197 
82 8 386 127 121 47 199 24 241 235 
83 9 393 161 3 7 8 288 414 395 408 
84 8 9 79 261 382 369 318 212 211 
85 9 142 11 162 41 258 104 138 239 100 
86 8 239 262 232 141 123 11 142 25 
87 9 372 317 284 32 250 286 363 65 301 
88 9 31 45 266 233 91 146 108 14 251 
89 9 230 178 14 315 251 20 271 332 223 
90 8 185 404 396 62 208 107 125 154 
91 9 117 31 148 88 190 332 266 45 95 
92 8 211 79 353 212 84 9 382 184 
93 6 392 160 360 341 39 99 
94 6 318 40 410 369 294 145 
95 9 101 148 117 407 292 357 58 91 223 
96 9 44 131 373 192 133 225 42 325 33 
97 8 290 307 304 50 317 63 363 87 
98 9 60 129 184 346 353 321 211 209 92 
99 5 360 392 39 93 355 
100 9 256 19 385 244 41 68 248 64 162 
101 7 95 407 189 272 58 148 357 
102 9 104 196 258 66 194 5 85 136 11 
103 8 55 268 253 132 13 197 267 216 
104 9 102 258 11 85 196 142 66 194 239 
105 7 201 33 138 289 245 169 150 
106 8 57 296 302 115 151 380 289 27 
107 8 125 208 62 282 404 185 249 305 
108 9 266 45 88 190 91 70 31 117 146 
109 9 252 200 217 126 177 157 52 368 56 
110 9 371 240 48 207 351 227 320 265 260 
111 9 180 257 112 116 173 10 191 30 247 
112 9 173 180 111 136 194 257 66 30 196 
113 8 265 118 140 224 78 207 227 48 
114 9 264 81 6 197 245 22 379 279 165 
115 7 151 380 296 302 106 57 165 
116 8 10 111 191 164 180 257 327 30 
117 9 91 31 148 190 95 332 88 223 292 
118 7 140 78 224 113 265 26 227 
119 5 144 285 400 17 151 
120 9 122 362 213 51 348 347 333 259 50 
121 9 47 354 127 234 82 200 24 217 398 
122 8 51 120 362 333 348 213 259 347 
123 9 141 25 171 262 16 243 86 239 267 
124 8 398 354 234 24 137 127 47 28 
125 8 107 305 282 208 62 404 185 249 
126 9 252 52 204 56 35 29 163 109 177 
127 9 47 24 354 398 234 121 137 241 124 
128 7 226 364 43 183 67 134 231 
129 9 60 346 321 98 209 184 353 211 382 
130 9 175 67 134 221 374 183 220 231 238 
131 9 96 44 373 192 133 225 235 199 42 
132 9 37 216 55 267 103 172 268 13 71 
133 9 192 131 373 96 225 44 356 42 324 
134 9 67 130 231 220 175 221 375 183 263 
135 8 347 203 416 388 254 246 319 50 
136 9 66 194 173 112 258 196 180 257 247 
137 7 398 241 24 127 124 354 47 
138 7 201 162 232 142 150 105 11 
139 8 72 170 146 233 20 187 319 214 
140 7 118 224 78 113 265 26 399 
141 9 25 123 171 262 86 243 16 239 232 
142 8 11 85 162 232 239 138 86 262 
143 9 158 177 35 59 52 178 187 252 126 
144 7 400 285 17 337 119 377 276 
145 5 4 94 299 281 387 
146 9 233 139 70 88 20 72 45 170 266 
147 4 324 325 356 42 
148 9 223 292 332 357 300 58 117 251 14 
149 6 156 218 228 64 69 248 
150 9 73 169 166 385 68 162 138 201 33 
151 7 115 380 302 296 106 57 119 
152 5 311 413 2 198 210 
153 9 238 12 378 249 374 159 181 208 18 
154 9 186 35 214 163 90 29 59 396 158 
155 8 394 27 174 350 325 42 57 106 
156 6 218 149 244 64 248 241 
157 9 331 182 28 178 177 109 200 315 61 
158 9 143 177 59 35 187 52 178 186 252 
159 9 378 12 153 181 238 18 249 374 38 
160 4 341 93 39 367 
161 9 3 83 393 288 8 414 7 219 395 
162 9 85 142 138 385 150 11 41 73 68 
163 9 29 204 35 52 126 277 237 179 186 
164 4 327 191 10 116 
165 6 279 22 6 380 115 81 
166 9 73 68 235 199 385 150 169 386 373 
167 6 336 326 358 15 366 74 
168 4 242 391 21 215 
169 9 150 73 166 33 68 201 44 385 235 
170 9 72 139 187 214 59 319 20 146 233 
171 9 25 243 141 16 123 262 193 86 172 
172 9 216 16 243 267 71 37 171 25 123 
173 9 112 136 180 194 66 111 257 30 247 
174 6 394 350 155 27 403 276 
175 9 221 130 183 67 134 179 374 231 238 
176 8 53 291 188 195 36 205 222 334 
177 9 143 158 52 252 157 109 35 178 126 
178 9 89 230 331 157 158 143 177 182 20 
179 9 183 226 221 175 277 67 396 130 237 
180 9 112 111 173 257 116 136 194 10 30 
181 9 12 159 26 153 378 249 238 282 227 
182 9 331 157 28 61 315 345 178 312 313 
183 9 221 175 179 67 130 134 226 128 231 
184 9 353 211 98 346 92 60 129 382 261 
185 8 404 62 90 107 208 125 396 282 
186 9 154 35 59 214 163 158 143 29 52 
187 9 59 170 72 214 20 139 158 143 319 
188 6 53 176 222 205 291 195 
189 5 272 407 76 58 275 
190 9 117 91 108 266 45 31 95 88 148 
191 7 10 164 116 257 111 327 30 
192 9 225 133 96 131 44 373 356 42 325 
193 9 243 16 23 5 171 25 71 172 141 
194 9 66 136 173 196 112 258 180 102 104 
195 5 53 176 205 222 291 
196 9 194 102 66 136 104 258 112 173 180 
197 9 264 114 6 81 22 268 253 245 379 
198 6 2 415 210 229 273 212 
199 8 235 386 166 68 73 373 82 385 
200 9 217 234 109 121 354 47 28 127 124 
201 7 105 138 150 169 33 289 232 
202 6 343 411 255 7 323 412 
203 9 416 388 246 63 254 50 135 304 307 
204 9 126 56 29 52 252 163 77 277 237 
205 5 222 195 53 188 176 
206 8 387 402 299 4 335 297 383 293 
207 9 240 48 110 265 351 227 371 113 224 
208 9 62 107 249 282 125 404 185 153 12 
209 6 346 321 129 60 382 261 
210 7 415 198 212 2 229 79 92 
211 9 382 92 9 184 353 261 79 84 212 
212 8 79 210 415 84 92 9 294 369 
213 7 120 122 51 347 362 70 135 
214 8 319 170 59 187 72 139 186 154 
215 5 278 401 242 391 21 
216 9 172 267 132 37 16 13 55 243 123 
217 9 200 368 121 109 133 234 47 354 77 
218 7 156 248 64 149 244 69 19 
219 9 288 263 3 414 161 375 330 231 220 
220 9 375 231 263 134 67 130 330 18 38 
221 9 175 183 130 67 134 179 231 374 220 
222 5 205 195 188 53 176 
223 9 292 357 332 148 300 271 58 251 14 
224 9 78 118 265 26 227 140 113 351 48 
225 9 192 356 42 325 324 96 133 131 44 
226 9 277 179 237 364 183 128 43 406 409 
227 9 351 48 265 207 240 78 224 26 110 
228 3 149 69 64 
229 5 2 198 273 415 210 
230 9 89 315 271 14 251 178 223 332 300 
231 9 220 375 134 263 67 130 219 330 175 
232 7 239 86 11 75 142 262 138 
233 9 146 88 139 20 70 45 72 170 266 
234 9 354 47 127 124 121 24 398 200 28 
235 9 199 386 166 68 73 373 131 385 169 
236 9 65 286 340 250 349 372 339 32 314 
237 9 277 406 409 226 364 389 43 316 179 
238 9 153 378 374 12 159 249 18 130 181 
239 7 86 262 232 11 142 141 123 
240 9 207 48 110 371 351 227 265 113 320 
241 6 137 24 398 127 47 156 
242 5 391 168 215 401 21 
243 9 16 171 25 123 141 193 172 262 216 
244 8 19 218 256 248 100 156 64 386 
245 8 81 6 114 264 22 379 165 279 
246 8 254 416 203 388 63 342 135 304 
247 9 30 69 257 64 248 173 111 136 191 
248 9 64 69 218 244 256 19 156 100 247 
249 9 153 208 12 282 181 238 374 378 159 
250 9 65 372 236 286 87 340 317 32 284 
251 9 14 332 223 31 148 292 230 271 89 
252 9 126 52 109 204 177 56 35 77 368 
253 6 103 197 268 55 264 114 
254 8 246 203 416 388 63 135 342 305 
255 6 310 202 323 410 40 294 
256 9 100 19 244 385 248 41 68 64 218 
257 9 30 111 247 173 191 180 112 10 116 
258 9 66 41 85 104 136 194 102 196 11 
259 6 307 290 50 304 97 362 
260 9 320 38 18 330 329 159 378 8 12 
261 5 382 9 84 79 211 
262 8 86 239 141 123 25 232 171 11 
263 9 375 220 231 219 330 288 38 134 3 
264 9 114 6 197 81 22 245 279 165 379 
265 9 227 207 48 351 224 78 240 113 110 
266 9 108 45 88 91 190 31 70 117 233 
267 9 216 13 172 55 123 132 268 16 379 
268 9 55 13 103 197 267 379 114 132 264 
269 8 46 303 274 306 280 344 405 314 
270 6 367 80 287 39 341 160 
271 9 300 223 357 292 58 315 332 230 14 
272 5 189 407 76 275 58 
273 6 308 2 229 198 413 311 
274 8 306 405 314 269 46 344 349 303 
275 5 283 397 76 34 358 
276 9 377 17 285 403 400 350 381 144 337 
277 9 237 406 409 226 364 389 43 316 179 
278 5 401 215 384 391 21 
279 5 165 22 6 380 81 
280 5 303 269 46 274 306 
281 5 293 298 4 297 335 
282 9 208 107 249 26 125 62 181 12 153 
283 5 397 275 358 34 336 
284 8 32 363 301 372 87 405 286 314 
285 9 17 144 276 400 377 119 337 403 350 
286 9 32 372 349 236 65 314 284 250 87 
287 5 80 39 355 270 367 
288 9 3 219 161 8 330 83 263 393 414 
289 9 33 57 106 296 302 115 105 155 27 
290 8 307 97 304 50 259 63 317 388 
291 8 176 53 36 195 188 334 322 338 
292 9 357 223 300 58 148 271 332 251 14 
293 6 298 281 4 297 335 299 
294 8 369 318 40 94 310 410 255 84 
295 8 359 352 21 376 383 384 335 297 
296 8 106 302 57 115 151 380 289 27 
297 7 335 298 293 4 299 402 376 
298 5 293 297 335 281 4 
299 8 402 387 4 206 335 293 297 298 
300 9 357 58 292 271 223 148 332 76 189 
301 5 363 284 405 32 274 
302 8 296 106 57 115 151 380 27 350 
303 7 46 269 280 344 274 306 405 
304 9 307 290 50 97 63 388 416 259 317 
305 7 365 125 107 404 185 62 282 
306 8 274 314 405 269 344 46 349 303 
307 8 290 304 97 50 259 63 388 317 
308 5 273 355 413 311 2 
309 4 49 412 328 390 
310 6 255 294 369 410 415 40 
311 4 413 308 273 2 
312 8 345 74 15 366 313 326 61 361 
313 9 15 345 312 361 74 326 54 61 366 
314 9 349 306 405 274 32 339 344 269 46 
315 9 61 230 271 54 361 89 345 313 182 
316 7 389 409 406 77 237 56 277 
317 9 87 342 372 97 284 250 63 32 286 
318 6 369 94 294 40 410 145 
319 8 214 170 72 139 347 135 187 59 
320 9 260 38 110 351 371 18 48 240 329 
321 8 129 346 60 209 98 184 211 382 
322 3 338 334 36 
323 7 410 40 255 202 94 294 310 
324 5 356 147 325 42 225 
325 7 42 324 147 225 356 155 394 
326 8 74 366 15 167 313 312 345 336 
327 2 164 10 
328 3 390 309 49 
329 7 8 408 395 330 3 288 161 
330 9 38 263 288 375 8 260 219 329 3 
331 9 157 182 28 178 315 61 177 89 230 
332 9 223 251 14 148 292 357 31 300 271 
333 6 348 362 51 122 120 259 
334 3 322 36 338 
335 7 297 298 4 293 299 402 376 
336 5 358 167 283 397 34 
337 7 400 17 144 377 276 285 381 
338 3 322 334 36 
339 9 349 314 344 306 274 405 46 286 269 
340 9 65 236 250 399 286 372 339 349 32 
341 6 160 367 39 270 80 93 
342 9 63 317 87 250 365 416 97 246 388 
343 7 411 202 7 412 309 255 49 
344 9 46 269 306 274 303 314 339 349 405 
345 9 312 313 15 61 74 366 326 361 54 
346 9 129 60 209 321 98 184 211 382 353 
347 8 135 319 203 120 388 416 213 50 
348 6 362 333 51 122 259 120 
349 9 314 339 306 405 32 274 286 344 269 
350 7 174 27 394 403 276 155 377 
351 9 227 48 207 240 265 110 224 26 78 
352 8 376 295 359 21 297 335 383 391 
353 9 184 92 211 98 382 346 79 60 9 
354 9 234 47 127 24 398 121 124 137 200 
355 4 287 308 80 39 
356 6 324 225 147 42 325 192 
357 9 292 300 58 223 148 271 332 189 76 
358 5 336 283 397 167 34 
359 8 295 352 383 21 376 384 335 297 
360 8 99 392 93 39 160 80 287 341 
361 9 54 34 313 61 15 345 283 326 275 
362 7 348 333 122 51 120 259 50 
363 5 301 284 32 405 274 
364 9 43 409 406 237 226 389 277 370 128 
365 6 305 342 125 250 246 63 
366 7 74 326 15 312 313 345 167 
367 6 270 80 341 39 287 160 
368 7 77 56 217 316 204 252 109 
369 7 318 294 94 40 410 84 9 
370 2 43 389 
371 8 110 240 207 48 351 320 227 265 
372 9 87 286 32 284 250 65 317 236 349 
373 9 131 96 44 133 192 235 199 225 386 
374 9 238 153 378 130 249 12 159 175 134 
375 9 220 231 263 134 330 67 219 38 18 
376 6 352 295 359 21 297 335 
377 8 276 17 403 400 285 381 337 144 
378 9 159 238 12 153 374 18 181 249 38 
379 8 75 13 245 81 114 264 6 268 
380 7 115 151 296 302 106 165 57 
381 4 403 377 17 276 
382 6 261 9 211 84 79 92 
383 7 359 295 384 21 352 206 402 
384 6 383 401 278 359 295 21 
385 9 68 73 166 100 150 19 256 162 235 
386 8 199 235 82 166 68 244 373 73 
387 8 206 402 299 4 335 297 293 145 
388 9 416 203 63 50 304 246 307 254 97 
389 8 409 316 406 370 43 364 237 277 
390 3 328 49 309 
391 6 242 21 401 215 278 168 
392 5 93 360 99 160 39 
393 9 83 161 3 7 8 395 408 288 329 
394 6 155 174 27 350 325 42 
395 4 408 393 384 8 
396 9 90 175 179 221 185 62 404 374 183 
397 5 283 275 358 336 34 
398 8 24 137 127 124 241 354 47 234 
399 7 340 65 236 250 140 365 118 
400 7 17 337 144 285 377 276 381 
401 6 278 215 384 391 21 242 
402 8 299 387 206 4 335 297 293 298 
403 6 381 377 276 350 17 174 
404 8 185 62 107 90 208 125 282 305 
405 8 274 306 314 32 349 269 284 46 
406 8 409 237 389 316 277 364 43 226 
407 5 189 272 58 76 101 
408 4 395 384 329 8 
409 8 406 389 316 237 364 277 43 370 
410 9 40 94 323 294 318 369 145 255 310 
411 7 343 202 412 7 309 49 414 
412 5 309 411 343 49 328 
413 5 311 308 273 355 2 
414 9 49 3 161 219 83 7 288 309 393 
415 7 210 198 212 2 229 310 294 
416 9 388 203 63 246 254 50 304 342 307 
DEPOT_SECTION
   1
   -1
EOF
