NAME :  X-n627-kX-w250-c11.cctp
COMMENT : 	Adapted by Maziero, Usberti and Cavellucci from the Uchoa, Pecin, Pessoa, Poggi, Subramanian, and Vidal (2013)
TYPE :  CCTP
DIMENSION :    627
EDGE_WEIGHT_TYPE : 	EUC_2D	
CAPACITY : 	110
VERTICES_WITHIN_COVERAGE :  11
VERTICES_WITH_DEMAND : 	250
NODE_COORD_SECTION
1 0 0
2 816 981
3 349 338
4 22 205
5 385 344
6 913 54
7 410 410
8 108 298
9 280 512
10 335 312
11 155 336
12 64 98
13 64 184
14 874 922
15 513 345
16 516 316
17 403 276
18 407 310
19 161 312
20 931 13
21 371 380
22 460 357
23 455 345
24 796 940
25 811 111
26 360 338
27 932 60
28 803 989
29 882 959
30 2 58
31 740 917
32 939 22
33 53 202
34 360 409
35 802 863
36 326 268
37 565 473
38 828 21
39 311 537
40 868 36
41 2 246
42 243 431
43 58 191
44 756 985
45 900 104
46 281 633
47 42 237
48 771 961
49 290 453
50 289 346
51 27 123
52 16 181
53 960 960
54 457 383
55 759 856
56 10 179
57 62 165
58 297 197
59 2 151
60 491 292
61 124 102
62 536 441
63 374 246
64 778 976
65 854 959
66 740 836
67 26 238
68 875 125
69 935 116
70 255 411
71 313 340
72 91 159
73 369 362
74 341 352
75 363 286
76 366 242
77 832 961
78 443 397
79 863 999
80 944 188
81 866 933
82 644 495
83 59 233
84 890 960
85 373 308
86 73 84
87 467 337
88 291 307
89 657 858
90 394 290
91 273 161
92 288 89
93 354 274
94 456 206
95 421 275
96 476 325
97 447 183
98 320 282
99 768 854
100 355 447
101 415 250
102 941 48
103 432 303
104 834 982
105 814 93
106 930 930
107 562 465
108 430 495
109 450 472
110 417 234
111 25 204
112 260 351
113 441 312
114 957 1
115 837 881
116 921 27
117 452 219
118 781 931
119 308 258
120 354 393
121 879 40
122 272 230
123 162 158
124 19 284
125 361 273
126 392 255
127 53 201
128 395 97
129 468 176
130 330 293
131 353 383
132 318 435
133 252 364
134 603 555
135 134 280
136 865 985
137 343 194
138 110 159
139 355 341
140 437 439
141 26 137
142 801 157
143 547 92
144 369 319
145 749 958
146 298 337
147 799 21
148 430 307
149 273 556
150 246 342
151 805 824
152 324 354
153 906 80
154 513 397
155 321 107
156 350 280
157 957 194
158 954 4
159 36 314
160 293 397
161 227 279
162 926 68
163 407 307
164 5 137
165 793 990
166 26 198
167 34 187
168 134 405
169 371 329
170 44 181
171 79 470
172 869 855
173 918 112
174 916 33
175 789 126
176 391 378
177 427 333
178 760 921
179 384 472
180 229 348
181 120 223
182 120 308
183 86 28
184 933 368
185 63 146
186 897 138
187 258 514
188 677 899
189 881 94
190 724 977
191 405 288
192 852 955
193 461 318
194 311 501
195 574 343
196 911 215
197 943 0
198 690 419
199 328 441
200 448 250
201 309 266
202 907 187
203 336 466
204 836 977
205 22 201
206 543 274
207 336 367
208 316 400
209 348 311
210 404 378
211 378 494
212 267 320
213 53 262
214 215 420
215 329 385
216 219 291
217 648 516
218 111 262
219 366 374
220 355 614
221 890 41
222 344 440
223 393 390
224 97 418
225 125 26
226 419 399
227 348 354
228 370 191
229 446 504
230 319 378
231 984 34
232 76 237
233 239 411
234 842 116
235 496 310
236 866 137
237 140 371
238 502 399
239 381 451
240 811 953
241 374 380
242 809 959
243 285 434
244 47 224
245 858 950
246 8 298
247 380 340
248 931 185
249 977 994
250 400 343
251 375 245
252 882 1
253 819 990
254 443 296
255 2 162
256 13 130
257 44 243
258 869 131
259 150 210
260 937 139
261 372 329
262 408 231
263 65 244
264 440 468
265 382 359
266 937 219
267 407 321
268 351 381
269 27 222
270 406 421
271 122 147
272 850 64
273 31 228
274 591 348
275 356 366
276 107 207
277 252 334
278 306 365
279 410 335
280 103 110
281 303 286
282 207 95
283 838 999
284 421 235
285 348 366
286 19 168
287 75 177
288 377 321
289 577 203
290 352 210
291 417 359
292 896 18
293 302 396
294 996 984
295 505 582
296 924 883
297 337 321
298 382 299
299 407 366
300 828 893
301 399 477
302 935 73
303 360 355
304 343 300
305 388 223
306 346 202
307 364 182
308 829 993
309 953 97
310 498 325
311 435 300
312 485 428
313 846 988
314 322 244
315 52 206
316 841 933
317 363 131
318 342 397
319 826 808
320 318 307
321 278 284
322 302 337
323 50 202
324 536 328
325 895 57
326 360 244
327 652 883
328 49 173
329 118 114
330 399 248
331 189 460
332 409 509
333 322 430
334 446 249
335 313 138
336 299 252
337 998 981
338 998 88
339 856 102
340 402 396
341 895 90
342 780 109
343 476 361
344 348 349
345 916 243
346 35 140
347 784 14
348 71 185
349 633 953
350 262 285
351 124 396
352 396 304
353 32 168
354 677 971
355 304 292
356 529 293
357 46 150
358 351 250
359 288 195
360 897 61
361 85 90
362 272 364
363 997 91
364 941 143
365 285 275
366 67 257
367 854 89
368 385 398
369 909 58
370 777 868
371 243 125
372 515 327
373 798 946
374 290 418
375 722 954
376 289 296
377 863 67
378 429 362
379 347 427
380 813 906
381 963 76
382 305 467
383 136 630
384 920 788
385 351 404
386 823 36
387 645 99
388 311 377
389 441 411
390 445 649
391 347 348
392 323 299
393 423 376
394 834 952
395 419 416
396 398 349
397 70 197
398 96 330
399 43 363
400 875 131
401 392 351
402 778 723
403 26 151
404 485 222
405 346 321
406 848 43
407 874 98
408 213 413
409 887 131
410 988 37
411 385 360
412 309 171
413 49 285
414 220 333
415 865 920
416 403 458
417 405 304
418 766 965
419 850 830
420 952 43
421 256 299
422 640 291
423 47 217
424 270 427
425 779 916
426 355 366
427 331 528
428 430 373
429 487 494
430 327 382
431 3 275
432 344 355
433 0 105
434 170 217
435 884 90
436 868 958
437 389 384
438 94 520
439 94 142
440 46 121
441 318 448
442 403 257
443 438 261
444 6 148
445 781 928
446 457 450
447 311 368
448 149 200
449 768 997
450 561 419
451 280 374
452 69 250
453 787 222
454 330 372
455 353 232
456 425 377
457 953 32
458 110 233
459 895 967
460 424 409
461 499 588
462 344 276
463 700 832
464 877 107
465 782 509
466 149 217
467 283 201
468 766 889
469 889 134
470 810 943
471 398 280
472 834 128
473 358 396
474 294 288
475 264 261
476 346 378
477 815 72
478 205 175
479 395 280
480 784 936
481 328 253
482 787 920
483 379 331
484 53 234
485 956 44
486 195 21
487 337 167
488 227 387
489 400 74
490 208 210
491 794 979
492 884 38
493 902 49
494 893 98
495 189 50
496 309 370
497 991 62
498 878 892
499 606 192
500 574 221
501 344 428
502 386 307
503 29 101
504 325 448
505 376 335
506 361 337
507 931 30
508 792 925
509 950 153
510 436 505
511 393 357
512 256 360
513 427 189
514 136 317
515 980 141
516 326 470
517 525 338
518 883 917
519 966 45
520 32 278
521 488 237
522 712 837
523 384 238
524 926 69
525 235 266
526 431 283
527 378 355
528 410 382
529 24 200
530 387 230
531 718 776
532 51 285
533 685 118
534 862 957
535 812 961
536 398 241
537 753 310
538 73 228
539 296 416
540 448 182
541 50 182
542 376 299
543 321 412
544 381 217
545 748 837
546 991 52
547 356 228
548 272 370
549 443 185
550 67 270
551 329 300
552 19 390
553 491 312
554 868 921
555 415 429
556 134 208
557 322 188
558 28 250
559 435 250
560 395 457
561 141 6
562 95 42
563 872 967
564 339 194
565 551 270
566 432 301
567 776 954
568 291 587
569 407 322
570 396 397
571 748 95
572 299 475
573 890 96
574 376 371
575 976 29
576 350 359
577 71 182
578 387 212
579 211 225
580 260 316
581 416 322
582 389 357
583 363 340
584 29 117
585 820 993
586 819 22
587 402 389
588 900 36
589 11 250
590 967 69
591 431 139
592 69 240
593 460 406
594 944 25
595 577 500
596 900 107
597 34 159
598 308 302
599 944 17
600 399 309
601 88 63
602 790 931
603 859 799
604 243 279
605 216 170
606 273 257
607 425 192
608 889 46
609 946 41
610 747 992
611 898 841
612 651 874
613 317 336
614 668 404
615 297 284
616 985 734
617 354 332
618 547 464
619 909 137
620 467 326
621 82 238
622 22 204
623 382 468
624 272 446
625 691 77
626 157 302
627 579 173
DEMAND_SECTION
2 5
3 8
4 8
5 7
6 5
7 9
8 5
9 5
10 9
11 9
12 7
13 5
14 10
15 8
16 10
17 5
18 5
19 8
20 7
21 10
22 9
23 9
24 8
25 6
26 9
27 7
28 10
29 6
30 9
31 9
32 10
33 7
34 7
35 6
36 7
37 6
38 5
39 9
40 7
41 6
42 7
43 7
44 9
45 7
46 6
47 6
48 6
49 6
50 9
51 7
52 6
53 7
54 6
55 5
56 10
57 5
58 8
59 8
60 5
61 5
62 9
63 10
64 6
65 7
66 6
67 8
68 10
69 7
70 6
71 7
72 6
73 8
74 8
75 9
76 10
77 10
78 10
79 6
80 9
81 10
82 5
83 6
84 10
85 9
86 8
87 8
88 7
89 5
90 8
91 7
92 7
93 10
94 10
95 8
96 7
97 5
98 5
99 7
100 6
101 10
102 7
103 5
104 8
105 8
106 8
107 10
108 7
109 6
110 10
111 10
112 8
113 8
114 7
115 5
116 10
117 5
118 6
119 9
120 9
121 7
122 5
123 10
124 8
125 9
126 6
127 5
128 8
129 6
130 5
131 8
132 9
133 10
134 9
135 10
136 7
137 5
138 10
139 7
140 10
141 9
142 10
143 8
144 5
145 10
146 7
147 8
148 5
149 6
150 8
151 9
152 8
153 10
154 9
155 8
156 10
157 8
158 9
159 7
160 10
161 5
162 9
163 10
164 6
165 7
166 10
167 5
168 5
169 6
170 10
171 10
172 6
173 7
174 10
175 6
176 6
177 6
178 7
179 8
180 5
181 6
182 5
183 10
184 7
185 5
186 9
187 6
188 8
189 8
190 5
191 6
192 8
193 7
194 8
195 5
196 7
197 6
198 10
199 5
200 9
201 10
202 10
203 8
204 10
205 5
206 10
207 7
208 6
209 7
210 8
211 10
212 7
213 7
214 5
215 7
216 6
217 7
218 8
219 10
220 9
221 8
222 7
223 8
224 8
225 8
226 5
227 10
228 9
229 8
230 8
231 6
232 8
233 8
234 8
235 10
236 8
237 9
238 9
239 6
240 7
241 8
242 7
243 6
244 10
245 8
246 5
247 8
248 6
249 7
250 8
251 5
COVERAGE_SECTION
2 11 253 585 28 104 308 204 535 491 242 165 77 
3 11 139 617 391 26 344 506 583 74 227 405 432 
4 11 622 111 205 529 166 269 167 52 273 323 423 
5 11 247 401 505 527 396 483 582 250 265 511 411 
6 11 369 493 360 325 162 27 524 174 588 608 221 
7 11 395 270 226 460 340 570 555 587 223 368 528 
8 11 182 135 398 514 218 626 550 19 366 532 11 
9 11 187 194 39 572 149 382 427 49 516 624 203 
10 11 297 209 551 304 405 320 392 130 617 598 3 
11 11 19 514 626 237 182 398 8 135 414 351 168 
12 11 86 361 440 503 584 280 601 51 185 346 439 
13 11 348 577 43 287 397 541 57 328 127 170 33 
14 11 554 415 518 81 498 245 316 436 534 29 192 
15 11 517 372 310 16 324 235 343 553 96 87 620 
16 11 372 310 235 324 517 553 356 15 60 96 206 
17 11 471 479 191 90 95 442 126 330 417 101 352 
18 11 163 417 600 267 569 352 581 502 191 148 90 
19 11 626 11 514 182 135 8 216 237 414 398 218 
20 11 32 599 116 507 197 594 158 174 114 457 609 
21 11 241 219 574 73 131 437 176 268 120 275 426 
22 11 23 343 87 54 378 620 428 96 193 456 177 
23 11 22 87 620 343 193 96 177 378 113 54 428 
24 11 373 602 480 470 508 118 445 240 482 242 567 
25 11 105 175 472 234 342 477 339 142 367 236 258 
26 11 506 583 139 617 3 169 261 344 391 505 303 
27 11 162 524 302 102 6 369 609 420 485 507 174 
28 11 165 491 2 253 585 308 64 535 242 104 204 
29 11 84 563 436 459 534 245 65 192 81 136 14 
30 11 433 503 584 51 256 12 86 440 164 141 601 
31 11 178 468 425 375 145 445 118 482 480 567 602 
32 11 594 599 507 20 457 116 609 197 158 174 420 
33 11 127 323 315 43 423 397 541 13 170 244 167 
34 11 385 473 120 318 379 501 131 368 268 21 241 
35 11 370 99 115 151 300 55 380 468 419 425 482 
36 11 98 481 201 462 119 314 130 156 93 281 336 
37 11 107 618 595 62 450 429 82 134 154 312 217 
38 11 586 386 147 406 40 347 272 477 121 252 377 
39 11 427 194 9 149 568 187 572 516 382 203 211 
40 11 121 492 406 221 608 377 588 272 292 325 493 
41 11 589 67 558 431 273 269 47 124 257 520 4 
42 11 233 70 424 214 624 408 243 488 374 49 539 
43 11 13 127 33 541 397 323 348 315 577 170 328 
44 11 610 449 418 64 48 145 190 165 567 491 375 
45 11 596 494 573 341 173 189 435 464 153 407 409 
46 11 568 220 149 39 427 9 187 194 383 572 390 
47 11 257 484 244 273 67 83 558 269 423 263 213 
48 11 418 567 64 145 44 480 491 373 118 24 445 
49 11 624 243 382 572 441 132 424 374 504 539 333 
50 11 146 322 71 278 362 112 451 548 613 447 496 
51 11 584 141 256 346 440 503 164 403 433 357 444 
52 11 56 286 167 166 205 353 529 255 622 4 111 
53 11 249 106 294 337 459 84 29 296 518 563 436 
54 11 78 593 22 343 428 389 456 378 393 23 226 
55 11 99 370 545 66 468 35 522 151 425 31 463 
56 11 52 286 255 166 167 205 353 529 622 4 59 
57 11 328 287 13 185 577 541 348 357 170 43 597 
58 11 359 467 557 412 122 564 91 137 306 487 314 
59 11 444 255 164 256 286 403 141 56 52 597 353 
60 11 235 553 310 16 96 356 193 372 620 254 87 
61 11 329 280 361 271 439 601 86 138 12 72 562 
62 11 618 450 107 37 154 312 238 429 595 446 593 
63 11 251 76 523 326 126 530 358 330 455 536 547 
64 11 418 491 48 165 567 449 44 28 145 242 610 
65 11 192 534 245 436 563 394 77 204 29 136 81 
66 11 545 55 522 99 463 370 468 531 151 35 31 
67 11 273 558 47 269 257 589 41 244 484 423 4 
68 11 400 258 409 236 469 464 186 407 339 596 189 
69 11 173 260 309 364 619 596 45 509 302 186 153 
70 11 233 424 42 374 488 243 624 160 214 539 408 
71 11 613 322 146 152 50 278 447 74 496 297 320 
72 11 439 138 287 57 577 185 271 348 13 397 328 
73 11 303 527 574 219 265 275 426 411 21 241 576 
74 11 432 227 391 344 576 3 207 285 152 139 303 
75 11 125 156 93 542 462 298 85 304 209 90 502 
76 11 326 63 251 455 358 547 523 530 126 305 544 
77 11 394 204 535 104 192 65 240 242 2 245 470 
78 11 389 593 54 460 226 428 456 393 395 7 528 
79 11 136 313 283 563 104 204 308 65 436 534 585 
80 11 248 157 266 509 202 196 364 260 515 345 619 
81 11 554 415 14 245 518 534 316 436 192 65 29 
82 11 217 595 134 37 107 198 614 618 450 62 465 
83 11 484 592 263 244 538 47 232 257 423 452 621 
84 11 29 459 563 436 534 245 136 65 81 192 14 
85 11 542 144 298 502 288 169 261 352 75 483 209 
86 11 361 12 601 280 440 503 562 61 329 584 183 
87 11 620 23 96 193 22 343 310 553 113 177 235 
88 11 376 598 474 355 281 615 321 212 320 146 322 
89 11 612 327 188 463 522 66 545 349 31 55 531 
90 11 479 191 471 352 298 17 417 502 542 600 163 
91 11 359 412 467 58 335 371 557 605 487 122 478 
92 11 155 335 371 91 282 412 317 487 557 359 495 
93 11 125 156 462 75 358 304 36 130 326 481 542 
94 11 117 97 540 549 129 404 513 607 334 200 284 
95 11 526 17 191 443 471 442 101 479 566 311 559 
96 11 620 87 193 553 310 235 23 22 60 343 113 
97 11 540 549 513 129 607 94 117 591 404 284 110 
98 11 36 130 281 392 201 355 551 598 615 320 462 
99 11 55 370 545 66 35 468 151 522 425 178 31 
100 11 222 379 501 239 203 199 504 623 333 441 516 
101 11 442 110 284 330 536 262 559 126 443 95 17 
102 11 609 420 27 485 457 507 594 162 519 32 302 
103 11 566 148 311 113 254 526 163 581 18 417 95 
104 11 204 308 313 253 283 2 585 77 65 394 535 
105 11 25 477 234 342 367 472 175 339 272 377 386 
106 11 53 296 518 84 459 29 14 554 81 498 415 
107 11 37 618 62 595 450 429 154 312 82 238 134 
108 11 510 229 332 264 109 301 416 179 211 446 560 
109 11 264 446 108 229 140 510 429 416 301 332 555 
110 11 284 262 101 536 330 559 442 530 305 126 334 
111 11 4 622 205 529 166 269 167 52 273 323 423 
112 11 512 133 150 362 277 548 50 451 180 212 580 
113 11 148 103 311 566 254 193 177 581 620 526 18 
114 11 158 197 599 594 32 20 457 575 507 609 420 
115 11 300 380 35 172 498 415 554 316 419 14 518 
116 11 174 507 20 32 588 594 599 292 6 102 493 
117 11 94 200 334 404 284 549 559 97 540 110 607 
118 11 445 480 602 482 508 425 24 178 373 567 470 
119 11 201 336 314 36 481 98 281 615 365 474 355 
120 11 473 131 385 268 318 34 476 21 219 241 215 
121 11 492 221 40 608 588 325 493 292 360 377 406 
122 11 606 467 475 336 359 58 119 365 201 314 525 
123 11 271 448 478 138 259 605 556 434 466 329 61 
124 11 520 246 431 413 532 159 558 589 213 41 67 
125 11 93 75 156 462 358 326 63 542 76 251 304 
126 11 330 442 536 523 63 251 17 101 479 530 471 
127 11 33 323 315 43 397 423 541 13 170 167 244 
128 11 489 317 591 155 307 487 335 228 513 97 540 
129 11 540 97 549 94 513 117 607 404 591 521 284 
130 11 551 392 98 304 320 10 462 156 598 36 209 
131 11 268 476 120 473 219 275 426 21 285 318 241 
132 11 333 199 441 504 543 222 501 539 379 49 243 
133 11 512 112 362 548 150 180 277 451 488 50 414 
134 11 217 595 82 37 107 295 618 461 429 62 450 
135 11 218 182 8 626 514 19 458 181 11 398 466 
136 11 79 313 563 436 65 534 204 283 29 104 192 
137 11 564 306 290 557 307 228 487 547 455 412 544 
138 11 271 72 439 287 577 329 348 57 276 185 280 
139 11 26 3 506 583 617 344 391 227 303 74 432 
140 11 446 555 389 264 395 460 109 270 416 7 593 
141 11 346 51 403 256 584 164 444 597 357 440 59 
142 11 175 472 25 342 234 105 453 236 258 339 400 
143 11 627 387 129 289 499 591 500 540 97 533 549 
144 11 288 169 261 85 483 505 506 617 26 502 542 
145 11 418 48 375 567 44 190 64 610 178 480 31 
146 11 322 50 71 613 278 88 152 447 212 496 320 
147 11 347 586 386 38 477 406 272 40 105 377 121 
148 11 103 566 311 113 254 581 18 163 526 417 177 
149 11 568 39 9 187 427 194 46 572 382 220 516 
150 11 277 112 180 512 133 414 212 580 362 548 50 
151 11 319 35 419 99 370 55 545 603 115 66 172 
152 11 74 71 207 447 454 613 432 278 496 227 391 
153 11 341 360 369 494 162 524 573 435 45 325 6 
154 11 238 312 62 15 343 450 593 54 517 22 78 
155 11 335 92 317 487 412 91 128 371 557 307 489 
156 11 93 462 125 75 304 130 36 551 98 358 209 
157 11 80 248 266 509 202 196 364 515 260 345 619 
158 11 114 197 599 32 594 20 457 575 507 609 420 
159 11 246 413 532 124 520 399 431 550 213 398 558 
160 11 293 539 374 208 451 388 496 230 543 447 548 
161 11 216 525 604 421 350 475 580 321 606 414 579 
162 11 524 27 302 6 369 153 102 360 493 325 609 
163 11 18 417 600 352 267 569 581 191 90 502 148 
164 11 256 444 59 141 255 403 51 346 584 433 286 
165 11 28 491 64 2 253 449 585 242 535 48 308 
166 11 529 205 111 622 4 167 52 269 323 56 170 
167 11 170 166 529 541 205 52 111 353 328 622 4 
168 11 351 237 224 11 331 408 214 398 171 514 488 
169 11 261 483 505 144 288 506 26 247 583 617 139 
170 11 541 328 167 43 353 13 127 323 33 57 597 
171 11 438 224 168 351 552 331 399 237 398 214 408 
172 11 419 611 498 115 300 603 296 319 518 415 554 
173 11 69 596 45 619 494 341 573 186 260 153 409 
174 11 116 507 588 6 493 20 32 292 369 221 102 
175 11 342 25 142 105 472 571 234 477 339 367 236 
176 11 437 223 210 587 241 574 411 528 21 299 570 
177 11 581 279 267 569 113 148 291 250 378 18 23 
178 11 31 425 445 118 482 480 508 602 468 567 145 
179 11 623 301 560 239 211 416 100 332 203 108 222 
180 11 414 150 277 133 512 112 488 580 362 212 548 
181 11 458 276 556 466 259 448 218 621 232 538 434 
182 11 8 514 135 398 626 19 11 218 550 237 532 
183 11 562 601 225 86 561 361 12 61 280 30 329 
184 11 345 266 196 157 80 202 248 537 453 465 509 
185 11 357 57 346 328 440 72 439 597 287 403 577 
186 11 469 409 619 400 68 258 236 596 173 45 464 
187 11 9 149 194 572 39 382 49 624 427 568 516 
188 11 327 612 89 31 349 375 463 522 354 178 66 
189 11 435 407 573 494 464 341 45 596 339 367 153 
190 11 375 610 145 44 418 354 449 48 64 567 31 
191 11 90 471 17 479 417 352 163 95 18 600 298 
192 11 65 245 534 436 394 77 563 316 81 204 29 
193 11 620 96 87 113 23 254 553 311 103 148 566 
194 11 572 9 427 516 382 39 203 49 441 187 504 
195 11 274 324 517 15 372 16 356 206 450 565 310 
196 11 266 202 345 248 80 157 509 186 364 619 260 
197 11 158 114 599 20 32 594 507 457 116 609 174 
198 11 614 82 217 274 537 450 465 37 107 422 195 
199 11 504 132 441 333 222 501 379 203 100 516 543 
200 11 334 559 443 117 284 101 110 95 526 521 262 
201 11 119 36 336 98 281 615 481 314 355 365 474 
202 11 248 196 80 266 157 186 619 509 364 469 260 
203 11 516 504 441 199 100 222 382 132 572 333 501 
204 11 104 313 77 308 2 253 283 585 65 394 192 
205 11 529 622 4 111 166 167 52 269 56 273 323 
206 11 565 356 16 324 60 235 372 500 553 517 521 
207 11 454 285 432 476 74 576 430 152 227 215 426 
208 11 543 293 215 430 230 160 388 318 539 333 454 
209 11 405 304 10 297 144 551 617 85 130 3 392 
210 11 528 587 299 176 223 437 340 393 456 570 291 
211 11 179 623 301 332 560 239 416 203 100 108 516 
212 11 580 277 421 88 150 112 376 50 146 350 321 
213 11 366 550 452 257 263 413 532 520 47 592 484 
214 11 408 233 42 488 70 331 424 624 133 243 180 
215 11 430 230 454 318 476 207 208 388 268 131 447 
216 11 161 604 525 421 414 350 580 277 475 212 150 
217 11 82 134 595 37 107 198 614 618 450 465 62 
218 11 135 458 8 621 181 232 366 452 550 182 592 
219 11 21 241 574 73 275 426 131 268 285 303 476 
220 11 568 46 39 427 390 149 332 194 211 9 510 
221 11 608 492 121 588 493 325 360 40 292 369 6 
222 11 501 100 379 199 504 333 132 203 441 34 516 
223 11 437 570 587 340 368 176 210 528 241 21 574 
224 11 351 168 171 237 399 552 398 11 331 438 514 
225 11 561 562 183 601 495 486 361 61 86 280 329 
226 11 460 7 340 395 528 587 393 456 570 78 389 
227 11 432 344 576 391 74 285 303 275 426 139 3 
228 11 307 290 306 137 578 544 564 305 547 487 530 
229 11 510 108 109 264 332 429 301 446 416 140 211 
230 11 388 430 215 447 454 496 278 207 208 152 293 
231 11 410 575 546 519 497 485 457 420 590 609 594 
232 11 621 592 538 263 452 83 366 484 244 257 47 
233 11 70 42 214 408 488 424 624 133 243 374 548 
234 11 472 339 367 25 258 236 68 105 400 464 407 
235 11 553 310 60 16 96 372 620 193 356 15 87 
236 11 258 400 68 409 469 186 234 464 472 339 407 
237 11 351 168 11 514 398 19 224 182 626 8 408 
238 11 154 312 593 343 54 62 15 22 78 389 450 
239 11 560 623 179 416 100 301 222 270 555 379 211 
240 11 242 535 470 373 24 77 394 2 602 491 480 
241 11 21 574 219 437 176 73 131 223 368 265 268 
242 11 535 240 470 373 2 24 77 491 394 28 204 
243 11 374 424 624 49 539 132 441 333 70 160 382 
244 11 423 484 47 83 273 257 315 269 323 33 127 
245 11 192 534 65 436 81 563 316 394 29 77 415 
246 11 124 431 520 159 413 532 589 41 558 213 67 
247 11 5 505 483 169 261 527 401 583 265 288 506 
248 11 80 202 157 266 196 509 364 260 619 186 345 
249 11 294 337 53 106 459 84 29 563 136 79 436 
250 11 396 401 279 5 511 582 247 569 267 291 411 
251 11 63 76 523 326 530 126 536 330 358 547 305 
252 11 292 492 40 121 588 221 608 116 174 20 493 
253 11 585 2 308 28 104 204 283 165 313 491 535 
254 11 311 566 103 113 148 526 193 95 443 581 163 
255 11 59 444 286 56 52 164 403 353 597 256 141 
256 11 164 141 51 444 584 59 346 403 433 503 255 
257 11 47 484 558 83 67 244 273 213 263 592 423 
258 11 400 236 68 409 469 464 186 234 339 407 472 
259 11 466 448 556 434 181 276 458 123 490 579 138 
260 11 364 509 69 619 173 186 515 309 248 469 80 
261 11 169 483 505 288 144 247 506 583 26 617 5 
262 11 110 284 536 330 101 530 305 523 442 578 126 
263 11 592 452 83 232 366 484 538 621 257 213 47 
264 11 109 446 108 140 229 510 416 301 555 560 332 
265 11 411 527 582 511 73 401 574 5 247 396 176 
266 11 196 80 157 345 248 202 509 364 260 619 515 
267 11 569 581 18 163 279 600 417 352 177 250 502 
268 11 131 476 120 285 275 426 219 473 318 21 207 
269 11 273 67 4 111 622 244 47 423 205 529 166 
270 11 7 555 395 460 340 226 570 368 587 223 140 
271 11 138 439 72 329 123 280 61 287 185 448 276 
272 11 377 406 367 40 477 121 339 386 407 189 435 
273 11 269 67 47 244 423 257 558 484 4 111 622 
274 11 195 324 517 422 450 15 372 16 356 206 565 
275 11 426 285 576 303 219 73 227 268 432 476 131 
276 11 181 458 556 397 538 621 348 232 259 448 466 
277 11 150 112 580 212 512 180 133 414 421 362 50 
278 11 447 496 388 230 152 50 454 71 430 322 451 
279 11 250 569 267 581 177 396 401 18 291 5 163 
280 11 329 61 361 439 86 12 271 138 601 72 185 
281 11 355 615 474 98 376 598 201 365 88 392 321 
282 11 371 495 486 605 123 478 92 61 329 91 271 
283 11 308 313 104 585 253 204 79 2 136 28 77 
284 11 110 262 101 559 536 330 442 334 200 443 530 
285 11 426 576 275 207 227 432 476 268 74 303 344 
286 11 52 353 56 597 255 403 59 167 444 170 328 
287 11 577 348 13 57 397 43 72 541 328 170 33 
288 11 144 261 169 483 85 505 502 247 542 298 506 
289 11 500 627 499 565 206 404 521 356 422 129 143 
290 11 306 137 547 564 455 228 307 544 76 326 578 
291 11 299 378 393 428 456 396 210 250 511 528 279 
292 11 588 252 492 221 174 116 121 608 493 40 20 
293 11 160 208 388 539 230 374 543 496 215 430 447 
294 11 337 249 53 106 459 84 29 296 563 136 436 
295 11 461 390 429 229 134 510 595 108 332 109 37 
296 11 106 498 611 518 172 14 554 415 81 84 53 
297 11 10 405 209 617 3 304 551 320 613 392 139 
298 11 542 502 85 90 352 600 75 288 479 144 417 
299 11 210 291 528 511 393 396 176 582 401 456 378 
300 11 115 380 35 316 415 508 482 554 498 470 14 
301 11 179 416 623 560 211 239 332 108 264 510 109 
302 11 162 524 27 102 381 6 153 309 369 590 420 
303 11 73 576 227 275 426 344 139 391 583 285 432 
304 11 209 10 551 130 392 156 405 297 75 462 320 
305 11 530 544 578 523 536 262 251 63 330 76 110 
306 11 137 290 564 228 307 547 557 455 487 544 578 
307 11 228 137 306 564 290 487 578 544 557 547 305 
308 11 585 253 283 104 204 2 313 28 77 79 165 
309 11 381 69 302 590 173 524 162 27 363 260 338 
310 11 235 553 372 16 96 15 517 620 87 60 193 
311 11 566 103 148 254 113 526 95 163 581 18 417 
312 11 593 238 446 154 389 140 78 54 62 109 264 
313 11 104 283 204 308 136 79 585 253 65 77 2 
314 11 481 119 36 336 201 358 455 98 326 547 462 
315 11 33 323 127 423 43 244 397 541 13 167 170 
316 11 394 245 81 192 415 65 77 554 534 470 14 
317 11 487 128 155 335 307 228 137 412 564 489 591 
318 11 385 120 473 131 215 268 476 430 34 208 543 
319 11 151 419 603 35 172 99 115 370 611 55 545 
320 11 392 598 551 10 130 355 297 98 281 304 88 
321 11 365 350 376 474 615 281 88 355 421 475 606 
322 11 146 71 613 50 152 278 88 447 320 496 598 
323 11 33 127 315 43 423 541 397 167 170 244 13 
324 11 517 372 16 15 356 310 195 235 553 206 60 
325 11 360 493 608 369 221 6 492 588 121 153 174 
326 11 76 358 63 455 251 547 523 125 530 93 481 
327 11 612 89 188 463 349 522 354 31 66 375 545 
328 11 170 541 57 353 13 43 167 597 357 577 348 
329 11 61 280 271 439 361 138 72 86 12 601 123 
330 11 536 126 442 101 523 262 530 110 251 63 284 
331 11 214 408 42 233 168 70 488 624 424 187 351 
332 11 108 510 211 301 229 179 623 264 416 560 109 
333 11 132 199 441 504 543 501 222 379 539 208 374 
334 11 200 559 443 284 101 117 110 95 526 262 94 
335 11 155 412 487 91 317 557 92 58 359 564 137 
336 11 119 201 314 606 365 481 36 615 281 122 474 
337 11 294 249 53 106 459 84 29 296 563 436 518 
338 11 363 497 590 381 546 309 410 519 231 515 485 
339 11 367 407 234 464 189 68 435 258 472 400 573 
340 11 570 587 223 7 528 226 368 210 437 176 270 
341 11 494 573 435 45 153 189 596 407 464 360 173 
342 11 175 25 571 105 477 142 472 234 339 367 272 
343 11 22 23 87 54 96 620 15 310 193 238 378 
344 11 391 227 432 74 576 3 139 303 26 285 583 
345 11 196 266 202 248 80 157 509 364 260 619 186 
346 11 141 403 357 51 597 440 256 584 353 185 164 
347 11 147 586 38 386 477 406 272 105 40 571 342 
348 11 577 13 287 397 43 541 57 127 33 328 170 
349 11 354 188 327 612 375 190 89 31 145 610 44 
350 11 421 321 604 475 365 376 606 580 474 525 212 
351 11 168 237 224 11 398 514 171 399 182 331 408 
352 11 600 417 502 163 18 90 298 191 267 542 569 
353 11 597 286 170 328 403 167 52 357 541 56 346 
354 11 190 349 375 188 145 610 44 31 418 327 48 
355 11 281 474 598 615 376 98 88 392 320 365 130 
356 11 206 16 565 324 235 372 60 553 310 517 15 
357 11 346 597 185 403 57 328 353 141 440 170 286 
358 11 326 76 455 63 481 547 93 125 251 462 156 
359 11 467 58 412 557 91 122 564 137 487 306 336 
360 11 325 369 493 6 608 153 221 588 492 121 341 
361 11 86 12 280 601 61 329 562 440 439 503 185 
362 11 548 451 512 112 133 50 150 278 277 146 496 
363 11 338 497 381 590 546 309 515 410 519 231 485 
364 11 260 509 69 619 173 515 248 186 80 309 157 
365 11 321 615 474 281 376 606 350 355 475 201 336 
366 11 452 263 550 213 592 232 621 83 257 484 538 
367 11 339 407 377 272 189 464 234 435 573 105 494 
368 11 223 570 437 340 587 176 241 21 34 473 7 
369 11 6 493 360 325 162 524 153 27 608 588 221 
370 11 99 55 468 35 545 425 66 151 380 482 178 
371 11 91 282 605 92 478 335 155 412 359 467 123 
372 11 16 517 310 15 324 235 553 356 96 60 620 
373 11 24 470 240 242 480 602 535 508 118 567 445 
374 11 539 243 160 424 293 208 543 132 624 333 49 
375 11 190 145 31 418 610 44 354 48 178 567 64 
376 11 474 88 615 321 355 281 598 365 350 320 212 
377 11 272 367 406 40 121 435 189 407 608 325 360 
378 11 428 291 393 456 299 528 177 210 22 23 279 
379 11 501 222 34 100 385 199 333 132 318 504 543 
380 11 300 508 482 602 115 425 470 24 316 445 118 
381 11 590 309 302 497 519 485 27 420 102 338 363 
382 11 572 49 516 441 504 203 132 194 199 243 624 
383 11 438 46 149 568 187 171 331 9 39 224 194 
384 11 611 603 419 172 616 296 319 498 151 115 518 
385 11 34 120 318 473 131 268 379 501 476 215 21 
386 11 586 38 406 147 477 272 40 347 377 121 105 
387 11 533 625 143 627 499 571 289 342 500 175 347 
388 11 496 230 447 278 430 215 454 293 208 152 160 
389 11 78 460 593 395 226 140 7 54 555 270 456 
390 11 461 295 220 510 229 332 108 429 46 427 568 
391 11 344 227 74 432 3 139 576 303 26 617 285 
392 11 551 130 320 598 98 10 304 355 281 297 209 
393 11 456 428 528 378 291 210 299 226 587 78 340 
394 11 77 192 316 65 240 245 535 204 242 470 534 
395 11 460 7 270 555 226 389 340 140 570 78 587 
396 11 250 401 511 582 5 411 279 265 299 247 291 
397 11 348 43 13 577 127 33 315 287 323 541 423 
398 11 182 8 514 11 237 159 399 135 532 413 19 
399 11 552 159 398 246 224 413 532 124 520 351 8 
400 11 68 258 236 409 469 186 464 407 339 596 619 
401 11 396 511 582 5 250 411 265 527 247 299 505 
402 11 531 319 151 603 545 66 419 99 522 55 463 
403 11 597 141 346 286 353 357 444 59 164 256 255 
404 11 521 94 117 200 334 129 97 540 549 559 443 
405 11 297 209 10 617 3 304 26 139 506 144 583 
406 11 40 272 386 377 38 121 492 586 608 221 477 
407 11 189 464 435 573 339 494 341 367 45 68 596 
408 11 214 233 488 42 70 331 424 133 180 512 624 
409 11 469 186 400 68 258 236 619 464 596 45 494 
410 11 231 575 546 519 497 485 457 420 590 609 381 
411 11 265 582 511 527 401 574 5 73 396 176 247 
412 11 557 487 58 359 335 91 564 467 137 306 307 
413 11 532 520 213 550 124 159 366 452 558 257 246 
414 11 180 150 277 216 580 112 133 512 212 421 161 
415 11 554 14 81 518 316 245 498 192 534 436 65 
416 11 560 301 239 623 179 555 270 264 140 211 395 
417 11 163 18 600 352 191 267 90 569 502 581 298 
418 11 48 567 64 145 44 491 449 610 480 118 165 
419 11 172 603 319 151 611 115 35 300 498 370 384 
420 11 485 609 457 102 519 594 32 507 27 599 575 
421 11 350 580 212 604 321 376 161 277 88 216 365 
422 11 274 195 565 500 206 499 289 324 356 537 614 
423 11 244 315 323 33 127 484 273 83 47 269 111 
424 11 243 624 70 374 42 539 49 233 160 293 132 
425 11 482 445 118 508 602 178 480 24 468 380 373 
426 11 275 285 576 303 219 227 73 476 268 432 131 
427 11 39 194 9 211 516 203 572 149 382 568 187 
428 11 456 393 378 291 528 299 210 78 226 54 587 
429 11 229 109 510 446 264 108 312 618 62 140 332 
430 11 215 230 454 207 388 476 208 318 447 496 268 
431 11 124 246 589 41 520 558 67 413 532 159 213 
432 11 74 227 344 576 391 285 207 275 303 426 3 
433 11 256 503 584 51 164 141 444 59 30 346 440 
434 11 259 466 448 556 490 579 181 478 123 458 276 
435 11 189 573 341 494 407 464 45 596 153 339 367 
436 11 534 563 245 29 65 192 84 81 136 459 394 
437 11 176 223 587 368 570 210 241 21 340 574 528 
438 11 171 224 331 383 168 351 552 237 214 408 187 
439 11 72 138 271 185 280 329 57 287 577 348 357 
440 11 584 51 346 141 503 12 357 185 256 403 597 
441 11 504 199 132 333 382 516 203 222 49 501 572 
442 11 330 126 101 536 17 471 479 95 262 110 523 
443 11 559 334 200 95 526 101 284 110 254 442 17 
444 11 59 164 255 256 403 141 286 346 597 56 51 
445 11 118 480 602 482 508 425 24 178 373 567 470 
446 11 109 140 264 312 389 593 555 395 108 429 460 
447 11 496 278 388 230 152 454 430 207 215 71 293 
448 11 259 466 556 434 181 276 123 458 138 271 490 
449 11 44 610 64 165 418 491 28 48 145 567 190 
450 11 62 107 618 154 37 238 195 274 312 595 15 
451 11 548 362 160 278 512 50 496 112 133 293 388 
452 11 263 366 592 232 621 83 213 550 538 484 257 
453 11 142 537 175 472 342 25 236 234 258 196 202 
454 11 207 430 215 230 476 152 285 447 388 496 432 
455 11 547 326 76 358 290 63 251 306 523 544 314 
456 11 393 428 378 528 291 210 299 226 587 78 340 
457 11 420 594 609 485 32 599 519 102 507 575 158 
458 11 181 276 621 218 232 556 538 466 592 452 259 
459 11 84 29 563 436 534 136 245 65 79 81 192 
460 11 395 226 7 389 78 270 555 340 528 570 587 
461 11 295 390 429 229 510 134 108 595 332 109 37 
462 11 156 93 125 36 75 130 304 98 358 481 551 
463 11 522 66 545 89 531 55 612 327 99 188 370 
464 11 407 189 573 68 435 494 339 45 596 400 258 
465 11 198 217 82 614 134 537 595 184 402 37 107 
466 11 259 448 556 434 181 458 276 218 490 123 579 
467 11 359 58 122 412 91 557 336 564 606 314 137 
468 11 370 425 178 55 99 482 31 445 35 508 118 
469 11 409 186 400 68 258 619 236 596 464 45 173 
470 11 240 373 24 242 535 602 508 394 480 77 118 
471 11 479 17 90 191 95 352 442 298 417 126 163 
472 11 234 25 236 339 258 105 68 400 142 367 175 
473 11 120 385 34 131 318 268 21 476 219 241 368 
474 11 615 281 376 355 321 365 88 598 98 201 320 
475 11 606 350 365 321 604 525 122 336 421 474 615 
476 11 268 131 285 207 426 275 120 454 215 318 430 
477 11 105 272 386 25 367 406 377 586 339 342 234 
478 11 605 490 123 579 434 448 371 259 91 466 556 
479 11 471 17 90 191 298 352 442 126 95 417 542 
480 11 118 602 445 24 508 482 373 567 425 470 48 
481 11 314 36 119 201 358 462 336 98 93 326 455 
482 11 508 425 445 602 118 480 24 178 373 380 470 
483 11 505 261 169 247 288 5 144 583 506 26 85 
484 11 83 47 244 257 263 592 423 538 232 273 452 
485 11 420 519 609 457 102 594 575 590 32 27 507 
486 11 495 561 225 282 562 61 183 92 371 601 329 
487 11 557 564 137 412 307 306 335 228 317 290 58 
488 11 233 408 133 214 70 180 512 42 548 112 150 
489 11 128 317 591 155 335 487 92 307 513 540 97 
490 11 579 478 434 605 259 466 448 525 122 123 161 
491 11 165 28 64 2 242 535 253 48 585 240 418 
492 11 121 221 608 40 588 493 325 292 360 174 369 
493 11 325 369 6 360 588 608 221 174 492 121 116 
494 11 573 341 45 596 435 189 464 407 153 173 68 
495 11 486 282 561 225 61 371 562 329 601 183 280 
496 11 447 278 388 230 454 152 430 215 207 293 451 
497 11 546 410 590 338 231 363 519 381 575 485 420 
498 11 518 14 415 554 172 115 81 296 300 316 611 
499 11 289 627 500 565 387 206 422 533 143 404 521 
500 11 289 499 627 565 206 356 521 404 422 60 16 
501 11 379 222 199 100 333 34 385 132 504 543 318 
502 11 298 352 85 542 600 288 90 417 18 144 163 
503 11 584 51 440 433 256 12 141 346 164 86 403 
504 11 441 199 132 333 203 222 516 382 501 100 379 
505 11 483 247 261 169 5 288 583 506 26 144 527 
506 11 26 583 139 617 3 169 261 505 303 344 391 
507 11 116 32 594 174 20 599 609 102 457 420 485 
508 11 602 482 445 118 480 24 425 373 470 380 178 
509 11 364 260 515 80 248 69 157 619 173 186 202 
510 11 229 108 332 109 264 301 429 416 211 446 179 
511 11 582 401 396 411 265 5 527 250 299 176 247 
512 11 133 112 362 548 150 277 451 180 50 488 212 
513 11 607 549 97 540 94 117 129 110 262 284 578 
514 11 182 19 626 11 8 135 398 237 218 351 550 
515 11 509 364 260 69 309 363 338 157 80 248 381 
516 11 203 382 504 441 572 199 194 222 132 100 49 
517 11 15 324 372 16 310 235 553 356 195 96 343 
518 11 14 554 415 81 498 245 29 84 436 316 534 
519 11 485 420 457 575 609 231 410 590 102 546 497 
520 11 124 413 532 213 558 431 246 589 159 550 257 
521 11 404 117 200 334 94 60 443 559 129 206 284 
522 11 463 66 545 55 89 99 531 188 612 370 468 
523 11 530 251 63 536 305 76 330 126 544 262 326 
524 11 162 302 27 6 369 153 102 360 493 325 609 
525 11 161 604 475 216 350 421 606 321 579 365 122 
526 11 95 311 254 566 103 443 148 191 17 113 417 
527 11 265 411 73 582 5 247 401 511 574 303 505 
528 11 210 587 393 299 340 456 176 223 226 437 570 
529 11 205 166 111 622 4 167 52 269 56 323 170 
530 11 305 523 544 536 578 251 63 262 330 76 126 
531 11 463 522 66 545 402 55 99 151 89 370 319 
532 11 413 520 550 213 124 366 159 452 558 257 263 
533 11 625 387 571 342 175 499 627 142 25 105 289 
534 11 436 65 245 192 563 29 81 84 136 394 77 
535 11 242 240 470 2 77 373 394 491 24 28 204 
536 11 330 262 523 126 530 442 101 110 305 251 284 
537 11 453 422 198 614 142 274 345 195 196 175 184 
538 11 232 592 621 83 263 484 452 244 423 315 366 
539 11 374 160 243 293 543 208 424 132 333 49 624 
540 11 97 549 129 513 94 607 117 591 404 284 110 
541 11 170 328 43 13 167 127 33 323 57 348 577 
542 11 298 85 502 75 90 144 352 288 600 479 417 
543 11 208 333 132 293 539 318 215 501 199 379 385 
544 11 578 305 530 523 547 228 76 251 536 63 262 
545 11 66 55 99 522 370 463 468 151 35 531 31 
546 11 497 410 231 519 575 590 485 338 381 363 420 
547 11 455 326 76 290 358 63 251 544 306 523 530 
548 11 362 451 512 133 112 50 160 278 496 150 447 
549 11 97 540 513 607 94 129 117 591 110 284 404 
550 11 366 213 452 532 413 263 592 232 257 621 520 
551 11 392 130 10 320 304 98 598 209 297 355 405 
552 11 399 159 224 246 398 171 351 124 413 532 520 
553 11 235 310 60 96 16 372 620 193 87 15 356 
554 11 415 14 81 518 316 245 498 534 436 192 29 
555 11 270 395 7 460 140 226 416 389 560 340 570 
556 11 259 448 466 181 276 458 434 138 123 218 621 
557 11 564 412 137 487 58 306 359 290 467 307 228 
558 11 67 257 589 47 273 41 213 269 520 484 244 
559 11 334 443 200 101 284 110 95 262 442 526 117 
560 11 416 239 623 179 301 555 270 100 211 140 264 
561 11 225 486 562 183 495 601 61 361 86 329 280 
562 11 183 601 225 86 361 561 12 61 280 329 503 
563 11 436 29 534 84 136 65 245 192 459 79 313 
564 11 137 306 557 290 487 307 228 412 547 455 58 
565 11 206 356 500 16 324 60 372 235 521 289 517 
566 11 103 311 148 254 113 526 163 581 18 417 95 
567 11 48 418 480 64 373 24 118 445 145 602 491 
568 11 149 46 39 220 427 9 187 194 572 382 516 
569 11 267 581 18 279 163 600 417 352 250 177 502 
570 11 340 223 587 368 437 7 176 210 528 226 270 
571 11 342 175 625 25 105 533 477 142 347 147 472 
572 11 382 49 516 194 441 504 203 624 9 243 132 
573 11 494 341 435 189 45 596 407 464 153 173 68 
574 11 241 21 219 73 265 411 527 176 437 582 275 
575 11 231 410 519 457 485 546 420 594 609 158 114 
576 11 227 285 432 275 426 344 74 303 391 207 73 
577 11 348 287 13 397 43 57 541 328 127 33 170 
578 11 544 305 530 523 228 262 536 251 290 547 63 
579 11 490 434 525 478 605 161 122 259 466 604 475 
580 11 212 421 277 150 350 88 112 376 321 604 50 
581 11 267 569 279 18 177 163 148 417 600 103 250 
582 11 511 411 265 401 527 396 5 250 247 574 299 
583 11 26 506 139 617 3 169 261 505 303 247 344 
584 11 51 503 440 141 256 346 164 433 403 357 444 
585 11 253 308 2 28 104 283 204 313 165 491 535 
586 11 38 386 147 347 406 477 40 272 121 377 252 
587 11 340 223 570 210 528 437 176 368 226 7 299 
588 11 221 493 608 174 492 292 121 6 325 116 369 
589 11 41 558 67 431 273 269 47 257 124 520 213 
590 11 381 519 497 485 546 420 309 302 102 609 27 
591 11 540 97 549 513 129 607 128 317 94 489 228 
592 11 263 232 452 83 538 621 366 484 257 47 213 
593 11 78 389 54 312 460 140 226 395 238 446 428 
594 11 32 599 457 507 609 20 420 485 102 116 158 
595 11 37 107 618 134 82 62 217 450 429 295 312 
596 11 45 494 573 341 173 189 435 464 409 153 407 
597 11 353 403 357 286 346 328 141 170 52 167 541 
598 11 320 355 392 281 88 376 474 551 615 98 130 
599 11 32 594 20 158 197 457 507 114 609 116 420 
600 11 352 18 163 417 502 267 569 90 298 581 191 
601 11 562 86 361 183 12 280 225 61 329 503 440 
602 11 508 480 118 445 24 482 373 425 470 567 240 
603 11 419 319 172 611 151 384 115 35 498 300 99 
604 11 525 161 350 421 216 475 321 606 580 365 212 
605 11 478 490 371 123 579 91 434 448 467 282 359 
606 11 475 365 336 122 321 350 119 615 201 474 604 
607 11 513 549 97 540 94 117 110 262 284 578 129 
608 11 221 492 121 325 493 588 360 40 369 6 292 
609 11 420 102 485 457 594 507 32 519 27 599 116 
610 11 44 449 190 418 145 64 48 375 165 567 491 
611 11 172 296 419 498 384 603 115 518 319 14 554 
612 11 327 89 188 463 522 349 66 31 354 545 375 
613 11 71 322 146 152 297 74 320 10 50 278 3 
614 11 198 82 274 450 195 217 422 107 37 537 595 
615 11 474 281 355 376 365 321 598 201 98 88 119 
616 11 384 611 603 296 419 172 319 498 151 106 402 
617 11 3 26 139 506 583 405 169 391 261 344 144 
618 11 107 37 62 450 595 429 312 154 238 446 109 
619 11 186 469 409 173 260 596 69 364 45 400 68 
620 11 96 193 87 23 553 113 310 22 235 343 254 
621 11 232 538 592 263 452 83 366 458 484 550 213 
622 11 4 111 205 529 166 269 167 52 273 56 323 
623 11 179 239 560 301 416 211 100 203 222 332 555 
624 11 243 49 424 42 374 539 70 382 572 441 132 
625 11 533 387 571 342 175 347 147 105 477 25 142 
626 11 19 514 135 11 182 8 218 216 398 414 237 
627 11 289 499 500 143 387 565 404 206 129 521 533 
DEPOT_SECTION
   1
   -1
EOF
