NAME :  X-n627-kX-w62-c7.cctp
COMMENT : 	Adapted by Maziero, Usberti and Cavellucci from the Uchoa, Pecin, Pessoa, Poggi, Subramanian, and Vidal (2013)
TYPE :  CCTP
DIMENSION :    364
EDGE_WEIGHT_TYPE : 	EUC_2D	
CAPACITY : 	110
VERTICES_WITHIN_COVERAGE :  7
VERTICES_WITH_DEMAND : 	62
NODE_COORD_SECTION
1 0 0
2 816 981
3 349 338
4 22 205
5 385 344
6 913 54
7 410 410
8 108 298
9 280 512
10 335 312
11 155 336
12 64 98
13 64 184
14 874 922
15 513 345
16 516 316
17 403 276
18 407 310
19 161 312
20 931 13
21 371 380
22 460 357
23 455 345
24 796 940
25 811 111
26 360 338
27 932 60
28 803 989
29 882 959
30 2 58
31 740 917
32 939 22
33 53 202
34 360 409
35 802 863
36 326 268
37 565 473
38 828 21
39 311 537
40 868 36
41 2 246
42 243 431
43 58 191
44 756 985
45 900 104
46 281 633
47 42 237
48 771 961
49 290 453
50 289 346
51 27 123
52 16 181
53 960 960
54 457 383
55 759 856
56 10 179
57 62 165
58 297 197
59 2 151
60 491 292
61 124 102
62 536 441
63 374 246
64 778 976
65 740 836
66 26 238
67 935 116
68 255 411
69 313 340
70 91 159
71 341 352
72 366 242
73 443 397
74 866 933
75 644 495
76 59 233
77 890 960
78 73 84
79 467 337
80 394 290
81 273 161
82 354 274
83 421 275
84 476 325
85 320 282
86 768 854
87 941 48
88 834 982
89 814 93
90 930 930
91 562 465
92 25 204
93 260 351
94 957 1
95 837 881
96 921 27
97 781 931
98 308 258
99 354 393
100 879 40
101 272 230
102 361 273
103 392 255
104 53 201
105 330 293
106 603 555
107 134 280
108 355 341
109 26 137
110 801 157
111 749 958
112 298 337
113 799 21
114 430 307
115 273 556
116 805 824
117 513 397
118 350 280
119 954 4
120 926 68
121 407 307
122 5 137
123 793 990
124 26 198
125 34 187
126 134 405
127 371 329
128 44 181
129 918 112
130 916 33
131 789 126
132 760 921
133 120 308
134 86 28
135 63 146
136 258 514
137 677 899
138 881 94
139 724 977
140 405 288
141 461 318
142 311 501
143 574 343
144 943 0
145 309 266
146 836 977
147 22 201
148 543 274
149 348 311
150 215 420
151 648 516
152 111 262
153 366 374
154 355 614
155 419 399
156 239 411
157 842 116
158 496 310
159 140 371
160 502 399
161 811 953
162 374 380
163 809 959
164 285 434
165 47 224
166 380 340
167 977 994
168 400 343
169 375 245
170 882 1
171 819 990
172 2 162
173 13 130
174 44 243
175 407 321
176 27 222
177 406 421
178 122 147
179 850 64
180 31 228
181 591 348
182 306 365
183 103 110
184 19 168
185 75 177
186 996 984
187 924 883
188 337 321
189 828 893
190 935 73
191 343 300
192 829 993
193 498 325
194 322 244
195 52 206
196 826 808
197 318 307
198 302 337
199 50 202
200 536 328
201 895 57
202 360 244
203 49 173
204 118 114
205 189 460
206 299 252
207 998 981
208 402 396
209 895 90
210 780 109
211 476 361
212 348 349
213 35 140
214 784 14
215 71 185
216 124 396
217 396 304
218 32 168
219 677 971
220 529 293
221 46 150
222 351 250
223 288 195
224 897 61
225 85 90
226 272 364
227 909 58
228 777 868
229 515 327
230 798 946
231 722 954
232 863 67
233 347 427
234 963 76
235 305 467
236 136 630
237 351 404
238 823 36
239 441 411
240 347 348
241 323 299
242 419 416
243 398 349
244 70 197
245 96 330
246 392 351
247 346 321
248 848 43
249 213 413
250 385 360
251 309 171
252 865 920
253 405 304
254 766 965
255 850 830
256 952 43
257 47 217
258 270 427
259 331 528
260 3 275
261 0 105
262 884 90
263 868 958
264 94 142
265 46 121
266 403 257
267 6 148
268 781 928
269 768 997
270 561 419
271 280 374
272 787 222
273 353 232
274 953 32
275 895 967
276 424 409
277 344 276
278 700 832
279 283 201
280 766 889
281 810 943
282 398 280
283 834 128
284 358 396
285 815 72
286 395 280
287 784 936
288 328 253
289 787 920
290 379 331
291 53 234
292 195 21
293 794 979
294 884 38
295 902 49
296 893 98
297 189 50
298 878 892
299 344 428
300 29 101
301 376 335
302 361 337
303 931 30
304 792 925
305 393 357
306 136 317
307 525 338
308 883 917
309 488 237
310 712 837
311 384 238
312 926 69
313 378 355
314 24 200
315 387 230
316 718 776
317 862 957
318 812 961
319 50 182
320 748 837
321 356 228
322 272 370
323 329 300
324 491 312
325 868 921
326 415 429
327 322 188
328 28 250
329 141 6
330 95 42
331 872 967
332 551 270
333 776 954
334 291 587
335 407 322
336 396 397
337 748 95
338 299 475
339 890 96
340 376 371
341 71 182
342 416 322
343 389 357
344 363 340
345 29 117
346 820 993
347 819 22
348 11 250
349 460 406
350 944 25
351 577 500
352 900 107
353 944 17
354 399 309
355 88 63
356 790 931
357 946 41
358 747 992
359 354 332
360 547 464
361 467 326
362 22 204
363 272 446
364 157 302
DEMAND_SECTION
2 5
3 8
4 8
5 7
6 5
7 9
8 5
9 5
10 9
11 9
12 7
13 5
14 10
15 8
16 10
17 5
18 5
19 8
20 7
21 10
22 9
23 9
24 8
25 6
26 9
27 7
28 10
29 6
30 9
31 9
32 10
33 7
34 7
35 6
36 7
37 6
38 5
39 9
40 7
41 6
42 7
43 7
44 9
45 7
46 6
47 6
48 6
49 6
50 9
51 7
52 6
53 7
54 6
55 5
56 10
57 5
58 8
59 8
60 5
61 5
62 9
63 10
COVERAGE_SECTION
2 7 171 346 28 88 192 146 318 
3 7 108 359 240 26 212 302 344 
4 7 362 92 147 314 124 176 125 
5 7 166 246 301 313 243 290 343 
6 7 227 295 224 201 120 27 312 
7 7 242 177 155 276 208 336 326 
8 6 133 107 245 306 152 364 
9 7 136 142 39 338 115 235 259 
10 7 188 149 323 191 247 197 241 
11 7 19 306 364 159 133 245 8 
12 7 78 225 265 300 345 183 355 
13 7 215 341 43 185 244 319 57 
14 5 325 252 308 74 298 
15 7 307 229 193 16 200 158 211 
16 7 229 193 158 200 307 324 220 
17 7 282 286 140 80 83 266 103 
18 7 121 253 354 175 335 217 342 
19 6 364 11 306 133 107 8 
20 7 32 353 96 303 144 350 119 
21 3 162 153 340 
22 5 23 211 79 54 361 
23 6 22 79 361 211 141 84 
24 7 230 356 287 281 304 97 268 
25 6 89 131 283 157 210 285 
26 6 302 344 108 359 3 127 
27 7 120 312 190 87 6 227 357 
28 7 123 293 2 171 346 192 64 
29 5 77 331 263 275 317 
30 7 261 300 345 51 173 12 78 
31 6 132 280 231 111 268 97 
32 7 350 353 303 20 274 96 357 
33 7 104 199 195 43 257 244 319 
34 5 237 284 99 233 299 
35 6 228 86 95 116 189 55 
36 7 85 288 145 277 98 194 105 
37 6 91 360 351 62 270 75 
38 7 347 238 113 248 40 214 179 
39 7 259 142 9 115 334 136 338 
40 4 100 294 248 232 
41 7 348 66 328 260 180 176 47 
42 7 156 68 258 150 363 249 164 
43 7 13 104 33 319 244 199 215 
44 7 358 269 254 64 48 111 139 
45 7 352 296 339 209 129 138 262 
46 7 334 154 115 39 259 9 136 
47 7 174 291 165 180 66 76 328 
48 7 254 333 64 111 44 287 293 
49 5 363 164 235 338 258 
50 7 112 198 69 182 226 93 271 
51 7 345 109 173 213 265 300 122 
52 7 56 184 125 124 147 218 314 
53 7 167 90 186 207 275 77 29 
54 5 73 349 22 211 239 
55 7 86 228 320 65 280 35 310 
56 7 52 184 172 124 125 147 218 
57 7 203 185 13 135 341 319 215 
58 6 223 279 327 251 101 81 
59 6 267 172 122 173 184 109 
60 7 158 324 193 16 84 220 141 
61 7 204 183 225 178 264 355 78 
62 6 360 270 91 37 117 160 
63 7 169 72 311 202 103 315 222 
64 7 254 293 48 123 333 269 44 
65 7 320 55 310 86 278 228 280 
66 7 180 328 47 176 174 348 41 
67 3 129 352 45 
68 5 156 258 42 164 363 
69 4 198 112 50 182 
70 6 264 185 57 341 135 178 
71 3 240 212 3 
72 7 202 63 169 273 222 321 311 
73 5 239 349 54 276 155 
74 5 325 252 14 308 317 
75 5 151 351 106 37 91 
76 3 291 165 47 
77 5 29 275 331 263 317 
78 7 225 12 355 183 265 300 330 
79 7 361 23 84 141 22 211 193 
80 6 286 140 282 217 17 253 
81 5 223 251 279 58 327 
82 6 102 118 277 222 191 36 
83 4 17 140 282 266 
84 7 361 79 141 324 193 158 23 
85 5 36 105 241 145 323 
86 7 55 228 320 65 35 280 116 
87 6 357 256 27 274 303 350 
88 5 146 192 171 2 346 
89 6 25 285 157 210 283 131 
90 7 53 187 308 77 275 29 14 
91 6 37 360 62 351 270 117 
92 7 4 362 147 314 124 176 125 
93 3 226 322 50 
94 7 119 144 353 350 32 20 274 
95 5 189 35 298 252 325 
96 6 130 303 20 32 350 353 
97 6 268 287 356 289 304 24 
98 6 145 206 194 36 288 85 
99 3 284 237 34 
100 4 294 40 201 295 
101 5 279 206 223 58 98 
102 6 82 118 277 222 202 63 
103 5 266 311 63 169 17 
104 7 33 199 195 43 244 257 319 
105 7 323 241 85 191 197 10 277 
106 6 151 351 75 37 91 360 
107 6 152 133 8 364 306 19 
108 7 26 3 302 344 359 212 240 
109 6 213 51 173 345 122 267 
110 7 131 283 25 210 157 89 272 
111 7 254 48 231 333 44 139 64 
112 4 198 50 69 182 
113 7 214 347 238 38 285 248 179 
114 2 342 18 
115 7 334 39 9 136 259 142 46 
116 7 196 35 255 86 228 55 320 
117 6 160 62 15 211 270 349 
118 6 82 277 102 191 105 36 
119 7 94 144 353 32 350 20 274 
120 6 312 27 190 6 227 87 
121 7 18 253 354 217 175 335 342 
122 6 173 267 59 109 172 51 
123 7 28 293 64 2 171 269 346 
124 7 314 147 92 362 4 125 52 
125 7 128 124 314 319 147 52 92 
126 6 216 159 11 205 249 150 
127 4 290 301 302 26 
128 7 319 203 125 43 218 13 104 
129 6 67 352 45 296 209 339 
130 6 96 303 6 295 20 32 
131 7 210 25 110 89 283 337 157 
132 6 31 268 97 289 287 304 
133 7 8 306 107 245 364 19 11 
134 6 330 355 78 329 225 12 
135 7 221 57 213 203 265 70 264 
136 7 9 115 142 338 39 235 49 
137 3 31 231 278 
138 5 262 339 296 209 45 
139 7 231 358 111 44 254 219 269 
140 7 80 282 17 286 253 217 121 
141 5 361 84 79 23 324 
142 5 338 9 259 235 39 
143 7 181 200 307 15 229 16 220 
144 7 119 94 353 20 32 350 303 
145 5 98 36 206 85 288 
146 4 88 192 2 171 
147 7 314 362 4 92 124 125 52 
148 7 332 220 16 200 60 158 229 
149 6 247 191 10 188 323 359 
150 6 249 156 42 68 205 258 
151 5 75 106 351 37 91 
152 2 107 8 
153 3 21 162 340 
154 5 334 46 39 259 115 
155 4 276 7 208 242 
156 6 68 42 150 249 258 363 
157 2 283 25 
158 7 324 193 60 16 84 229 361 
159 6 216 126 11 306 245 19 
160 6 117 349 211 54 62 15 
161 5 163 318 281 230 24 
162 3 21 340 153 
163 6 318 161 281 230 2 24 
164 3 258 363 49 
165 7 257 291 47 76 180 174 195 
166 6 5 301 290 127 313 246 
167 7 186 207 53 90 275 77 29 
168 6 243 246 5 305 343 166 
169 6 63 72 311 202 315 103 
170 3 294 40 100 
171 6 346 2 192 28 88 146 
172 6 59 267 184 56 52 122 
173 7 122 109 51 267 345 59 213 
174 7 47 291 328 76 66 165 180 
175 6 335 342 18 121 354 253 
176 7 180 66 4 92 362 165 47 
177 7 7 326 242 276 208 155 336 
178 5 264 70 204 183 61 
179 5 232 248 40 285 100 
180 7 176 66 47 165 257 174 328 
181 6 143 200 307 270 15 229 
182 1 50 
183 7 204 61 225 264 78 12 178 
184 5 52 218 56 172 59 
185 7 341 215 13 57 244 43 70 
186 7 207 167 53 90 275 77 29 
187 5 90 298 308 14 325 
188 7 10 247 149 359 3 191 323 
189 5 95 35 252 304 289 
190 6 120 312 27 87 234 6 
191 7 149 10 323 105 241 118 247 
192 5 346 171 88 146 2 
193 7 158 324 229 16 84 15 307 
194 7 288 98 36 206 145 222 273 
195 7 33 199 104 257 43 165 244 
196 5 116 255 35 86 95 
197 5 241 323 10 105 188 
198 4 112 69 50 182 
199 7 33 104 195 43 257 319 244 
200 7 307 229 16 15 220 193 143 
201 5 224 295 227 6 294 
202 7 72 222 63 273 169 321 311 
203 7 128 319 57 218 13 43 125 
204 6 61 183 178 264 225 70 
205 6 150 249 42 156 126 68 
206 5 98 145 194 288 36 
207 7 186 167 53 90 275 77 29 
208 3 336 7 155 
209 6 296 339 262 45 138 352 
210 7 131 25 337 89 285 110 283 
211 7 22 23 79 54 84 361 15 
212 4 240 71 3 108 
213 5 109 221 51 265 173 
214 7 113 347 38 238 285 248 179 
215 7 341 13 185 244 43 319 57 
216 5 126 159 11 245 306 
217 5 354 253 121 18 80 
218 5 184 128 203 125 52 
219 6 139 231 137 111 358 44 
220 7 148 16 332 200 158 229 60 
221 5 213 135 57 203 218 
222 7 202 72 273 63 288 321 82 
223 6 279 58 251 327 81 101 
224 4 201 227 295 6 
225 7 78 12 183 355 61 204 330 
226 4 322 271 93 50 
227 6 6 295 224 201 120 312 
228 6 86 55 280 35 320 65 
229 7 16 307 193 15 200 158 324 
230 7 24 281 161 163 287 356 318 
231 7 139 111 31 254 358 44 219 
232 6 179 248 40 100 262 138 
233 3 299 34 237 
234 2 190 27 
235 2 338 49 
236 5 46 115 334 136 205 
237 4 34 99 284 233 
238 7 347 38 248 113 285 179 40 
239 6 73 276 349 242 155 7 
240 4 212 71 3 108 
241 6 323 105 197 85 10 191 
242 7 276 7 177 326 155 239 208 
243 6 168 246 305 343 5 250 
244 7 215 43 13 341 104 33 195 
245 5 133 8 306 11 159 
246 6 243 305 343 5 168 250 
247 7 188 149 10 359 3 191 26 
248 7 40 179 238 232 38 100 294 
249 6 150 156 42 68 205 258 
250 6 343 305 313 246 340 5 
251 4 327 58 223 81 
252 5 325 14 74 308 298 
253 7 121 18 354 217 140 175 80 
254 7 48 333 64 111 44 293 269 
255 4 196 116 95 35 
256 5 357 274 87 350 32 
257 7 165 195 199 33 104 291 180 
258 5 164 363 68 42 49 
259 4 39 142 9 338 
260 4 348 41 328 66 
261 7 173 300 345 51 122 109 267 
262 5 138 339 209 296 45 
263 4 317 331 29 77 
264 6 70 178 135 183 204 57 
265 7 345 51 213 109 300 12 221 
266 4 103 17 282 286 
267 6 59 122 172 173 109 184 
268 6 97 287 356 289 304 24 
269 7 44 358 64 123 254 293 28 
270 7 62 91 360 117 37 160 143 
271 4 322 226 182 50 
272 5 110 131 283 210 25 
273 6 321 202 72 222 63 169 
274 5 256 350 357 32 353 
275 5 77 29 331 263 317 
276 7 242 155 7 239 73 177 326 
277 6 118 82 102 36 105 191 
278 5 310 65 320 316 55 
279 7 223 58 101 251 81 327 206 
280 6 228 132 55 86 289 31 
281 7 161 230 24 163 318 356 304 
282 7 286 17 80 140 83 217 266 
283 3 157 25 89 
284 4 99 237 34 21 
285 6 89 179 238 25 248 232 
286 6 282 17 80 140 217 266 
287 7 97 356 268 24 304 289 230 
288 7 194 36 98 145 222 277 206 
289 6 304 268 356 97 287 24 
290 4 301 127 166 5 
291 5 76 47 165 174 257 
292 5 297 329 330 61 134 
293 7 123 28 64 2 163 318 171 
294 4 100 40 295 201 
295 4 201 227 6 224 
296 6 339 209 45 352 262 138 
297 4 292 329 61 330 
298 6 308 14 252 325 95 74 
299 3 233 34 237 
300 7 345 51 265 261 173 12 109 
301 5 290 166 127 5 344 
302 6 26 344 108 359 3 127 
303 7 96 32 350 130 20 353 357 
304 6 356 289 268 97 287 24 
305 6 343 246 243 250 5 313 
306 7 133 19 364 11 8 107 245 
307 7 15 200 229 16 193 158 324 
308 6 14 325 252 74 298 29 
309 1 60 
310 6 278 65 320 55 86 316 
311 4 315 169 63 72 
312 6 120 190 27 6 227 87 
313 5 250 343 5 166 246 
314 7 147 124 92 362 4 125 52 
315 3 311 169 63 
316 6 278 310 65 320 55 86 
317 4 263 331 29 74 
318 5 163 161 281 2 230 
319 7 128 203 43 13 125 104 33 
320 7 65 55 86 310 228 278 280 
321 6 273 202 72 222 63 169 
322 4 226 271 93 50 
323 6 241 105 10 197 191 85 
324 7 158 193 60 84 16 229 361 
325 5 252 14 74 308 298 
326 5 177 242 7 276 155 
327 3 251 58 223 
328 6 66 174 348 47 180 41 
329 6 292 330 134 297 355 61 
330 6 134 355 78 225 329 12 
331 4 263 29 317 77 
332 6 148 220 16 200 60 229 
333 7 48 254 287 64 230 24 97 
334 7 115 46 39 154 259 9 136 
335 6 175 342 18 121 354 253 
336 2 208 7 
337 5 210 131 25 89 285 
338 3 235 49 142 
339 6 296 209 262 138 45 352 
340 5 162 21 153 250 313 
341 7 215 185 13 244 43 57 319 
342 5 175 335 18 121 114 
343 6 305 250 246 313 243 5 
344 6 26 302 108 359 3 127 
345 7 51 300 265 109 173 213 122 
346 6 171 192 2 28 88 146 
347 7 38 238 113 214 248 285 40 
348 7 41 328 66 260 180 176 47 
349 5 73 239 54 276 155 
350 7 32 353 274 303 357 20 256 
351 7 37 91 360 106 75 62 151 
352 7 45 296 339 209 129 138 262 
353 7 32 350 20 119 144 274 303 
354 6 217 18 121 253 175 335 
355 6 330 78 225 134 12 183 
356 7 304 287 97 268 24 289 230 
357 6 256 87 274 350 303 32 
358 7 44 269 139 254 111 64 48 
359 7 3 26 108 302 344 247 127 
360 5 91 37 62 270 351 
361 6 84 141 79 23 324 193 
362 7 4 92 147 314 124 176 125 
363 5 164 49 258 42 68 
364 7 19 306 107 11 133 8 152 
DEPOT_SECTION
   1
   -1
EOF
