NAME :  X-n627-kX-w250-c9.cctp
COMMENT : 	Adapted by Maziero, Usberti and Cavellucci from the Uchoa, Pecin, Pessoa, Poggi, Subramanian, and Vidal (2013)
TYPE :  CCTP
DIMENSION :    624
EDGE_WEIGHT_TYPE : 	EUC_2D	
CAPACITY : 	110
VERTICES_WITHIN_COVERAGE :  9
VERTICES_WITH_DEMAND : 	250
NODE_COORD_SECTION
1 0 0
2 816 981
3 349 338
4 22 205
5 385 344
6 913 54
7 410 410
8 108 298
9 280 512
10 335 312
11 155 336
12 64 98
13 64 184
14 874 922
15 513 345
16 516 316
17 403 276
18 407 310
19 161 312
20 931 13
21 371 380
22 460 357
23 455 345
24 796 940
25 811 111
26 360 338
27 932 60
28 803 989
29 882 959
30 2 58
31 740 917
32 939 22
33 53 202
34 360 409
35 802 863
36 326 268
37 565 473
38 828 21
39 311 537
40 868 36
41 2 246
42 243 431
43 58 191
44 756 985
45 900 104
46 281 633
47 42 237
48 771 961
49 290 453
50 289 346
51 27 123
52 16 181
53 960 960
54 457 383
55 759 856
56 10 179
57 62 165
58 297 197
59 2 151
60 491 292
61 124 102
62 536 441
63 374 246
64 778 976
65 854 959
66 740 836
67 26 238
68 875 125
69 935 116
70 255 411
71 313 340
72 91 159
73 369 362
74 341 352
75 363 286
76 366 242
77 832 961
78 443 397
79 863 999
80 944 188
81 866 933
82 644 495
83 59 233
84 890 960
85 373 308
86 73 84
87 467 337
88 291 307
89 657 858
90 394 290
91 273 161
92 288 89
93 354 274
94 456 206
95 421 275
96 476 325
97 447 183
98 320 282
99 768 854
100 355 447
101 415 250
102 941 48
103 432 303
104 834 982
105 814 93
106 930 930
107 562 465
108 430 495
109 450 472
110 417 234
111 25 204
112 260 351
113 441 312
114 957 1
115 837 881
116 921 27
117 452 219
118 781 931
119 308 258
120 354 393
121 879 40
122 272 230
123 162 158
124 19 284
125 361 273
126 392 255
127 53 201
128 395 97
129 468 176
130 330 293
131 353 383
132 318 435
133 252 364
134 603 555
135 134 280
136 865 985
137 343 194
138 110 159
139 355 341
140 437 439
141 26 137
142 801 157
143 547 92
144 369 319
145 749 958
146 298 337
147 799 21
148 430 307
149 273 556
150 246 342
151 805 824
152 324 354
153 906 80
154 513 397
155 321 107
156 350 280
157 957 194
158 954 4
159 36 314
160 293 397
161 227 279
162 926 68
163 407 307
164 5 137
165 793 990
166 26 198
167 34 187
168 134 405
169 371 329
170 44 181
171 79 470
172 869 855
173 918 112
174 916 33
175 789 126
176 391 378
177 427 333
178 760 921
179 384 472
180 229 348
181 120 223
182 120 308
183 86 28
184 933 368
185 63 146
186 897 138
187 258 514
188 677 899
189 881 94
190 724 977
191 405 288
192 852 955
193 461 318
194 311 501
195 574 343
196 911 215
197 943 0
198 690 419
199 328 441
200 448 250
201 309 266
202 907 187
203 336 466
204 836 977
205 22 201
206 543 274
207 336 367
208 316 400
209 348 311
210 404 378
211 378 494
212 267 320
213 53 262
214 215 420
215 329 385
216 219 291
217 648 516
218 111 262
219 366 374
220 355 614
221 890 41
222 344 440
223 393 390
224 97 418
225 125 26
226 419 399
227 348 354
228 370 191
229 446 504
230 319 378
231 984 34
232 76 237
233 239 411
234 842 116
235 496 310
236 866 137
237 140 371
238 502 399
239 381 451
240 811 953
241 374 380
242 809 959
243 285 434
244 47 224
245 858 950
246 8 298
247 380 340
248 931 185
249 977 994
250 400 343
251 375 245
252 882 1
253 819 990
254 443 296
255 2 162
256 13 130
257 44 243
258 869 131
259 150 210
260 937 139
261 372 329
262 408 231
263 65 244
264 440 468
265 382 359
266 937 219
267 407 321
268 351 381
269 27 222
270 406 421
271 122 147
272 850 64
273 31 228
274 591 348
275 356 366
276 107 207
277 252 334
278 306 365
279 410 335
280 103 110
281 303 286
282 207 95
283 838 999
284 421 235
285 348 366
286 19 168
287 75 177
288 377 321
289 577 203
290 352 210
291 417 359
292 896 18
293 302 396
294 996 984
295 505 582
296 924 883
297 337 321
298 382 299
299 407 366
300 828 893
301 399 477
302 935 73
303 360 355
304 343 300
305 388 223
306 346 202
307 364 182
308 829 993
309 953 97
310 498 325
311 435 300
312 485 428
313 846 988
314 322 244
315 52 206
316 841 933
317 363 131
318 342 397
319 826 808
320 318 307
321 278 284
322 302 337
323 50 202
324 536 328
325 895 57
326 360 244
327 652 883
328 49 173
329 118 114
330 399 248
331 189 460
332 409 509
333 322 430
334 446 249
335 313 138
336 299 252
337 998 981
338 998 88
339 856 102
340 402 396
341 895 90
342 780 109
343 476 361
344 348 349
345 916 243
346 35 140
347 784 14
348 71 185
349 633 953
350 124 396
351 396 304
352 32 168
353 677 971
354 304 292
355 529 293
356 46 150
357 351 250
358 288 195
359 897 61
360 85 90
361 272 364
362 941 143
363 67 257
364 854 89
365 385 398
366 909 58
367 777 868
368 243 125
369 515 327
370 798 946
371 290 418
372 722 954
373 289 296
374 863 67
375 429 362
376 347 427
377 813 906
378 963 76
379 305 467
380 136 630
381 920 788
382 351 404
383 823 36
384 645 99
385 311 377
386 441 411
387 445 649
388 347 348
389 323 299
390 423 376
391 834 952
392 419 416
393 398 349
394 70 197
395 96 330
396 43 363
397 875 131
398 392 351
399 778 723
400 26 151
401 485 222
402 346 321
403 848 43
404 874 98
405 213 413
406 887 131
407 988 37
408 385 360
409 309 171
410 49 285
411 220 333
412 865 920
413 403 458
414 405 304
415 766 965
416 850 830
417 952 43
418 256 299
419 640 291
420 47 217
421 270 427
422 779 916
423 355 366
424 331 528
425 430 373
426 487 494
427 327 382
428 3 275
429 344 355
430 0 105
431 170 217
432 884 90
433 868 958
434 389 384
435 94 520
436 94 142
437 46 121
438 318 448
439 403 257
440 438 261
441 6 148
442 781 928
443 457 450
444 311 368
445 149 200
446 768 997
447 561 419
448 280 374
449 69 250
450 787 222
451 330 372
452 353 232
453 425 377
454 953 32
455 110 233
456 895 967
457 424 409
458 499 588
459 344 276
460 700 832
461 877 107
462 782 509
463 149 217
464 283 201
465 766 889
466 889 134
467 810 943
468 398 280
469 834 128
470 358 396
471 294 288
472 264 261
473 346 378
474 815 72
475 205 175
476 395 280
477 784 936
478 328 253
479 787 920
480 379 331
481 53 234
482 956 44
483 195 21
484 337 167
485 227 387
486 400 74
487 208 210
488 794 979
489 884 38
490 902 49
491 893 98
492 189 50
493 309 370
494 991 62
495 878 892
496 606 192
497 574 221
498 344 428
499 386 307
500 29 101
501 325 448
502 376 335
503 361 337
504 931 30
505 792 925
506 950 153
507 436 505
508 393 357
509 256 360
510 427 189
511 136 317
512 980 141
513 326 470
514 525 338
515 883 917
516 966 45
517 32 278
518 488 237
519 712 837
520 384 238
521 926 69
522 235 266
523 431 283
524 378 355
525 410 382
526 24 200
527 387 230
528 718 776
529 51 285
530 685 118
531 862 957
532 812 961
533 398 241
534 753 310
535 73 228
536 296 416
537 448 182
538 50 182
539 376 299
540 321 412
541 381 217
542 748 837
543 991 52
544 356 228
545 272 370
546 443 185
547 67 270
548 329 300
549 19 390
550 491 312
551 868 921
552 415 429
553 134 208
554 322 188
555 28 250
556 435 250
557 395 457
558 141 6
559 95 42
560 872 967
561 339 194
562 551 270
563 432 301
564 776 954
565 291 587
566 407 322
567 396 397
568 748 95
569 299 475
570 890 96
571 376 371
572 976 29
573 350 359
574 71 182
575 387 212
576 211 225
577 260 316
578 416 322
579 389 357
580 363 340
581 29 117
582 820 993
583 819 22
584 402 389
585 900 36
586 11 250
587 967 69
588 431 139
589 69 240
590 460 406
591 944 25
592 577 500
593 900 107
594 34 159
595 308 302
596 944 17
597 399 309
598 88 63
599 790 931
600 859 799
601 243 279
602 216 170
603 273 257
604 425 192
605 889 46
606 946 41
607 747 992
608 898 841
609 651 874
610 317 336
611 668 404
612 297 284
613 985 734
614 354 332
615 547 464
616 909 137
617 467 326
618 82 238
619 22 204
620 382 468
621 272 446
622 691 77
623 157 302
624 579 173
DEMAND_SECTION
2 5
3 8
4 8
5 7
6 5
7 9
8 5
9 5
10 9
11 9
12 7
13 5
14 10
15 8
16 10
17 5
18 5
19 8
20 7
21 10
22 9
23 9
24 8
25 6
26 9
27 7
28 10
29 6
30 9
31 9
32 10
33 7
34 7
35 6
36 7
37 6
38 5
39 9
40 7
41 6
42 7
43 7
44 9
45 7
46 6
47 6
48 6
49 6
50 9
51 7
52 6
53 7
54 6
55 5
56 10
57 5
58 8
59 8
60 5
61 5
62 9
63 10
64 6
65 7
66 6
67 8
68 10
69 7
70 6
71 7
72 6
73 8
74 8
75 9
76 10
77 10
78 10
79 6
80 9
81 10
82 5
83 6
84 10
85 9
86 8
87 8
88 7
89 5
90 8
91 7
92 7
93 10
94 10
95 8
96 7
97 5
98 5
99 7
100 6
101 10
102 7
103 5
104 8
105 8
106 8
107 10
108 7
109 6
110 10
111 10
112 8
113 8
114 7
115 5
116 10
117 5
118 6
119 9
120 9
121 7
122 5
123 10
124 8
125 9
126 6
127 5
128 8
129 6
130 5
131 8
132 9
133 10
134 9
135 10
136 7
137 5
138 10
139 7
140 10
141 9
142 10
143 8
144 5
145 10
146 7
147 8
148 5
149 6
150 8
151 9
152 8
153 10
154 9
155 8
156 10
157 8
158 9
159 7
160 10
161 5
162 9
163 10
164 6
165 7
166 10
167 5
168 5
169 6
170 10
171 10
172 6
173 7
174 10
175 6
176 6
177 6
178 7
179 8
180 5
181 6
182 5
183 10
184 7
185 5
186 9
187 6
188 8
189 8
190 5
191 6
192 8
193 7
194 8
195 5
196 7
197 6
198 10
199 5
200 9
201 10
202 10
203 8
204 10
205 5
206 10
207 7
208 6
209 7
210 8
211 10
212 7
213 7
214 5
215 7
216 6
217 7
218 8
219 10
220 9
221 8
222 7
223 8
224 8
225 8
226 5
227 10
228 9
229 8
230 8
231 6
232 8
233 8
234 8
235 10
236 8
237 9
238 9
239 6
240 7
241 8
242 7
243 6
244 10
245 8
246 5
247 8
248 6
249 7
250 8
251 5
COVERAGE_SECTION
2 9 253 582 28 104 308 204 532 488 242 
3 9 139 614 388 26 344 503 580 74 227 
4 9 619 111 205 526 166 269 167 52 273 
5 9 247 398 502 524 393 480 579 250 265 
6 9 366 490 359 325 162 27 521 174 585 
7 9 392 270 226 457 340 567 552 584 223 
8 9 182 135 395 511 218 623 547 19 363 
9 9 187 194 39 569 149 379 424 49 513 
10 9 297 209 548 304 402 320 389 130 614 
11 9 19 511 623 237 182 395 8 135 411 
12 9 86 360 437 500 581 280 598 51 185 
13 9 348 574 43 287 394 538 57 328 127 
14 9 551 412 515 81 495 245 316 433 531 
15 9 514 369 310 16 324 235 343 550 96 
16 9 369 310 235 324 514 550 355 15 60 
17 9 468 476 191 90 95 439 126 330 414 
18 9 163 414 597 267 566 351 578 499 191 
19 9 623 11 511 182 135 8 216 237 411 
20 9 32 596 116 504 197 591 158 174 114 
21 9 241 219 571 73 131 434 176 268 120 
22 9 23 343 87 54 375 617 425 96 193 
23 9 22 87 617 343 193 96 177 375 113 
24 9 370 599 477 467 505 118 442 240 479 
25 9 105 175 469 234 342 474 339 142 364 
26 9 503 580 139 614 3 169 261 344 388 
27 9 162 521 302 102 6 366 606 417 482 
28 9 165 488 2 253 582 308 64 532 242 
29 9 84 560 433 456 531 245 65 192 81 
30 9 430 500 581 51 256 12 86 437 164 
31 9 178 465 422 372 145 442 118 479 477 
32 9 591 596 504 20 454 116 606 197 158 
33 9 127 323 315 43 420 394 538 13 170 
34 9 382 470 120 318 376 498 131 365 268 
35 9 367 99 115 151 300 55 377 465 416 
36 9 98 478 201 459 119 314 130 156 93 
37 9 107 615 592 62 447 426 82 134 154 
38 9 583 383 147 403 40 347 272 474 121 
39 9 424 194 9 149 565 187 569 513 379 
40 9 121 489 403 221 605 374 585 272 292 
41 9 586 67 555 428 273 269 47 124 257 
42 9 233 70 421 214 621 405 243 485 371 
43 9 13 127 33 538 394 323 348 315 574 
44 9 607 446 415 64 48 145 190 165 564 
45 9 593 491 570 341 173 189 432 461 153 
46 9 565 220 149 39 424 9 187 194 380 
47 9 257 481 244 273 67 83 555 269 420 
48 9 415 564 64 145 44 477 488 370 118 
49 9 621 243 379 569 438 132 421 371 501 
50 9 146 322 71 278 361 112 448 545 610 
51 9 581 141 256 346 437 500 164 400 430 
52 9 56 286 167 166 205 352 526 255 619 
53 9 249 106 294 337 456 84 29 296 515 
54 9 78 590 22 343 425 386 453 375 390 
55 9 99 367 542 66 465 35 519 151 422 
56 9 52 286 255 166 167 205 352 526 619 
57 9 328 287 13 185 574 538 348 356 170 
58 9 358 464 554 409 122 561 91 137 306 
59 9 441 255 164 256 286 400 141 56 52 
60 9 235 550 310 16 96 355 193 369 617 
61 9 329 280 360 271 436 598 86 138 12 
62 9 615 447 107 37 154 312 238 426 592 
63 9 251 76 520 326 126 527 357 330 452 
64 9 415 488 48 165 564 446 44 28 145 
65 9 192 531 245 433 560 391 77 204 29 
66 9 542 55 519 99 460 367 465 528 151 
67 9 273 555 47 269 257 586 41 244 481 
68 9 397 258 406 236 466 461 186 404 339 
69 9 173 260 309 362 616 593 45 506 302 
70 9 233 421 42 371 485 243 621 160 214 
71 9 610 322 146 152 50 278 444 74 493 
72 9 436 138 287 57 574 185 271 348 13 
73 9 303 524 571 219 265 275 423 408 21 
74 9 429 227 388 344 573 3 207 285 152 
75 9 125 156 93 539 459 298 85 304 209 
76 9 326 63 251 452 357 544 520 527 126 
77 9 391 204 532 104 192 65 240 242 2 
78 9 386 590 54 457 226 425 453 390 392 
79 9 136 313 283 560 104 204 308 65 433 
80 9 248 157 266 506 202 196 362 260 512 
81 9 551 412 14 245 515 531 316 433 192 
82 9 217 592 134 37 107 198 611 615 447 
83 9 481 589 263 244 535 47 232 257 420 
84 9 29 456 560 433 531 245 136 65 81 
85 9 539 144 298 499 288 169 261 351 75 
86 9 360 12 598 280 437 500 559 61 329 
87 9 617 23 96 193 22 343 310 550 113 
88 9 373 595 471 354 281 612 321 212 320 
89 9 609 327 188 460 519 66 542 349 31 
90 9 476 191 468 351 298 17 414 499 539 
91 9 358 409 464 58 335 368 554 602 484 
92 9 155 335 368 91 282 409 317 484 554 
93 9 125 156 459 75 357 304 36 130 326 
94 9 117 97 537 546 129 401 510 604 334 
95 9 523 17 191 440 468 439 101 476 563 
96 9 617 87 193 550 310 235 23 22 60 
97 9 537 546 510 129 604 94 117 588 401 
98 9 36 130 281 389 201 354 548 595 612 
99 9 55 367 542 66 35 465 151 519 422 
100 9 222 376 498 239 203 199 501 620 333 
101 9 439 110 284 330 533 262 556 126 440 
102 9 606 417 27 482 454 504 591 162 516 
103 9 563 148 311 113 254 523 163 578 18 
104 9 204 308 313 253 283 2 582 77 65 
105 9 25 474 234 342 364 469 175 339 272 
106 9 53 296 515 84 456 29 14 551 81 
107 9 37 615 62 592 447 426 154 312 82 
108 9 507 229 332 264 109 301 413 179 211 
109 9 264 443 108 229 140 507 426 413 301 
110 9 284 262 101 533 330 556 439 527 305 
111 9 4 619 205 526 166 269 167 52 273 
112 9 509 133 150 361 277 545 50 448 180 
113 9 148 103 311 563 254 193 177 578 617 
114 9 158 197 596 591 32 20 454 572 504 
115 9 300 377 35 172 495 412 551 316 416 
116 9 174 504 20 32 585 591 596 292 6 
117 9 94 200 334 401 284 546 556 97 537 
118 9 442 477 599 479 505 422 24 178 370 
119 8 201 336 314 36 478 98 281 612 
120 9 470 131 382 268 318 34 473 21 219 
121 9 489 221 40 605 585 325 490 292 359 
122 8 603 464 472 336 358 58 119 201 
123 9 271 445 475 138 259 602 553 431 463 
124 9 517 246 428 410 529 159 555 586 213 
125 9 93 75 156 459 357 326 63 539 76 
126 9 330 439 533 520 63 251 17 101 476 
127 9 33 323 315 43 394 420 538 13 170 
128 9 486 317 588 155 307 484 335 228 510 
129 9 537 97 546 94 510 117 604 401 588 
130 9 548 389 98 304 320 10 459 156 595 
131 9 268 473 120 470 219 275 423 21 285 
132 9 333 199 438 501 540 222 498 536 376 
133 9 509 112 361 545 150 180 277 448 485 
134 9 217 592 82 37 107 295 615 458 426 
135 9 218 182 8 623 511 19 455 181 11 
136 9 79 313 560 433 65 531 204 283 29 
137 9 561 306 290 554 307 228 484 544 452 
138 9 271 72 436 287 574 329 348 57 276 
139 9 26 3 503 580 614 344 388 227 303 
140 9 443 552 386 264 392 457 109 270 413 
141 9 346 51 400 256 581 164 441 594 356 
142 9 175 469 25 342 234 105 450 236 258 
143 9 624 384 129 289 496 588 497 537 97 
144 9 288 169 261 85 480 502 503 614 26 
145 9 415 48 372 564 44 190 64 607 178 
146 9 322 50 71 610 278 88 152 444 212 
147 9 347 583 383 38 474 403 272 40 105 
148 9 103 563 311 113 254 578 18 163 523 
149 9 565 39 9 187 424 194 46 569 379 
150 9 277 112 180 509 133 411 212 577 361 
151 9 319 35 416 99 367 55 542 600 115 
152 9 74 71 207 444 451 610 429 278 493 
153 9 341 359 366 491 162 521 570 432 45 
154 9 238 312 62 15 343 447 590 54 514 
155 9 335 92 317 484 409 91 128 368 554 
156 9 93 459 125 75 304 130 36 548 98 
157 9 80 248 266 506 202 196 362 512 260 
158 9 114 197 596 32 591 20 454 572 504 
159 9 246 410 529 124 517 396 428 547 213 
160 9 293 536 371 208 448 385 493 230 540 
161 8 216 522 601 418 472 577 321 603 
162 9 521 27 302 6 366 153 102 359 490 
163 9 18 414 597 351 267 566 578 191 90 
164 9 256 441 59 141 255 400 51 346 581 
165 9 28 488 64 2 253 446 582 242 532 
166 9 526 205 111 619 4 167 52 269 323 
167 9 170 166 526 538 205 52 111 352 328 
168 9 350 237 224 11 331 405 214 395 171 
169 9 261 480 502 144 288 503 26 247 580 
170 9 538 328 167 43 352 13 127 323 33 
171 9 435 224 168 350 549 331 396 237 395 
172 9 416 608 495 115 300 600 296 319 515 
173 9 69 593 45 616 491 341 570 186 260 
174 9 116 504 585 6 490 20 32 292 366 
175 9 342 25 142 105 469 568 234 474 339 
176 9 434 223 210 584 241 571 408 525 21 
177 9 578 279 267 566 113 148 291 250 375 
178 9 31 422 442 118 479 477 505 599 465 
179 9 620 301 557 239 211 413 100 332 203 
180 9 411 150 277 133 509 112 485 577 361 
181 9 455 276 553 463 259 445 218 618 232 
182 9 8 511 135 395 623 19 11 218 547 
183 9 559 598 225 86 558 360 12 61 280 
184 9 345 266 196 157 80 202 248 534 450 
185 9 356 57 346 328 437 72 436 594 287 
186 9 466 406 616 397 68 258 236 593 173 
187 9 9 149 194 569 39 379 49 621 424 
188 9 327 609 89 31 349 372 460 519 353 
189 9 432 404 570 491 461 341 45 593 339 
190 9 372 607 145 44 415 353 446 48 64 
191 9 90 468 17 476 414 351 163 95 18 
192 9 65 245 531 433 391 77 560 316 81 
193 9 617 96 87 113 23 254 550 311 103 
194 9 569 9 424 513 379 39 203 49 438 
195 9 274 324 514 15 369 16 355 206 447 
196 9 266 202 345 248 80 157 506 186 362 
197 9 158 114 596 20 32 591 504 454 116 
198 9 611 82 217 274 534 447 462 37 107 
199 9 501 132 438 333 222 498 376 203 100 
200 9 334 556 440 117 284 101 110 95 523 
201 9 119 36 336 98 281 612 478 314 354 
202 9 248 196 80 266 157 186 616 506 362 
203 9 513 501 438 199 100 222 379 132 569 
204 9 104 313 77 308 2 253 283 582 65 
205 9 526 619 4 111 166 167 52 269 56 
206 9 562 355 16 324 60 235 369 497 550 
207 9 451 285 429 473 74 573 427 152 227 
208 9 540 293 215 427 230 160 385 318 536 
209 9 402 304 10 297 144 548 614 85 130 
210 9 525 584 299 176 223 434 340 390 453 
211 9 179 620 301 332 557 239 413 203 100 
212 9 577 277 418 88 150 112 373 50 146 
213 9 363 547 449 257 263 410 529 517 47 
214 9 405 233 42 485 70 331 421 621 133 
215 9 427 230 451 318 473 207 208 385 268 
216 8 161 601 522 418 411 577 277 472 
217 9 82 134 592 37 107 198 611 615 447 
218 9 135 455 8 618 181 232 363 449 547 
219 9 21 241 571 73 275 423 131 268 285 
220 9 565 46 39 424 387 149 332 194 211 
221 9 605 489 121 585 490 325 359 40 292 
222 9 498 100 376 199 501 333 132 203 438 
223 9 434 567 584 340 365 176 210 525 241 
224 9 350 168 171 237 396 549 395 11 331 
225 9 558 559 183 598 492 483 360 61 86 
226 9 457 7 340 392 525 584 390 453 567 
227 9 429 344 573 388 74 285 303 275 423 
228 9 307 290 306 137 575 541 561 305 544 
229 9 507 108 109 264 332 426 301 443 413 
230 9 385 427 215 444 451 493 278 207 208 
231 9 407 572 543 516 494 482 454 417 587 
232 9 618 589 535 263 449 83 363 481 244 
233 9 70 42 214 405 485 421 621 133 243 
234 9 469 339 364 25 258 236 68 105 397 
235 9 550 310 60 16 96 369 617 193 355 
236 9 258 397 68 406 466 186 234 461 469 
237 9 350 168 11 511 395 19 224 182 623 
238 9 154 312 590 343 54 62 15 22 78 
239 9 557 620 179 413 100 301 222 270 552 
240 9 242 532 467 370 24 77 391 2 599 
241 9 21 571 219 434 176 73 131 223 365 
242 9 532 240 467 370 2 24 77 488 391 
243 9 371 421 621 49 536 132 438 333 70 
244 9 420 481 47 83 273 257 315 269 323 
245 9 192 531 65 433 81 560 316 391 29 
246 9 124 428 517 159 410 529 586 41 555 
247 9 5 502 480 169 261 524 398 580 265 
248 9 80 202 157 266 196 506 362 260 616 
249 9 294 337 53 106 456 84 29 560 136 
250 9 393 398 279 5 508 579 247 566 267 
251 9 63 76 520 326 527 126 533 330 357 
252 9 292 489 40 121 585 221 605 116 174 
253 9 582 2 308 28 104 204 283 165 313 
254 9 311 563 103 113 148 523 193 95 440 
255 9 59 441 286 56 52 164 400 352 594 
256 9 164 141 51 441 581 59 346 400 430 
257 9 47 481 555 83 67 244 273 213 263 
258 9 397 236 68 406 466 461 186 234 339 
259 9 463 445 553 431 181 276 455 123 487 
260 9 362 506 69 616 173 186 512 309 248 
261 9 169 480 502 288 144 247 503 580 26 
262 9 110 284 533 330 101 527 305 520 439 
263 9 589 449 83 232 363 481 535 618 257 
264 9 109 443 108 140 229 507 413 301 552 
265 9 408 524 579 508 73 398 571 5 247 
266 9 196 80 157 345 248 202 506 362 260 
267 9 566 578 18 163 279 597 414 351 177 
268 9 131 473 120 285 275 423 219 470 318 
269 9 273 67 4 111 619 244 47 420 205 
270 9 7 552 392 457 340 226 567 365 584 
271 9 138 436 72 329 123 280 61 287 185 
272 9 374 403 364 40 474 121 339 383 404 
273 9 269 67 47 244 420 257 555 481 4 
274 9 195 324 514 419 447 15 369 16 355 
275 9 423 285 573 303 219 73 227 268 429 
276 9 181 455 553 394 535 618 348 232 259 
277 9 150 112 577 212 509 180 133 411 418 
278 9 444 493 385 230 152 50 451 71 427 
279 9 250 566 267 578 177 393 398 18 291 
280 9 329 61 360 436 86 12 271 138 598 
281 8 354 612 471 98 373 595 201 88 
282 9 368 492 483 602 123 475 92 61 329 
283 9 308 313 104 582 253 204 79 2 136 
284 9 110 262 101 556 533 330 439 334 200 
285 9 423 573 275 207 227 429 473 268 74 
286 9 52 352 56 594 255 400 59 167 441 
287 9 574 348 13 57 394 43 72 538 328 
288 9 144 261 169 480 85 502 499 247 539 
289 9 497 624 496 562 206 401 518 355 419 
290 9 306 137 544 561 452 228 307 541 76 
291 9 299 375 390 425 453 393 210 250 508 
292 9 585 252 489 221 174 116 121 605 490 
293 9 160 208 385 536 230 371 540 493 215 
294 9 337 249 53 106 456 84 29 296 560 
295 9 458 387 426 229 134 507 592 108 332 
296 9 106 495 608 515 172 14 551 412 81 
297 9 10 402 209 614 3 304 548 320 610 
298 9 539 499 85 90 351 597 75 288 476 
299 9 210 291 525 508 390 393 176 579 398 
300 9 115 377 35 316 412 505 479 551 495 
301 9 179 413 620 557 211 239 332 108 264 
302 9 162 521 27 102 378 6 153 309 366 
303 9 73 573 227 275 423 344 139 388 580 
304 9 209 10 548 130 389 156 402 297 75 
305 9 527 541 575 520 533 262 251 63 330 
306 9 137 290 561 228 307 544 554 452 484 
307 9 228 137 306 561 290 484 575 541 554 
308 9 582 253 283 104 204 2 313 28 77 
309 8 378 69 302 587 173 521 162 27 
310 9 235 550 369 16 96 15 514 617 87 
311 9 563 103 148 254 113 523 95 163 578 
312 9 590 238 443 154 386 140 78 54 62 
313 9 104 283 204 308 136 79 582 253 65 
314 9 478 119 36 336 201 357 452 98 326 
315 9 33 323 127 420 43 244 394 538 13 
316 9 391 245 81 192 412 65 77 551 531 
317 9 484 128 155 335 307 228 137 409 561 
318 9 382 120 470 131 215 268 473 427 34 
319 9 151 416 600 35 172 99 115 367 608 
320 9 389 595 548 10 130 354 297 98 281 
321 7 373 471 612 281 88 354 418 
322 9 146 71 610 50 152 278 88 444 320 
323 9 33 127 315 43 420 538 394 167 170 
324 9 514 369 16 15 355 310 195 235 550 
325 9 359 490 605 366 221 6 489 585 121 
326 9 76 357 63 452 251 544 520 125 527 
327 9 609 89 188 460 349 519 353 31 66 
328 9 170 538 57 352 13 43 167 594 356 
329 9 61 280 271 436 360 138 72 86 12 
330 9 533 126 439 101 520 262 527 110 251 
331 9 214 405 42 233 168 70 485 621 421 
332 9 108 507 211 301 229 179 620 264 413 
333 9 132 199 438 501 540 498 222 376 536 
334 9 200 556 440 284 101 117 110 95 523 
335 9 155 409 484 91 317 554 92 58 358 
336 8 119 201 314 603 478 36 612 281 
337 9 294 249 53 106 456 84 29 296 560 
338 8 494 587 378 543 309 407 516 231 
339 9 364 404 234 461 189 68 432 258 469 
340 9 567 584 223 7 525 226 365 210 434 
341 9 491 570 432 45 153 189 593 404 461 
342 9 175 25 568 105 474 142 469 234 339 
343 9 22 23 87 54 96 617 15 310 193 
344 9 388 227 429 74 573 3 139 303 26 
345 9 196 266 202 248 80 157 506 362 260 
346 9 141 400 356 51 594 437 256 581 352 
347 9 147 583 38 383 474 403 272 105 40 
348 9 574 13 287 394 43 538 57 127 33 
349 9 353 188 327 609 372 190 89 31 145 
350 9 168 237 224 11 395 511 171 396 182 
351 9 597 414 499 163 18 90 298 191 267 
352 9 594 286 170 328 400 167 52 356 538 
353 9 190 349 372 188 145 607 44 31 415 
354 9 281 471 595 612 373 98 88 389 320 
355 9 206 16 562 324 235 369 60 550 310 
356 9 346 594 185 400 57 328 352 141 437 
357 9 326 76 452 63 478 544 93 125 251 
358 9 464 58 409 554 91 122 561 137 484 
359 9 325 366 490 6 605 153 221 585 489 
360 9 86 12 280 598 61 329 559 437 436 
361 9 545 448 509 112 133 50 150 278 277 
362 9 260 506 69 616 173 512 248 186 80 
363 9 449 263 547 213 589 232 618 83 257 
364 9 339 404 374 272 189 461 234 432 570 
365 9 223 567 434 340 584 176 241 21 34 
366 9 6 490 359 325 162 521 153 27 605 
367 9 99 55 465 35 542 422 66 151 377 
368 9 91 282 602 92 475 335 155 409 358 
369 9 16 514 310 15 324 235 550 355 96 
370 9 24 467 240 242 477 599 532 505 118 
371 9 536 243 160 421 293 208 540 132 621 
372 9 190 145 31 415 607 44 353 48 178 
373 7 471 88 612 321 354 281 595 
374 9 272 364 403 40 121 432 189 404 605 
375 9 425 291 390 453 299 525 177 210 22 
376 9 498 222 34 100 382 199 333 132 318 
377 9 300 505 479 599 115 422 467 24 316 
378 9 587 309 302 494 516 482 27 417 102 
379 9 569 49 513 438 501 203 132 194 199 
380 9 435 46 149 565 187 171 331 9 39 
381 9 608 600 416 172 613 296 319 495 151 
382 9 34 120 318 470 131 268 376 498 473 
383 9 583 38 403 147 474 272 40 347 374 
384 9 530 622 143 624 496 568 289 342 497 
385 9 493 230 444 278 427 215 451 293 208 
386 9 78 457 590 392 226 140 7 54 552 
387 9 458 295 220 507 229 332 108 426 46 
388 9 344 227 74 429 3 139 573 303 26 
389 9 548 130 320 595 98 10 304 354 281 
390 9 453 425 525 375 291 210 299 226 584 
391 9 77 192 316 65 240 245 532 204 242 
392 9 457 7 270 552 226 386 340 140 567 
393 9 250 398 508 579 5 408 279 265 299 
394 9 348 43 13 574 127 33 315 287 323 
395 9 182 8 511 11 237 159 396 135 529 
396 9 549 159 395 246 224 410 529 124 517 
397 9 68 258 236 406 466 186 461 404 339 
398 9 393 508 579 5 250 408 265 524 247 
399 9 528 319 151 600 542 66 416 99 519 
400 9 594 141 346 286 352 356 441 59 164 
401 9 518 94 117 200 334 129 97 537 546 
402 9 297 209 10 614 3 304 26 139 503 
403 9 40 272 383 374 38 121 489 583 605 
404 9 189 461 432 570 339 491 341 364 45 
405 9 214 233 485 42 70 331 421 133 180 
406 9 466 186 397 68 258 236 616 461 593 
407 9 231 572 543 516 494 482 454 417 587 
408 9 265 579 508 524 398 571 5 73 393 
409 9 554 484 58 358 335 91 561 464 137 
410 9 529 517 213 547 124 159 363 449 555 
411 9 180 150 277 216 577 112 133 509 212 
412 9 551 14 81 515 316 245 495 192 531 
413 9 557 301 239 620 179 552 270 264 140 
414 9 163 18 597 351 191 267 90 566 499 
415 9 48 564 64 145 44 488 446 607 477 
416 9 172 600 319 151 608 115 35 300 495 
417 9 482 606 454 102 516 591 32 504 27 
418 8 577 212 601 321 373 161 277 88 
419 9 274 195 562 497 206 496 289 324 355 
420 9 244 315 323 33 127 481 273 83 47 
421 9 243 621 70 371 42 536 49 233 160 
422 9 479 442 118 505 599 178 477 24 465 
423 9 275 285 573 303 219 227 73 473 268 
424 9 39 194 9 211 513 203 569 149 379 
425 9 453 390 375 291 525 299 210 78 226 
426 9 229 109 507 443 264 108 312 615 62 
427 9 215 230 451 207 385 473 208 318 444 
428 9 124 246 586 41 517 555 67 410 529 
429 9 74 227 344 573 388 285 207 275 303 
430 9 256 500 581 51 164 141 441 59 30 
431 9 259 463 445 553 487 576 181 475 123 
432 9 189 570 341 491 404 461 45 593 153 
433 9 531 560 245 29 65 192 84 81 136 
434 9 176 223 584 365 567 210 241 21 340 
435 9 171 224 331 380 168 350 549 237 214 
436 9 72 138 271 185 280 329 57 287 574 
437 9 581 51 346 141 500 12 356 185 256 
438 9 501 199 132 333 379 513 203 222 49 
439 9 330 126 101 533 17 468 476 95 262 
440 9 556 334 200 95 523 101 284 110 254 
441 9 59 164 255 256 400 141 286 346 594 
442 9 118 477 599 479 505 422 24 178 370 
443 9 109 140 264 312 386 590 552 392 108 
444 9 493 278 385 230 152 451 427 207 215 
445 9 259 463 553 431 181 276 123 455 138 
446 9 44 607 64 165 415 488 28 48 145 
447 9 62 107 615 154 37 238 195 274 312 
448 9 545 361 160 278 509 50 493 112 133 
449 9 263 363 589 232 618 83 213 547 535 
450 9 142 534 175 469 342 25 236 234 258 
451 9 207 427 215 230 473 152 285 444 385 
452 9 544 326 76 357 290 63 251 306 520 
453 9 390 425 375 525 291 210 299 226 584 
454 9 417 591 606 482 32 596 516 102 504 
455 9 181 276 618 218 232 553 535 463 589 
456 9 84 29 560 433 531 136 245 65 79 
457 9 392 226 7 386 78 270 552 340 525 
458 9 295 387 426 229 507 134 108 592 332 
459 9 156 93 125 36 75 130 304 98 357 
460 9 519 66 542 89 528 55 609 327 99 
461 9 404 189 570 68 432 491 339 45 593 
462 9 198 217 82 611 134 534 592 184 399 
463 9 259 445 553 431 181 455 276 218 487 
464 9 358 58 122 409 91 554 336 561 603 
465 9 367 422 178 55 99 479 31 442 35 
466 9 406 186 397 68 258 616 236 593 461 
467 9 240 370 24 242 532 599 505 391 477 
468 9 476 17 90 191 95 351 439 298 414 
469 9 234 25 236 339 258 105 68 397 142 
470 9 120 382 34 131 318 268 21 473 219 
471 8 612 281 373 354 321 88 595 98 
472 7 603 321 601 522 122 336 418 
473 9 268 131 285 207 423 275 120 451 215 
474 9 105 272 383 25 364 403 374 583 339 
475 9 602 487 123 576 431 445 368 259 91 
476 9 468 17 90 191 298 351 439 126 95 
477 9 118 599 442 24 505 479 370 564 422 
478 9 314 36 119 201 357 459 336 98 93 
479 9 505 422 442 599 118 477 24 178 370 
480 9 502 261 169 247 288 5 144 580 503 
481 9 83 47 244 257 263 589 420 535 232 
482 9 417 516 606 454 102 591 572 587 32 
483 9 492 558 225 282 559 61 183 92 368 
484 9 554 561 137 409 307 306 335 228 317 
485 9 233 405 133 214 70 180 509 42 545 
486 9 128 317 588 155 335 484 92 307 510 
487 9 576 475 431 602 259 463 445 522 122 
488 9 165 28 64 2 242 532 253 48 582 
489 9 121 221 605 40 585 490 325 292 359 
490 9 325 366 6 359 585 605 221 174 489 
491 9 570 341 45 593 432 189 461 404 153 
492 9 483 282 558 225 61 368 559 329 598 
493 9 444 278 385 230 451 152 427 215 207 
494 8 543 407 587 338 231 516 378 572 
495 9 515 14 412 551 172 115 81 296 300 
496 9 289 624 497 562 384 206 419 530 143 
497 9 289 496 624 562 206 355 518 401 419 
498 9 376 222 199 100 333 34 382 132 501 
499 9 298 351 85 539 597 288 90 414 18 
500 9 581 51 437 430 256 12 141 346 164 
501 9 438 199 132 333 203 222 513 379 498 
502 9 480 247 261 169 5 288 580 503 26 
503 9 26 580 139 614 3 169 261 502 303 
504 9 116 32 591 174 20 596 606 102 454 
505 9 599 479 442 118 477 24 422 370 467 
506 9 362 260 512 80 248 69 157 616 173 
507 9 229 108 332 109 264 301 426 413 211 
508 9 579 398 393 408 265 5 524 250 299 
509 9 133 112 361 545 150 277 448 180 50 
510 9 604 546 97 537 94 117 129 110 262 
511 9 182 19 623 11 8 135 395 237 218 
512 8 506 362 260 69 309 338 157 80 
513 9 203 379 501 438 569 199 194 222 132 
514 9 15 324 369 16 310 235 550 355 195 
515 9 14 551 412 81 495 245 29 84 433 
516 9 482 417 454 572 606 231 407 587 102 
517 9 124 410 529 213 555 428 246 586 159 
518 9 401 117 200 334 94 60 440 556 129 
519 9 460 66 542 55 89 99 528 188 609 
520 9 527 251 63 533 305 76 330 126 541 
521 9 162 302 27 6 366 153 102 359 490 
522 8 161 601 472 216 418 603 321 576 
523 9 95 311 254 563 103 440 148 191 17 
524 9 265 408 73 579 5 247 398 508 571 
525 9 210 584 390 299 340 453 176 223 226 
526 9 205 166 111 619 4 167 52 269 56 
527 9 305 520 541 533 575 251 63 262 330 
528 9 460 519 66 542 399 55 99 151 89 
529 9 410 517 547 213 124 363 159 449 555 
530 9 622 384 568 342 175 496 624 142 25 
531 9 433 65 245 192 560 29 81 84 136 
532 9 242 240 467 2 77 370 391 488 24 
533 9 330 262 520 126 527 439 101 110 305 
534 9 450 419 198 611 142 274 345 195 196 
535 9 232 589 618 83 263 481 449 244 420 
536 9 371 160 243 293 540 208 421 132 333 
537 9 97 546 129 510 94 604 117 588 401 
538 9 170 328 43 13 167 127 33 323 57 
539 9 298 85 499 75 90 144 351 288 597 
540 9 208 333 132 293 536 318 215 498 199 
541 9 575 305 527 520 544 228 76 251 533 
542 9 66 55 99 519 367 460 465 151 35 
543 9 494 407 231 516 572 587 482 338 378 
544 9 452 326 76 290 357 63 251 541 306 
545 9 361 448 509 133 112 50 160 278 493 
546 9 97 537 510 604 94 129 117 588 110 
547 9 363 213 449 529 410 263 589 232 257 
548 9 389 130 10 320 304 98 595 209 297 
549 9 396 159 224 246 395 171 350 124 410 
550 9 235 310 60 96 16 369 617 193 87 
551 9 412 14 81 515 316 245 495 531 433 
552 9 270 392 7 457 140 226 413 386 557 
553 9 259 445 463 181 276 455 431 138 123 
554 9 561 409 137 484 58 306 358 290 464 
555 9 67 257 586 47 273 41 213 269 517 
556 9 334 440 200 101 284 110 95 262 439 
557 9 413 239 620 179 301 552 270 100 211 
558 9 225 483 559 183 492 598 61 360 86 
559 9 183 598 225 86 360 558 12 61 280 
560 9 433 29 531 84 136 65 245 192 456 
561 9 137 306 554 290 484 307 228 409 544 
562 9 206 355 497 16 324 60 369 235 518 
563 9 103 311 148 254 113 523 163 578 18 
564 9 48 415 477 64 370 24 118 442 145 
565 9 149 46 39 220 424 9 187 194 569 
566 9 267 578 18 279 163 597 414 351 250 
567 9 340 223 584 365 434 7 176 210 525 
568 9 342 175 622 25 105 530 474 142 347 
569 9 379 49 513 194 438 501 203 621 9 
570 9 491 341 432 189 45 593 404 461 153 
571 9 241 21 219 73 265 408 524 176 434 
572 9 231 407 516 454 482 543 417 591 606 
573 9 227 285 429 275 423 344 74 303 388 
574 9 348 287 13 394 43 57 538 328 127 
575 9 541 305 527 520 228 262 533 251 290 
576 9 487 431 522 475 602 161 122 259 463 
577 8 212 418 277 150 88 112 373 321 
578 9 267 566 279 18 177 163 148 414 597 
579 9 508 408 265 398 524 393 5 250 247 
580 9 26 503 139 614 3 169 261 502 303 
581 9 51 500 437 141 256 346 164 430 400 
582 9 253 308 2 28 104 283 204 313 165 
583 9 38 383 147 347 403 474 40 272 121 
584 9 340 223 567 210 525 434 176 365 226 
585 9 221 490 605 174 489 292 121 6 325 
586 9 41 555 67 428 273 269 47 257 124 
587 9 378 516 494 482 543 417 309 302 102 
588 9 537 97 546 510 129 604 128 317 94 
589 9 263 232 449 83 535 618 363 481 257 
590 9 78 386 54 312 457 140 226 392 238 
591 9 32 596 454 504 606 20 417 482 102 
592 9 37 107 615 134 82 62 217 447 426 
593 9 45 491 570 341 173 189 432 461 406 
594 9 352 400 356 286 346 328 141 170 52 
595 9 320 354 389 281 88 373 471 548 612 
596 9 32 591 20 158 197 454 504 114 606 
597 9 351 18 163 414 499 267 566 90 298 
598 9 559 86 360 183 12 280 225 61 329 
599 9 505 477 118 442 24 479 370 422 467 
600 9 416 319 172 608 151 381 115 35 495 
601 8 522 161 418 216 472 321 603 577 
602 9 475 487 368 123 576 91 431 445 464 
603 7 472 336 122 321 119 612 201 
604 9 510 546 97 537 94 117 110 262 284 
605 9 221 489 121 325 490 585 359 40 366 
606 9 417 102 482 454 591 504 32 516 27 
607 9 44 446 190 415 145 64 48 372 165 
608 9 172 296 416 495 381 600 115 515 319 
609 9 327 89 188 460 519 349 66 31 353 
610 9 71 322 146 152 297 74 320 10 50 
611 9 198 82 274 447 195 217 419 107 37 
612 8 471 281 354 373 321 595 201 98 
613 9 381 608 600 296 416 172 319 495 151 
614 9 3 26 139 503 580 402 169 388 261 
615 9 107 37 62 447 592 426 312 154 238 
616 9 186 466 406 173 260 593 69 362 45 
617 9 96 193 87 23 550 113 310 22 235 
618 9 232 535 589 263 449 83 363 455 481 
619 9 4 111 205 526 166 269 167 52 273 
620 9 179 239 557 301 413 211 100 203 222 
621 9 243 49 421 42 371 536 70 379 569 
622 9 530 384 568 342 175 347 147 105 474 
623 9 19 511 135 11 182 8 218 216 395 
624 9 289 496 497 143 384 562 401 206 129 
DEPOT_SECTION
   1
   -1
EOF
