NAME :  X-n670-kX-w267-c7.cctp
COMMENT : 	Adapted by Maziero, Usberti and Cavellucci from the Uchoa, Pecin, Pessoa, Poggi, Subramanian, and Vidal (2013)
TYPE :  CCTP
DIMENSION :    665
EDGE_WEIGHT_TYPE : 	EUC_2D	
CAPACITY : 	129
VERTICES_WITHIN_COVERAGE :  7
VERTICES_WITH_DEMAND : 	267
NODE_COORD_SECTION
1 612 199
2 864 279
3 746 395
4 738 519
5 684 851
6 806 263
7 867 314
8 637 357
9 64 531
10 803 657
11 22 330
12 634 731
13 351 945
14 240 812
15 664 595
16 775 1000
17 971 313
18 953 717
19 317 25
20 812 410
21 677 874
22 731 504
23 89 803
24 697 604
25 53 379
26 817 947
27 164 875
28 86 108
29 9 596
30 406 956
31 304 456
32 843 846
33 285 809
34 148 84
35 349 524
36 527 626
37 947 317
38 646 27
39 718 325
40 906 651
41 889 936
42 953 118
43 908 868
44 447 13
45 335 495
46 77 834
47 992 428
48 826 196
49 337 341
50 482 288
51 123 49
52 415 572
53 274 837
54 581 738
55 33 36
56 795 906
57 353 858
58 242 80
59 532 464
60 246 853
61 109 299
62 285 353
63 5 669
64 255 457
65 909 568
66 986 234
67 920 756
68 7 655
69 441 88
70 569 543
71 317 94
72 897 775
73 226 802
74 716 738
75 320 820
76 15 31
77 114 664
78 60 419
79 629 333
80 662 34
81 780 143
82 689 829
83 19 801
84 836 281
85 227 730
86 640 347
87 850 655
88 742 663
89 290 424
90 407 997
91 553 92
92 286 957
93 129 245
94 435 940
95 141 578
96 578 334
97 732 726
98 624 979
99 705 340
100 431 858
101 416 416
102 826 58
103 913 873
104 862 977
105 326 380
106 344 764
107 512 437
108 589 34
109 937 700
110 439 819
111 826 559
112 535 764
113 547 971
114 822 590
115 257 530
116 324 789
117 788 804
118 156 583
119 788 907
120 788 123
121 115 327
122 561 946
123 477 11
124 455 671
125 317 685
126 105 965
127 962 433
128 62 729
129 5 534
130 314 568
131 957 527
132 47 482
133 123 549
134 665 826
135 756 911
136 50 508
137 439 921
138 86 447
139 731 971
140 417 273
141 52 855
142 463 281
143 832 357
144 693 636
145 890 71
146 131 820
147 85 486
148 130 344
149 204 308
150 381 694
151 98 41
152 182 538
153 78 818
154 954 175
155 555 470
156 4 246
157 925 867
158 546 678
159 717 485
160 958 891
161 980 240
162 306 252
163 925 566
164 105 781
165 812 738
166 337 94
167 96 457
168 713 619
169 815 673
170 193 37
171 229 668
172 750 998
173 713 377
174 383 57
175 898 976
176 388 899
177 57 697
178 869 771
179 755 921
180 504 197
181 727 494
182 564 932
183 30 311
184 175 156
185 429 144
186 836 939
187 35 719
188 183 932
189 200 42
190 6 329
191 656 984
192 515 67
193 904 97
194 850 281
195 858 708
196 856 1
197 732 232
198 92 113
199 183 762
200 99 558
201 703 888
202 914 786
203 255 781
204 838 456
205 167 519
206 448 397
207 273 665
208 869 804
209 300 97
210 282 690
211 514 82
212 694 598
213 606 610
214 955 545
215 835 965
216 16 229
217 418 558
218 458 484
219 169 8
220 242 978
221 395 462
222 739 169
223 29 177
224 983 512
225 28 353
226 195 905
227 6 201
228 549 395
229 132 282
230 180 133
231 267 75
232 459 577
233 354 814
234 499 941
235 59 558
236 931 901
237 666 528
238 909 551
239 208 677
240 386 600
241 869 521
242 622 830
243 615 221
244 953 797
245 92 906
246 803 785
247 762 251
248 957 6
249 294 309
250 68 61
251 207 587
252 431 633
253 760 373
254 991 448
255 88 318
256 612 473
257 603 258
258 593 372
259 621 298
260 434 211
261 265 137
262 852 404
263 599 648
264 41 925
265 17 702
266 198 753
267 893 251
268 278 581
269 458 655
270 15 767
271 953 259
272 189 538
273 11 220
274 139 439
275 306 589
276 528 43
277 434 633
278 359 900
279 60 422
280 245 738
281 307 647
282 919 921
283 398 706
284 0 149
285 542 28
286 13 415
287 81 655
288 652 200
289 878 63
290 292 936
291 952 248
292 763 701
293 380 49
294 356 176
295 98 852
296 945 802
297 262 472
298 3 108
299 130 746
300 794 150
301 16 297
302 757 663
303 529 867
304 981 443
305 82 768
306 839 433
307 670 588
308 883 41
309 874 141
310 981 726
311 133 673
312 709 822
313 258 312
314 993 615
315 199 777
316 995 677
317 56 320
318 259 438
319 353 945
320 102 17
321 543 844
322 248 300
323 783 112
324 726 266
325 944 700
326 2 569
327 880 608
328 383 363
329 940 348
330 644 381
331 738 647
332 925 264
333 164 391
334 871 137
335 655 838
336 24 441
337 703 67
338 462 4
339 630 680
340 688 380
341 597 758
342 774 414
343 869 62
344 748 82
345 337 487
346 239 564
347 277 764
348 365 569
349 370 415
350 872 918
351 966 955
352 527 371
353 595 345
354 761 704
355 745 698
356 552 38
357 864 223
358 575 418
359 634 443
360 585 637
361 482 633
362 61 319
363 350 533
364 98 246
365 707 298
366 544 935
367 816 701
368 393 463
369 250 586
370 426 554
371 658 570
372 99 899
373 778 1
374 689 736
375 704 155
376 675 682
377 405 693
378 390 804
379 486 361
380 905 954
381 204 948
382 168 343
383 739 482
384 403 374
385 700 693
386 739 711
387 900 705
388 111 617
389 367 999
390 395 526
391 611 607
392 800 873
393 138 574
394 508 172
395 217 654
396 566 346
397 895 268
398 26 302
399 264 705
400 337 760
401 975 574
402 981 331
403 2 508
404 368 849
405 976 942
406 888 203
407 740 867
408 712 181
409 695 582
410 74 819
411 864 81
412 810 168
413 400 966
414 924 776
415 979 276
416 105 134
417 433 571
418 497 386
419 651 251
420 704 274
421 712 142
422 62 350
423 276 320
424 158 422
425 232 190
426 589 261
427 578 815
428 979 553
429 569 491
430 247 101
431 106 580
432 125 281
433 376 586
434 915 744
435 742 479
436 513 366
437 885 281
438 669 455
439 191 889
440 509 202
441 402 151
442 292 387
443 491 202
444 434 328
445 816 33
446 769 86
447 504 328
448 63 922
449 92 533
450 787 990
451 422 190
452 123 301
453 775 517
454 238 923
455 266 229
456 794 427
457 485 623
458 716 603
459 384 901
460 208 400
461 17 138
462 952 175
463 953 960
464 863 568
465 645 528
466 473 40
467 567 988
468 665 5
469 300 160
470 281 999
471 44 4
472 763 761
473 390 315
474 37 567
475 330 676
476 667 799
477 526 664
478 230 780
479 824 302
480 969 848
481 19 766
482 675 686
483 876 329
484 836 902
485 386 574
486 18 851
487 292 841
488 516 721
489 848 931
490 233 856
491 833 61
492 833 332
493 824 67
494 121 796
495 707 857
496 690 527
497 442 109
498 811 783
499 79 234
500 568 362
501 29 570
502 259 444
503 570 840
504 26 660
505 618 855
506 753 424
507 747 462
508 202 510
509 444 757
510 406 880
511 635 529
512 310 765
513 444 966
514 660 987
515 211 608
516 143 544
517 759 555
518 784 434
519 906 911
520 575 734
521 234 493
522 377 928
523 102 786
524 54 485
525 917 138
526 866 690
527 638 224
528 108 715
529 556 739
530 4 955
531 300 357
532 844 603
533 107 934
534 374 477
535 334 958
536 444 99
537 226 253
538 888 24
539 934 938
540 672 417
541 773 618
542 282 880
543 748 850
544 367 534
545 310 838
546 625 343
547 379 388
548 949 696
549 605 114
550 812 229
551 884 888
552 914 913
553 125 541
554 65 369
555 268 824
556 335 460
557 545 601
558 436 107
559 996 311
560 367 379
561 238 666
562 304 808
563 479 607
564 741 978
565 784 502
566 878 347
567 587 607
568 264 329
569 691 618
570 140 350
571 326 770
572 763 494
573 108 29
574 413 515
575 390 406
576 870 632
577 823 5
578 631 919
579 501 606
580 174 503
581 352 487
582 476 22
583 780 505
584 772 324
585 547 428
586 580 425
587 926 505
588 960 705
589 81 301
590 30 367
591 717 772
592 737 141
593 962 592
594 866 231
595 510 737
596 309 524
597 18 304
598 580 38
599 739 598
600 581 633
601 413 455
602 618 953
603 415 820
604 665 638
605 135 578
606 880 775
607 629 631
608 371 600
609 501 223
610 215 451
611 49 525
612 718 972
613 656 456
614 932 564
615 424 764
616 423 93
617 72 355
618 286 840
619 75 872
620 410 700
621 51 518
622 407 141
623 303 414
624 224 557
625 711 483
626 401 128
627 933 250
628 46 598
629 562 503
630 115 157
631 829 113
632 304 785
633 617 993
634 188 816
635 727 298
636 612 777
637 398 880
638 334 458
639 65 991
640 912 247
641 383 233
642 846 703
643 485 768
644 972 386
645 502 763
646 96 937
647 329 97
648 892 400
649 639 318
650 34 810
651 147 837
652 598 9
653 129 390
654 689 739
655 187 735
656 344 952
657 263 610
658 665 405
659 906 931
660 212 478
661 784 249
662 647 257
663 456 454
664 615 858
665 385 722
DEMAND_SECTION
2 50
3 86
4 94
5 54
6 57
7 52
8 66
9 76
10 69
11 57
12 77
13 94
14 64
15 79
16 91
17 55
18 79
19 68
20 51
21 93
22 91
23 68
24 51
25 93
26 91
27 91
28 59
29 76
30 57
31 96
32 97
33 69
34 83
35 58
36 56
37 81
38 96
39 52
40 86
41 78
42 92
43 67
44 56
45 56
46 51
47 91
48 93
49 73
50 70
51 77
52 91
53 64
54 81
55 76
56 51
57 75
58 81
59 57
60 50
61 80
62 53
63 86
64 61
65 62
66 100
67 94
68 89
69 88
70 52
71 60
72 83
73 79
74 64
75 82
76 72
77 90
78 72
79 51
80 88
81 82
82 78
83 80
84 82
85 98
86 70
87 74
88 61
89 88
90 51
91 60
92 57
93 84
94 65
95 57
96 51
97 77
98 63
99 55
100 53
101 88
102 90
103 89
104 70
105 94
106 50
107 62
108 87
109 56
110 89
111 73
112 88
113 94
114 63
115 90
116 86
117 53
118 70
119 75
120 92
121 94
122 67
123 59
124 94
125 52
126 52
127 71
128 79
129 76
130 87
131 54
132 63
133 92
134 69
135 51
136 60
137 83
138 61
139 72
140 61
141 68
142 64
143 70
144 57
145 71
146 91
147 70
148 67
149 96
150 95
151 91
152 57
153 56
154 90
155 70
156 72
157 99
158 80
159 91
160 56
161 72
162 83
163 55
164 80
165 62
166 53
167 60
168 65
169 60
170 60
171 73
172 58
173 88
174 59
175 53
176 57
177 76
178 72
179 82
180 86
181 87
182 55
183 83
184 68
185 89
186 81
187 52
188 54
189 83
190 2
191 6
192 10
193 6
194 3
195 4
196 4
197 3
198 2
199 6
200 10
201 8
202 2
203 6
204 9
205 6
206 8
207 8
208 1
209 5
210 4
211 8
212 2
213 8
214 3
215 4
216 8
217 1
218 1
219 5
220 1
221 4
222 1
223 10
224 2
225 2
226 9
227 2
228 8
229 2
230 8
231 4
232 5
233 6
234 5
235 10
236 5
237 1
238 3
239 7
240 1
241 5
242 9
243 1
244 9
245 3
246 8
247 1
248 7
249 2
250 5
251 8
252 7
253 4
254 5
255 2
256 2
257 4
258 7
259 8
260 1
261 1
262 3
263 8
264 10
265 9
266 3
267 1
268 4
COVERAGE_SECTION
2 7 194 437 84 397 7 267 479 
3 7 253 506 342 173 518 456 340 
4 7 22 181 572 383 453 159 435 
5 7 82 21 495 134 335 312 201 
6 7 661 84 550 479 247 194 2 
7 7 483 2 566 194 437 492 84 
8 7 86 546 79 330 649 353 258 
9 7 611 621 136 235 449 200 474 
10 7 169 302 367 87 541 292 88 
11 7 190 183 225 597 398 301 317 
12 7 341 339 636 54 374 654 520 
13 7 319 656 535 522 278 413 459 
14 7 73 555 203 478 60 53 33 
15 7 307 371 212 24 409 569 604 
16 7 450 172 564 139 612 26 215 
17 7 402 37 559 415 329 271 332 
18 7 588 325 548 109 310 434 67 
19 7 293 71 231 166 174 647 209 
20 7 456 306 518 342 262 204 143 
21 7 5 201 495 335 82 134 312 
22 7 181 4 383 159 435 625 572 
23 7 153 523 410 164 46 494 305 
24 7 212 569 458 168 409 307 144 
25 7 554 590 422 617 225 78 279 
26 7 186 215 489 56 119 484 450 
27 7 439 651 226 188 146 634 372 
28 7 198 416 250 630 34 151 51 
29 7 326 501 628 474 68 129 235 
30 7 413 94 513 522 90 137 319 
31 7 638 556 89 623 297 345 502 
32 7 208 392 484 551 43 117 498 
33 7 562 555 53 618 632 487 75 
34 7 51 230 198 170 28 151 416 
35 7 363 544 45 581 345 596 390 
36 7 557 579 477 457 361 563 600 
37 7 17 329 402 559 415 332 271 
38 7 80 468 652 108 598 337 356 
39 7 99 635 365 173 420 584 324 
40 7 576 327 387 87 526 109 325 
41 7 659 380 350 519 282 552 175 
42 7 525 193 154 462 145 309 334 
43 7 103 157 551 236 519 552 282 
44 7 338 123 582 466 69 293 174 
45 7 345 581 35 556 638 596 363 
46 7 410 153 295 23 141 619 650 
47 7 304 254 127 644 224 329 402 
48 7 412 550 357 594 300 406 661 
49 7 531 105 560 328 62 249 473 
50 7 142 447 444 140 609 379 436 
51 7 573 151 320 34 250 219 28 
52 7 217 417 370 485 240 433 232 
53 7 618 555 487 33 60 545 14 
54 7 520 529 341 636 12 112 488 
55 7 76 471 250 151 320 573 298 
56 7 119 392 135 484 179 26 186 
57 7 404 278 233 545 75 637 459 
58 7 430 231 189 209 261 170 71 
59 7 155 107 585 429 629 586 358 
60 7 490 53 555 14 618 542 487 
61 7 452 432 255 589 121 229 148 
62 7 531 568 423 442 249 105 313 
63 7 68 504 265 187 177 29 287 
64 7 502 297 318 610 521 89 660 
65 7 163 238 614 464 327 214 593 
66 7 161 291 271 415 627 154 332 
67 7 434 414 72 202 606 18 296 
68 7 63 504 265 29 177 628 187 
69 7 536 616 558 497 185 626 466 
70 7 629 429 557 567 511 155 213 
71 7 647 209 166 231 261 469 19 
72 7 606 202 414 178 67 434 208 
73 7 14 478 203 315 634 555 490 
74 7 97 374 654 591 386 385 355 
75 7 562 545 116 233 487 33 632 
76 7 55 471 250 298 151 320 573 
77 7 311 287 388 528 177 128 299 
78 7 279 138 25 336 286 554 167 
79 7 546 86 649 8 259 353 330 
80 6 38 468 337 652 108 598 
81 7 300 120 323 412 592 222 631 
82 7 312 5 134 495 335 476 21 
83 7 650 270 481 486 410 153 141 
84 7 194 479 2 6 7 437 492 
85 7 280 266 655 399 478 199 315 
86 7 8 546 79 649 330 353 258 
87 7 576 526 169 10 642 532 195 
88 7 302 331 355 292 354 386 385 
89 7 623 318 31 442 502 64 297 
90 7 413 389 30 513 94 319 522 
91 7 211 192 356 276 549 598 285 
92 7 290 470 535 220 656 454 13 
93 7 364 432 229 499 452 61 589 
94 7 137 513 30 413 522 176 90 
95 7 393 605 118 133 516 431 553 
96 7 396 353 500 258 546 79 259 
97 7 386 74 355 354 292 374 654 
98 7 633 602 191 514 467 578 122 
99 7 39 173 365 340 635 253 86 
100 7 510 110 637 603 176 137 404 
101 7 575 206 601 384 349 547 221 
102 7 491 493 445 343 411 289 577 
103 7 43 157 236 551 519 552 160 
104 7 215 175 186 489 41 380 26 
105 7 442 531 49 560 623 62 547 
106 7 400 571 116 512 632 233 562 
107 7 59 585 418 155 228 663 358 
108 7 598 652 356 285 38 276 91 
109 7 325 548 18 588 387 434 310 
110 6 603 100 378 615 509 510 
111 7 114 464 532 241 453 517 565 
112 7 529 645 595 488 520 643 54 
113 7 467 122 366 182 234 602 633 
114 7 532 111 464 541 327 576 10 
115 7 346 624 521 596 268 369 297 
116 7 571 632 512 562 75 106 400 
117 7 246 498 472 543 32 165 392 
118 7 95 393 605 516 133 431 251 
119 7 56 135 179 392 484 26 186 
120 7 323 81 300 446 631 412 592 
121 7 148 452 255 61 570 589 432 
122 7 182 366 113 467 602 234 98 
123 7 582 338 466 44 276 285 192 
124 7 269 277 252 361 620 377 457 
125 7 475 210 281 207 399 150 665 
126 7 646 533 639 245 448 372 264 
127 7 304 47 254 644 648 587 224 
128 7 187 177 305 528 265 481 270 
129 7 403 326 501 611 474 621 136 
130 7 275 268 596 363 348 35 544 
131 7 214 224 428 587 614 163 401 
132 7 524 136 621 147 611 336 9 
133 7 553 516 200 393 605 95 431 
134 7 335 82 476 5 242 312 21 
135 7 179 119 56 407 201 392 543 
136 7 621 611 524 132 9 147 403 
137 7 94 513 30 510 176 637 459 
138 7 167 279 78 147 524 132 274 
139 7 564 612 172 16 179 450 135 
140 7 142 473 641 444 260 50 451 
141 7 619 46 486 410 153 295 650 
142 7 50 140 444 447 609 260 473 
143 7 492 566 262 483 7 479 20 
144 7 569 168 604 24 212 458 331 
145 7 289 343 411 193 308 538 491 
146 7 651 494 23 523 295 164 153 
147 7 167 524 132 138 136 621 449 
148 7 570 121 382 452 653 255 61 
149 7 322 382 313 537 568 423 229 
150 6 283 377 665 620 475 125 
151 7 573 320 51 250 55 471 34 
152 7 272 205 508 580 516 624 118 
153 7 410 46 23 295 523 141 650 
154 7 462 525 42 66 161 406 291 
155 7 59 429 629 585 586 107 358 
156 7 216 273 227 301 398 597 183 
157 7 103 43 236 160 551 552 480 
158 7 477 488 36 360 600 263 529 
159 7 625 181 383 22 435 507 4 
160 7 236 157 480 103 282 552 539 
161 7 66 291 271 415 627 332 640 
162 7 455 249 423 322 313 641 537 
163 7 614 65 238 214 593 131 401 
164 7 523 494 305 23 299 153 146 
165 7 367 498 246 642 472 195 292 
166 7 647 71 209 174 293 19 626 
167 7 138 147 274 279 524 78 132 
168 7 458 24 569 144 212 599 331 
169 7 10 367 87 642 526 195 292 
170 7 189 219 34 58 51 231 430 
171 7 561 395 239 207 399 210 85 
172 7 564 16 139 450 612 179 26 
173 7 340 3 99 253 39 658 540 
174 7 293 616 166 69 647 19 558 
175 7 380 104 41 659 539 463 282 
176 7 459 637 510 278 522 57 404 
177 7 187 128 265 287 504 528 63 
178 7 606 72 208 202 67 434 414 
179 7 135 119 56 139 407 564 201 
180 7 440 443 394 609 260 451 185 
181 7 22 159 383 625 435 4 572 
182 7 122 366 113 467 602 234 578 
183 7 398 597 301 11 317 190 362 
184 7 230 630 425 416 34 430 261 
185 7 622 441 626 497 558 451 536 
186 7 489 26 215 484 350 104 41 
187 7 265 128 177 481 270 63 504 
188 7 381 226 439 454 27 220 533 
189 7 170 219 58 34 231 430 51 
190 7 11 597 183 225 301 398 590 
191 7 514 98 633 602 612 578 139 
192 7 211 276 91 285 356 466 582 
193 7 145 289 411 525 343 334 42 
194 7 2 84 479 437 7 397 6 
195 7 642 526 387 367 87 165 169 
196 7 577 538 308 445 343 102 491 
197 7 324 247 420 408 661 222 635 
198 7 28 416 630 250 34 51 151 
199 7 266 315 655 478 85 634 299 
200 7 431 133 449 553 235 605 393 
201 7 21 495 5 407 135 543 82 
202 7 414 72 67 296 606 244 434 
203 7 478 347 14 73 33 280 555 
204 7 306 20 456 262 518 565 241 
205 7 580 152 272 516 508 553 133 
206 7 101 418 384 379 663 575 601 
207 7 210 561 281 399 171 125 657 
208 7 606 178 72 202 32 414 498 
209 7 71 647 166 231 261 430 58 
210 7 399 207 125 281 475 561 171 
211 7 192 91 276 356 466 285 582 
212 7 24 409 569 458 307 168 15 
213 7 391 567 607 360 600 263 15 
214 7 131 428 614 401 163 224 238 
215 7 26 186 104 489 450 350 41 
216 7 273 156 227 223 499 301 398 
217 7 370 52 417 485 390 574 232 
218 7 663 601 574 221 368 107 390 
219 7 170 189 51 573 320 151 34 
220 7 470 381 92 454 290 188 226 
221 7 368 601 534 581 101 349 574 
222 7 592 408 375 421 81 300 197 
223 7 227 284 461 273 216 156 298 
224 7 131 428 214 587 401 254 304 
225 7 590 11 190 422 25 554 183 
226 7 439 188 27 381 454 490 60 
227 7 273 216 223 156 284 461 499 
228 7 352 585 358 500 586 436 258 
229 7 432 452 61 93 121 364 589 
230 7 184 34 630 430 416 425 58 
231 7 58 430 209 71 261 647 19 
232 7 417 563 370 52 217 579 457 
233 7 75 378 404 116 57 545 562 
234 7 366 113 513 122 137 94 182 
235 7 474 9 501 611 200 449 621 
236 7 552 282 519 160 103 157 539 
237 7 465 496 511 371 307 409 625 
238 7 65 163 614 214 464 587 241 
239 7 171 395 561 85 655 399 207 
240 7 608 433 485 348 52 217 417 
241 7 464 238 111 587 65 163 204 
242 7 505 664 335 134 427 503 636 
243 7 527 257 288 419 426 662 259 
244 7 296 414 202 67 480 72 434 
245 7 372 646 533 448 619 264 295 
246 7 498 117 472 165 178 208 32 
247 7 661 197 324 6 550 635 420 
248 7 538 308 145 289 196 343 193 
249 7 423 313 568 62 322 531 49 
250 7 151 55 28 573 51 320 198 
251 7 515 624 346 369 118 272 152 
252 7 277 269 124 361 457 563 240 
253 7 3 342 173 584 506 20 39 
254 7 304 47 127 224 644 131 587 
255 7 589 362 61 121 317 452 617 
256 7 359 429 613 155 586 629 438 
257 7 426 243 259 662 419 527 649 
258 7 353 500 396 96 546 8 358 
259 7 649 79 257 546 426 662 86 
260 7 451 641 443 140 185 441 609 
261 7 430 469 209 58 231 425 71 
262 7 306 20 648 143 204 456 566 
263 7 360 600 607 213 391 567 339 
264 7 448 530 245 646 619 372 533 
265 7 187 63 177 504 68 128 481 
266 7 199 655 315 85 478 280 73 
267 7 397 640 437 594 332 2 357 
268 7 369 275 657 130 346 115 624 
269 7 124 277 361 252 457 563 377 
270 7 481 83 650 187 128 265 305 
271 7 291 627 332 415 161 66 640 
272 7 152 205 508 580 624 516 251 
273 7 216 227 156 223 499 284 301 
274 7 424 167 653 138 333 147 580 
275 7 130 268 657 369 281 348 596 
276 7 285 356 192 211 598 91 466 
277 7 252 269 124 361 457 563 240 
278 7 459 176 522 57 637 319 13 
279 7 78 138 336 25 286 167 554 
280 7 85 399 347 203 478 266 655 
281 7 475 207 125 210 657 275 268 
282 7 552 519 659 236 539 41 380 
283 5 620 377 150 665 615 
284 7 461 223 298 227 273 216 28 
285 7 356 276 598 108 192 652 211 
286 7 336 78 279 590 25 225 554 
287 7 77 177 388 311 504 528 628 
288 7 527 243 419 662 408 375 257 
289 7 343 145 308 411 538 193 491 
290 7 92 535 656 454 542 13 319 
291 7 271 627 161 332 66 415 640 
292 7 354 355 386 302 97 88 367 
293 7 174 166 616 19 647 69 44 
294 7 441 469 622 641 626 451 185 
295 7 46 619 153 410 141 146 372 
296 7 244 414 202 67 480 72 434 
297 7 64 502 318 521 31 660 610 
298 7 461 284 223 55 76 250 28 
299 7 528 164 523 494 305 199 655 
300 7 81 412 120 323 631 48 222 
301 7 597 398 183 11 190 317 362 
302 7 88 331 355 292 354 10 541 
303 7 321 503 366 427 182 234 122 
304 7 254 47 127 644 224 587 131 
305 7 164 523 23 128 494 153 410 
306 7 204 262 20 456 518 648 342 
307 7 15 371 212 409 24 569 458 
308 7 538 289 343 145 411 196 491 
309 7 334 525 193 631 411 406 412 
310 7 18 588 548 325 109 316 67 
311 7 77 528 287 388 299 239 177 
312 7 82 495 5 134 476 543 591 
313 7 322 568 423 249 62 149 531 
314 6 593 401 316 428 214 614 
315 7 199 266 478 73 634 655 14 
316 6 588 548 310 325 18 109 
317 7 362 183 422 589 255 11 398 
318 7 502 64 89 297 610 31 623 
319 7 13 656 535 522 278 413 30 
320 7 573 151 51 250 471 219 55 
321 7 303 503 427 664 505 112 242 
322 7 313 568 423 149 249 537 62 
323 7 120 446 81 300 344 631 592 
324 7 420 635 197 365 247 39 661 
325 7 548 109 588 18 387 310 434 
326 7 501 29 129 474 628 235 403 
327 7 576 532 464 65 40 87 114 
328 7 384 560 547 575 473 49 349 
329 7 37 402 17 644 566 483 559 
330 7 8 658 86 546 340 540 79 
331 7 88 302 168 541 144 458 599 
332 7 627 640 271 397 291 267 437 
333 7 424 653 460 382 570 274 148 
334 7 309 525 631 193 411 406 412 
335 7 134 5 242 82 476 505 21 
336 7 286 279 78 132 524 138 25 
337 6 344 80 446 38 468 421 
338 7 44 123 582 466 276 192 285 
339 7 263 376 482 607 12 604 360 
340 7 173 658 540 99 330 8 86 
341 7 636 54 520 529 12 427 112 
342 7 518 506 456 3 20 253 507 
343 7 289 411 145 308 491 538 102 
344 7 446 323 337 120 592 81 421 
345 7 45 581 556 638 534 35 31 
346 7 624 369 115 251 268 515 657 
347 7 203 512 632 280 33 571 478 
348 7 433 485 608 544 240 363 35 
349 7 575 547 560 101 221 368 384 
350 7 41 489 551 519 659 484 186 
351 7 463 405 539 282 380 160 236 
352 7 436 228 418 379 500 396 447 
353 7 96 258 396 546 500 79 8 
354 7 292 355 386 97 302 88 367 
355 7 386 354 292 97 88 302 385 
356 7 285 276 598 108 192 91 652 
357 7 594 406 267 48 550 640 397 
358 7 586 585 228 258 155 500 59 
359 7 613 256 438 540 658 586 330 
360 7 600 263 567 213 391 607 557 
361 7 457 563 269 579 36 124 277 
362 7 317 255 589 422 183 617 398 
363 7 35 544 348 45 596 390 581 
364 7 499 93 432 229 61 589 452 
365 7 635 420 39 324 99 584 197 
366 7 122 182 113 234 467 303 602 
367 7 169 642 165 195 10 526 292 
368 7 221 601 534 581 101 349 574 
369 7 346 657 268 624 251 515 115 
370 7 217 417 52 232 574 390 485 
371 7 307 15 409 237 465 212 511 
372 7 245 533 619 646 448 295 141 
373 7 577 445 102 196 493 491 446 
374 7 654 74 97 385 591 482 12 
375 6 421 408 592 222 288 81 
376 7 482 385 339 604 144 374 654 
377 5 620 283 150 665 124 
378 6 603 233 404 110 615 106 
379 7 418 436 447 352 206 444 228 
380 7 175 659 41 539 282 552 519 
381 7 188 454 226 220 439 92 27 
382 7 570 148 333 149 121 653 452 
383 7 435 181 159 507 22 572 625 
384 7 328 547 575 560 101 206 349 
385 7 482 376 386 374 355 97 654 
386 7 355 97 354 292 74 385 88 
387 7 109 526 195 434 325 548 18 
388 7 431 605 77 287 95 393 118 
389 7 90 413 656 535 13 319 30 
390 7 574 544 217 370 35 363 485 
391 7 213 567 607 360 600 263 15 
392 7 56 119 484 32 543 135 407 
393 7 95 605 118 133 516 431 553 
394 7 180 440 443 609 185 260 451 
395 7 171 561 239 515 207 657 251 
396 7 500 96 353 258 352 228 436 
397 7 437 267 640 332 2 627 194 
398 7 597 183 301 11 190 317 362 
399 7 210 280 207 85 561 171 125 
400 7 106 571 512 116 632 233 562 
401 7 428 593 214 614 314 131 163 
402 7 17 559 37 329 415 644 271 
403 7 129 136 611 621 132 524 326 
404 7 57 233 637 510 378 278 176 
405 7 351 463 539 160 236 282 552 
406 7 357 594 267 640 48 309 397 
407 7 543 495 201 135 312 179 5 
408 6 375 222 421 592 197 288 
409 7 212 24 307 458 15 569 371 
410 7 153 46 23 295 650 141 523 
411 7 343 289 145 491 493 193 102 
412 7 300 48 81 120 631 550 323 
413 7 30 90 94 513 522 389 319 
414 7 202 67 72 296 434 244 606 
415 7 271 161 17 291 559 66 37 
416 7 198 630 28 34 184 230 250 
417 7 52 370 217 232 485 240 563 
418 7 436 379 352 206 107 228 447 
419 7 662 527 243 257 288 259 420 
420 7 324 365 635 197 39 419 662 
421 6 375 592 222 408 81 344 
422 7 617 554 25 317 362 225 590 
423 7 568 313 249 62 322 531 49 
424 7 274 333 653 460 610 167 570 
425 7 455 261 537 184 469 230 430 
426 7 257 243 259 662 527 419 96 
427 7 503 321 242 636 505 664 341 
428 7 401 214 131 224 593 614 163 
429 7 629 155 59 256 70 585 586 
430 7 58 231 261 209 71 230 189 
431 7 200 605 393 95 133 388 553 
432 7 229 452 61 93 364 121 589 
433 7 608 485 240 348 52 217 544 
434 7 67 414 72 202 387 18 606 
435 7 383 507 181 159 572 22 625 
436 7 352 418 379 447 228 500 396 
437 7 397 2 267 194 7 332 640 
438 7 613 359 540 625 658 159 256 
439 7 226 27 188 490 454 381 60 
440 7 180 443 609 394 260 451 50 
441 7 622 626 185 451 294 558 497 
442 7 623 531 62 105 89 318 49 
443 7 180 440 609 394 260 451 142 
444 7 473 142 384 140 50 328 379 
445 7 102 577 491 493 373 196 343 
446 7 344 323 120 81 493 102 592 
447 7 379 436 50 352 418 142 396 
448 7 264 245 646 372 533 619 126 
449 7 200 9 553 133 235 611 621 
450 7 16 172 564 26 215 139 186 
451 7 260 441 185 622 641 626 294 
452 7 61 432 229 121 255 589 148 
453 7 583 565 572 4 517 22 383 
454 7 381 226 220 188 290 439 92 
455 7 162 537 425 322 469 313 249 
456 7 518 342 20 506 306 204 3 
457 7 361 563 579 36 269 277 232 
458 7 168 24 212 599 569 409 144 
459 7 176 278 637 522 510 57 319 
460 7 333 610 424 318 502 382 64 
461 7 284 298 223 227 28 198 273 
462 7 154 525 42 66 406 161 291 
463 7 351 405 539 380 282 659 175 
464 7 111 532 327 65 114 241 238 
465 7 511 237 371 496 256 307 15 
466 7 582 123 44 338 192 276 69 
467 7 113 122 633 182 98 366 602 
468 7 38 80 652 337 108 598 344 
469 7 261 294 209 71 647 425 166 
470 7 92 220 290 535 656 389 454 
471 7 55 76 320 250 151 573 51 
472 7 97 246 591 117 74 498 165 
473 7 444 328 140 49 384 560 547 
474 7 501 235 628 326 29 611 9 
475 7 125 281 210 150 207 399 665 
476 7 134 82 335 312 5 242 591 
477 7 158 36 361 457 488 579 600 
478 7 73 203 315 14 266 280 85 
479 7 84 492 194 6 7 2 143 
480 7 160 157 296 244 103 43 236 
481 7 270 83 650 187 128 305 265 
482 7 376 385 339 604 374 144 654 
483 7 7 566 492 437 2 143 194 
484 7 489 186 350 56 392 119 26 
485 7 433 348 240 52 608 217 544 
486 7 141 650 83 46 619 410 153 
487 7 618 53 545 555 33 75 562 
488 7 595 529 645 112 158 643 477 
489 7 186 350 484 26 215 41 104 
490 7 60 14 53 555 439 73 542 
491 7 102 493 445 343 411 289 631 
492 7 143 479 7 483 566 84 194 
493 7 102 491 445 411 343 631 289 
494 7 523 164 146 23 153 305 651 
495 7 5 201 82 21 407 312 543 
496 7 237 465 22 4 625 159 181 
497 7 558 536 69 616 185 626 622 
498 7 246 117 165 472 178 208 606 
499 7 364 93 216 432 589 273 61 
500 7 396 258 96 353 228 352 436 
501 7 474 326 235 29 628 129 611 
502 7 318 64 297 89 610 31 623 
503 7 427 321 664 303 505 242 636 
504 7 68 63 265 177 287 187 628 
505 7 664 242 335 503 134 427 21 
506 7 342 3 518 507 456 253 435 
507 7 435 383 572 159 181 506 625 
508 7 580 272 152 660 205 521 624 
509 4 615 643 645 110 
510 7 637 176 459 100 404 278 137 
511 7 465 237 371 496 256 70 307 
512 7 571 632 400 116 347 106 562 
513 7 94 30 413 137 90 234 522 
514 7 191 98 633 602 612 139 578 
515 7 251 369 395 346 657 624 118 
516 7 553 133 393 95 205 605 152 
517 7 453 4 599 583 22 565 572 
518 7 456 342 506 20 507 3 306 
519 7 552 282 659 236 41 551 350 
520 7 54 529 341 112 636 12 488 
521 7 660 297 508 64 115 610 502 
522 7 459 319 13 176 278 30 656 
523 7 164 23 494 305 153 410 146 
524 7 132 136 147 621 611 9 138 
525 7 42 193 309 334 462 154 406 
526 7 195 642 387 87 367 169 40 
527 7 243 288 419 662 257 426 259 
528 7 299 128 311 77 177 305 164 
529 7 520 54 112 488 341 595 645 
530 7 264 448 639 646 126 245 486 
531 7 62 442 105 49 423 568 249 
532 7 114 327 576 464 111 87 10 
533 7 646 126 245 372 448 264 619 
534 7 368 581 221 345 45 556 638 
535 7 656 13 319 290 92 522 389 
536 7 497 69 558 616 185 626 622 
537 7 455 322 149 425 313 162 423 
538 7 308 196 289 343 145 411 491 
539 7 282 463 659 552 380 351 236 
540 7 658 438 340 613 330 359 173 
541 7 599 331 302 10 88 114 458 
542 7 487 618 53 60 545 490 290 
543 7 407 495 312 392 201 117 135 
544 7 363 35 390 348 485 581 45 
545 7 487 75 618 562 53 33 555 
546 7 79 86 8 649 353 330 258 
547 7 560 575 328 349 384 101 105 
548 7 325 109 588 18 310 316 387 
549 6 91 598 108 356 38 211 
550 7 661 6 48 357 594 247 84 
551 7 43 350 519 103 552 157 41 
552 7 519 282 659 236 539 41 551 
553 7 133 516 200 449 393 605 95 
554 7 25 617 422 590 225 78 317 
555 7 53 33 618 487 14 60 562 
556 7 638 345 31 581 45 534 623 
557 7 36 567 579 600 360 213 70 
558 7 497 536 616 69 185 626 622 
559 7 17 402 415 37 271 329 161 
560 7 547 328 575 349 384 105 49 
561 7 171 395 239 207 399 210 657 
562 7 33 75 632 116 545 487 618 
563 7 457 579 361 232 36 269 277 
564 7 139 172 612 16 450 179 135 
565 7 583 453 572 435 4 383 22 
566 7 483 7 143 492 648 329 262 
567 7 213 391 600 360 557 263 607 
568 7 423 313 62 322 249 531 149 
569 7 24 144 212 168 458 604 15 
570 7 148 382 121 653 333 452 61 
571 7 400 512 106 116 632 562 347 
572 7 583 565 435 453 383 22 4 
573 7 320 151 51 250 219 34 471 
574 7 390 370 217 544 534 218 221 
575 7 547 349 101 384 560 328 601 
576 7 327 87 532 40 526 114 464 
577 7 445 196 373 102 491 493 538 
578 7 602 98 664 21 505 182 191 
579 7 563 457 36 361 557 232 477 
580 7 205 508 152 272 660 516 521 
581 7 345 45 534 556 638 35 363 
582 7 123 466 338 44 276 192 285 
583 7 565 453 572 4 435 383 22 
584 7 253 635 39 479 492 143 99 
585 7 358 228 586 107 59 155 352 
586 7 358 585 228 155 258 359 256 
587 7 131 214 238 224 241 614 163 
588 7 18 548 325 109 310 316 387 
589 7 255 362 61 317 452 121 432 
590 7 225 25 554 422 11 617 190 
591 7 74 654 374 472 97 312 476 
592 7 421 222 375 81 408 120 323 
593 7 401 314 614 428 163 214 65 
594 7 357 267 406 397 2 640 194 
595 6 488 645 112 643 529 520 
596 7 45 35 363 130 345 115 581 
597 7 301 398 183 11 190 317 362 
598 7 108 356 652 285 276 91 38 
599 7 458 168 541 24 212 409 517 
600 7 360 263 567 213 391 557 607 
601 7 221 368 101 663 534 218 575 
602 7 98 578 633 191 514 122 182 
603 7 110 378 100 404 615 233 510 
604 7 144 569 607 15 376 24 212 
605 7 393 95 118 431 133 516 553 
606 7 178 72 208 202 67 414 434 
607 7 391 213 263 604 360 567 600 
608 7 240 433 485 348 52 217 130 
609 7 440 443 180 394 50 260 142 
610 7 660 64 502 318 521 297 460 
611 7 621 9 136 235 524 132 449 
612 7 139 564 172 514 179 191 16 
613 7 438 359 540 256 658 625 159 
614 7 163 65 238 214 593 401 131 
615 4 509 378 110 603 
616 7 69 558 536 497 626 185 622 
617 7 422 554 25 317 362 255 225 
618 7 487 53 545 555 33 562 75 
619 7 141 295 372 46 245 448 410 
620 5 377 283 150 665 124 
621 7 611 136 9 524 132 235 449 
622 7 441 626 185 558 497 451 616 
623 7 89 442 105 31 318 502 638 
624 7 346 251 369 272 115 152 508 
625 7 159 181 383 22 435 507 4 
626 7 622 441 185 558 616 497 536 
627 7 332 291 640 271 267 397 161 
628 7 474 501 29 235 326 431 504 
629 7 429 155 70 59 256 585 511 
630 7 416 198 28 184 230 34 499 
631 7 120 323 493 411 334 300 491 
632 7 116 512 562 571 33 347 75 
633 7 98 191 602 514 467 113 122 
634 7 73 315 651 14 199 478 146 
635 7 365 39 324 420 99 584 247 
636 7 341 54 12 427 242 520 476 
637 7 510 176 459 100 404 278 57 
638 7 556 345 31 581 45 534 623 
639 7 126 646 448 264 530 533 245 
640 7 267 332 627 397 291 271 437 
641 7 140 260 451 294 162 473 441 
642 7 195 526 367 169 87 165 387 
643 6 645 595 509 112 488 615 
644 7 47 127 329 402 304 254 17 
645 6 643 595 112 488 509 529 
646 7 533 126 245 448 372 264 639 
647 7 166 71 209 231 174 469 293 
648 7 262 566 306 329 483 143 127 
649 7 79 259 86 546 8 353 662 
650 7 83 410 486 153 481 270 141 
651 7 146 27 634 494 295 23 439 
652 7 108 598 38 356 285 468 80 
653 7 333 570 424 148 274 382 121 
654 7 374 74 591 97 385 482 12 
655 7 266 199 85 315 280 299 239 
656 7 13 319 535 522 389 278 290 
657 7 369 268 275 346 515 207 281 
658 7 540 330 340 359 438 613 8 
659 7 282 41 519 552 380 539 350 
660 7 521 610 508 580 64 297 502 
661 7 247 6 550 197 324 84 479 
662 7 419 527 257 243 259 288 426 
663 7 218 601 101 206 107 221 368 
664 7 505 242 335 503 427 134 578 
665 5 283 150 620 377 615 
DEPOT_SECTION
   1
   -1
EOF
