NAME :  X-n613-kX-w122-c11.cctp
COMMENT : 	Adapted by Maziero, Usberti and Cavellucci from the Uchoa, Pecin, Pessoa, Poggi, Subramanian, and Vidal (2013)
TYPE :  CCTP
DIMENSION :    578
EDGE_WEIGHT_TYPE : 	EUC_2D	
CAPACITY : 	523
VERTICES_WITHIN_COVERAGE :  11
VERTICES_WITH_DEMAND : 	122
NODE_COORD_SECTION
1 500 500
2 550 574
3 177 24
4 448 476
5 934 619
6 323 122
7 430 76
8 364 9
9 988 994
10 91 636
11 926 977
12 2 579
13 326 342
14 455 822
15 48 74
16 814 334
17 997 22
18 838 899
19 634 360
20 324 191
21 750 283
22 996 106
23 473 967
24 642 334
25 539 764
26 510 194
27 807 664
28 949 710
29 21 994
30 293 934
31 832 366
32 8 531
33 56 893
34 82 605
35 197 626
36 661 777
37 207 272
38 945 510
39 505 137
40 325 693
41 240 335
42 776 462
43 810 235
44 496 288
45 624 171
46 799 293
47 120 393
48 250 839
49 31 266
50 64 349
51 898 729
52 740 387
53 838 992
54 952 991
55 558 497
56 695 240
57 622 113
58 670 95
59 967 595
60 926 470
61 665 284
62 753 558
63 946 61
64 820 415
65 453 551
66 565 786
67 768 573
68 841 180
69 172 849
70 799 203
71 663 950
72 33 134
73 215 505
74 973 751
75 308 651
76 519 412
77 677 737
78 937 383
79 338 276
80 997 416
81 852 151
82 366 573
83 839 66
84 245 311
85 743 248
86 265 806
87 851 403
88 621 530
89 553 917
90 467 83
91 866 308
92 556 270
93 189 936
94 131 426
95 329 945
96 64 997
97 761 475
98 248 366
99 141 114
100 235 937
101 80 598
102 133 453
103 153 763
104 739 585
105 165 754
106 933 751
107 670 474
108 319 201
109 734 286
110 118 342
111 951 973
112 303 313
113 709 929
114 993 822
115 707 624
116 92 212
117 716 302
118 184 802
119 601 936
120 668 454
121 583 424
122 151 409
123 754 53
124 89 361
125 843 196
126 679 788
127 233 266
128 994 524
129 229 917
130 381 596
131 566 501
132 96 294
133 180 770
134 199 508
135 226 827
136 691 293
137 338 332
138 905 714
139 146 954
140 148 907
141 46 71
142 594 419
143 209 732
144 419 783
145 852 847
146 194 344
147 751 651
148 530 340
149 6 405
150 60 343
151 87 261
152 962 886
153 882 81
154 777 993
155 877 318
156 645 892
157 909 276
158 859 247
159 109 124
160 214 725
161 292 982
162 674 506
163 724 614
164 247 618
165 133 392
166 140 512
167 986 490
168 139 888
169 988 341
170 255 776
171 864 343
172 614 864
173 594 73
174 531 156
175 221 392
176 221 398
177 809 947
178 864 805
179 843 335
180 477 878
181 129 202
182 940 551
183 183 69
184 498 641
185 867 413
186 540 551
187 281 990
188 604 224
189 907 417
190 650 349
191 998 2
192 570 808
193 216 820
194 959 382
195 527 34
196 123 708
197 337 488
198 355 476
199 887 524
200 443 886
201 892 60
202 436 349
203 427 927
204 663 441
205 78 435
206 997 108
207 324 213
208 369 115
209 177 280
210 539 753
211 81 372
212 102 788
213 43 527
214 765 671
215 31 906
216 854 983
217 610 874
218 83 143
219 835 330
220 570 361
221 390 283
222 982 681
223 650 227
224 975 485
225 135 322
226 287 6
227 446 24
228 530 474
229 700 542
230 397 872
231 305 9
232 12 340
233 285 858
234 358 892
235 123 118
236 498 952
237 752 59
238 444 51
239 888 591
240 281 498
241 927 591
242 185 324
243 79 486
244 690 495
245 767 78
246 199 357
247 257 625
248 757 346
249 559 164
250 56 937
251 559 96
252 415 7
253 782 493
254 198 754
255 506 686
256 351 593
257 972 719
258 267 937
259 921 181
260 196 447
261 748 875
262 437 907
263 699 405
264 978 373
265 286 936
266 755 180
267 696 458
268 188 130
269 341 291
270 628 240
271 977 737
272 487 328
273 784 13
274 57 916
275 810 409
276 701 741
277 314 201
278 661 104
279 740 622
280 550 234
281 215 853
282 138 876
283 318 722
284 253 617
285 90 662
286 909 472
287 308 910
288 706 703
289 994 964
290 468 904
291 181 279
292 132 324
293 891 448
294 610 312
295 582 826
296 373 584
297 330 146
298 968 383
299 436 570
300 725 274
301 517 304
302 835 254
303 901 434
304 858 202
305 261 997
306 493 583
307 512 311
308 592 403
309 949 560
310 426 413
311 634 611
312 200 557
313 44 99
314 823 681
315 958 756
316 913 482
317 594 984
318 73 713
319 4 687
320 406 637
321 717 349
322 273 727
323 622 359
324 316 622
325 114 595
326 720 330
327 485 245
328 728 679
329 563 890
330 412 21
331 600 831
332 682 188
333 555 691
334 799 117
335 671 173
336 117 117
337 55 117
338 242 124
339 139 795
340 670 711
341 22 470
342 919 386
343 988 857
344 166 675
345 269 813
346 144 450
347 66 302
348 275 504
349 812 595
350 65 382
351 683 718
352 744 458
353 370 159
354 155 263
355 93 827
356 897 63
357 866 240
358 714 689
359 9 995
360 136 611
361 925 459
362 371 271
363 97 729
364 585 137
365 473 176
366 878 528
367 748 261
368 141 431
369 208 624
370 76 809
371 780 44
372 653 811
373 827 0
374 909 367
375 62 951
376 805 374
377 204 284
378 139 39
379 73 455
380 800 483
381 516 93
382 489 103
383 297 291
384 517 407
385 468 780
386 300 560
387 754 944
388 999 143
389 220 145
390 542 926
391 509 745
392 515 461
393 791 479
394 821 266
395 459 481
396 47 141
397 417 102
398 950 385
399 87 135
400 57 886
401 991 595
402 962 506
403 375 948
404 631 572
405 210 596
406 476 910
407 829 100
408 133 673
409 578 982
410 353 675
411 834 675
412 141 964
413 266 734
414 146 650
415 353 284
416 305 987
417 150 727
418 301 687
419 308 224
420 821 189
421 45 279
422 108 220
423 523 381
424 446 524
425 907 598
426 943 843
427 473 609
428 659 823
429 326 19
430 92 368
431 29 271
432 804 619
433 369 215
434 325 240
435 197 903
436 189 871
437 519 684
438 297 819
439 102 896
440 20 818
441 850 667
442 916 759
443 401 140
444 364 57
445 823 178
446 590 605
447 749 943
448 924 977
449 315 879
450 78 1
451 105 857
452 36 243
453 903 279
454 521 366
455 58 482
456 153 0
457 812 506
458 481 68
459 705 785
460 16 596
461 974 675
462 503 914
463 431 112
464 636 548
465 805 745
466 728 560
467 156 777
468 623 149
469 879 709
470 404 453
471 838 272
472 646 185
473 520 843
474 337 149
475 761 972
476 637 433
477 607 588
478 575 511
479 952 72
480 818 942
481 427 589
482 688 326
483 547 662
484 423 507
485 93 4
486 699 23
487 762 595
488 389 815
489 48 7
490 586 171
491 391 990
492 860 942
493 562 289
494 779 980
495 305 733
496 231 555
497 661 798
498 954 975
499 888 912
500 483 24
501 69 618
502 866 631
503 244 362
504 72 937
505 793 569
506 145 885
507 582 43
508 73 425
509 979 684
510 911 888
511 921 111
512 108 98
513 126 241
514 737 414
515 830 426
516 546 141
517 429 536
518 741 233
519 373 286
520 305 814
521 690 548
522 449 506
523 491 754
524 252 82
525 52 449
526 278 918
527 61 132
528 344 620
529 500 421
530 913 865
531 161 501
532 734 467
533 410 836
534 733 712
535 205 115
536 152 932
537 360 459
538 945 335
539 61 872
540 408 85
541 633 945
542 83 627
543 550 809
544 890 266
545 711 338
546 515 998
547 946 604
548 61 580
549 785 575
550 931 871
551 474 76
552 967 395
553 243 984
554 849 185
555 817 685
556 182 780
557 119 898
558 607 31
559 43 337
560 417 480
561 931 355
562 693 31
563 394 858
564 749 418
565 827 37
566 30 362
567 945 714
568 789 100
569 492 526
570 234 361
571 165 386
572 262 707
573 87 989
574 597 528
575 401 969
576 146 661
577 910 977
578 771 90
DEMAND_SECTION
2 97
3 2
4 30
5 91
6 63
7 99
8 78
9 50
10 2
11 58
12 1
13 3
14 99
15 28
16 32
17 10
18 1
19 75
20 55
21 75
22 31
23 38
24 34
25 62
26 25
27 12
28 63
29 43
30 100
31 58
32 45
33 68
34 38
35 31
36 91
37 59
38 4
39 43
40 48
41 31
42 84
43 43
44 51
45 37
46 48
47 26
48 97
49 39
50 42
51 64
52 50
53 5
54 98
55 66
56 65
57 24
58 74
59 59
60 40
61 57
62 23
63 98
64 95
65 3
66 74
67 96
68 70
69 99
70 54
71 84
72 53
73 35
74 19
75 93
76 32
77 2
78 27
79 63
80 71
81 65
82 19
83 72
84 14
85 52
86 38
87 99
88 6
89 80
90 66
91 4
92 50
93 98
94 89
95 35
96 82
97 55
98 85
99 63
100 70
101 1
102 41
103 38
104 44
105 3
106 86
107 74
108 47
109 91
110 62
111 53
112 8
113 28
114 9
115 64
116 50
117 8
118 79
119 53
120 11
121 71
122 78
123 11
COVERAGE_SECTION
2 11 186 446 306 477 574 478 131 569 55 404 88 
3 11 456 378 183 485 524 535 99 512 450 268 235 
4 11 395 522 560 484 424 470 517 310 569 392 65 
5 10 547 241 425 59 239 309 401 182 461 502 
6 11 297 474 208 353 20 444 108 277 443 338 524 
7 11 540 238 397 463 90 551 458 227 330 382 444 
8 11 429 444 330 252 231 226 227 540 238 7 208 
9 11 289 54 498 111 11 448 577 152 499 510 216 
10 11 542 285 501 34 101 325 360 408 414 576 548 
11 11 448 577 111 498 54 9 289 216 492 499 53 
12 11 460 32 548 213 501 101 34 542 10 319 341 
13 11 137 112 269 383 415 79 519 98 362 503 41 
14 10 385 533 144 180 200 488 473 563 230 523 
15 11 141 313 337 527 72 512 396 489 399 218 159 
16 11 219 179 31 376 46 171 91 248 155 471 394 
17 11 191 63 479 22 206 356 201 511 388 153 83 
18 10 480 492 499 145 177 510 530 216 53 261 
19 11 323 190 24 294 308 220 482 142 476 263 545 
20 11 108 277 207 419 474 297 434 433 353 6 79 
21 11 109 367 300 85 117 46 518 326 136 248 545 
22 11 206 388 479 63 511 17 191 259 356 201 153 
23 11 236 546 406 203 462 290 262 575 390 491 200 
24 11 190 19 323 294 482 61 136 545 321 220 326 
25 11 210 66 391 543 523 192 385 295 333 473 437 
26 11 365 174 39 249 280 327 516 490 92 382 364 
27 10 314 555 411 214 441 432 147 502 349 279 
28 11 567 257 271 509 461 106 138 222 315 74 51 
29 11 359 96 375 573 250 504 274 215 33 400 412 
30 11 265 526 258 287 95 161 416 187 100 449 129 
31 11 376 179 219 16 171 87 275 64 185 515 155 
32 11 213 12 341 460 455 548 243 525 101 379 34 
33 10 400 539 274 215 250 439 504 375 451 557 
34 11 101 501 542 10 548 325 360 285 460 414 12 
35 11 369 405 164 414 284 344 247 576 360 312 408 
36 9 126 497 372 77 459 428 276 351 340 
37 11 377 127 291 209 354 84 242 41 146 246 513 
38 11 402 224 182 316 60 167 309 128 286 361 199 
39 11 174 382 516 381 365 26 249 90 251 551 458 
40 11 418 283 410 75 495 322 572 324 413 528 247 
41 11 84 503 570 98 146 246 242 175 377 176 112 
42 11 97 393 253 352 380 532 564 457 514 275 64 
43 11 302 394 70 471 420 158 125 357 304 445 46 
44 11 301 307 272 327 148 92 493 280 454 202 26 
45 11 468 472 490 335 364 188 57 332 223 249 270 
46 11 394 16 471 21 219 302 43 367 179 109 248 
47 11 165 94 122 430 368 211 124 571 110 350 508 
48 11 135 345 86 281 193 233 438 520 170 436 118 
49 11 431 421 452 347 151 132 559 232 116 150 50 
50 11 150 559 124 211 350 430 566 347 232 110 132 
51 11 138 469 442 106 567 28 315 257 74 441 271 
52 11 514 564 248 321 263 545 326 376 352 275 482 
53 11 216 177 480 492 494 154 577 475 448 11 18 
54 11 498 111 11 448 9 577 289 216 499 492 152 
55 11 131 478 228 574 392 186 88 569 2 121 142 
56 11 300 223 518 85 61 136 332 367 109 117 270 
57 11 468 278 364 173 58 45 251 490 472 335 249 
58 11 278 57 562 468 335 486 173 45 237 558 472 
59 10 547 401 309 241 5 182 425 128 239 461 
60 11 361 286 316 293 38 303 224 402 189 167 199 
61 11 136 482 56 117 24 270 223 300 294 190 109 
62 11 67 466 104 549 487 505 229 163 521 279 349 
63 11 479 356 201 511 17 22 153 206 191 388 83 
64 11 275 515 87 376 185 31 42 393 380 564 293 
65 11 299 424 517 522 481 569 306 484 427 395 4 
66 10 192 543 25 210 295 331 391 473 523 372 
67 11 549 62 487 505 104 466 349 279 432 163 229 
68 11 554 125 445 420 304 81 70 43 357 158 302 
69 11 436 281 282 506 118 168 193 135 435 140 339 
70 11 420 43 445 125 68 266 554 304 302 518 394 
71 10 541 113 156 119 317 447 387 409 217 172 
72 11 396 337 527 313 218 399 15 141 159 512 336 
73 11 134 496 312 531 348 260 240 166 346 405 102 
74 11 271 315 257 106 567 28 442 509 222 114 461 
75 11 324 418 40 528 410 247 284 164 256 283 572 
76 11 384 529 423 454 392 228 121 220 148 308 142 
77 10 351 276 340 36 288 126 459 358 534 497 
78 11 398 342 194 561 298 374 552 264 189 538 303 
79 11 269 415 362 519 434 383 112 221 137 419 207 
80 11 552 298 264 194 398 78 224 167 169 342 361 
81 11 68 554 445 125 420 304 407 334 70 259 153 
82 11 296 256 130 528 481 386 299 324 517 320 484 
83 11 565 407 153 201 356 568 371 334 373 578 245 
84 11 41 127 377 503 570 37 98 383 112 146 242 
85 11 367 518 300 21 109 56 117 43 136 266 46 
86 11 345 170 438 48 520 135 193 233 281 413 322 
87 11 185 515 64 275 31 376 189 303 293 171 179 
88 11 464 574 404 478 162 477 131 55 521 107 244 
89 11 390 329 462 119 236 409 217 406 317 172 473 
90 11 551 458 382 7 238 463 381 397 540 500 227 
91 11 155 171 179 219 471 453 544 157 16 158 302 
92 11 493 280 301 307 44 188 294 148 327 270 26 
93 11 435 536 129 100 139 140 412 436 506 168 553 
94 11 368 122 102 346 165 47 571 205 508 379 260 
95 11 30 287 265 403 416 161 526 234 258 187 449 
96 11 573 29 375 359 250 504 274 412 139 215 33 
97 11 42 352 253 532 393 380 564 457 514 267 244 
98 11 503 570 41 175 176 246 84 146 112 242 13 
99 11 235 336 159 512 268 399 183 535 218 378 527 
100 11 129 258 93 526 553 265 435 30 305 187 161 
101 11 34 501 548 542 325 10 360 460 285 12 213 
102 11 346 368 94 122 531 205 166 379 47 165 243 
103 11 467 105 133 556 339 417 254 118 212 196 143 
104 11 487 466 62 67 163 279 549 115 505 229 521 
105 11 103 133 467 417 556 254 143 339 118 160 196 
106 11 442 315 567 74 51 28 138 271 257 469 509 
107 11 120 244 267 162 204 476 532 88 229 263 352 
108 11 277 20 207 419 434 433 474 297 353 79 6 
109 11 300 21 117 367 85 136 326 518 545 56 482 
110 11 292 225 124 430 211 47 165 132 50 150 571 
111 11 498 54 11 448 577 9 289 152 499 510 492 
112 11 383 13 137 269 79 84 415 41 519 98 434 
113 7 447 387 71 261 475 156 541 
114 11 343 426 152 74 315 550 271 530 106 442 257 
115 10 163 279 104 147 328 487 358 466 311 214 
116 11 422 181 513 151 452 218 399 49 354 132 421 
117 11 109 136 326 300 545 482 21 321 367 61 85 
118 11 556 133 193 467 339 69 135 103 254 105 281 
119 11 541 317 409 89 329 390 156 217 71 172 462 
120 11 204 107 267 476 244 162 263 532 352 514 142 
121 11 142 308 476 220 76 384 228 423 323 55 392 
122 11 368 165 94 571 47 346 102 260 176 246 175 
123 11 237 245 371 578 273 568 486 562 565 334 83 
124 11 430 211 50 350 150 110 47 559 165 292 566 
125 11 554 68 304 420 445 70 81 357 43 158 302 
126 7 36 497 459 372 428 77 276 
127 11 37 377 84 291 209 41 383 242 354 112 419 
128 11 167 402 224 38 309 182 401 59 60 316 547 
129 11 100 435 258 93 526 265 436 30 281 553 536 
130 10 296 82 256 528 481 320 299 324 517 410 
131 11 55 478 574 228 186 88 392 2 569 121 464 
132 11 347 151 292 225 110 421 150 513 50 124 354 
133 11 556 105 254 467 103 118 143 339 417 160 193 
134 11 73 531 312 496 166 260 348 346 240 102 405 
135 11 193 48 281 86 345 118 436 69 170 556 233 
136 11 117 61 482 300 109 326 545 56 21 321 24 
137 11 13 112 269 415 79 383 519 362 221 434 84 
138 11 51 469 567 28 106 442 257 315 441 271 74 
139 11 412 536 93 140 557 168 506 573 435 439 504 
140 11 168 506 536 557 282 139 439 435 93 436 412 
141 11 15 313 337 527 72 489 512 396 399 450 218 
142 11 121 308 476 220 323 19 204 76 384 423 120 
143 11 160 254 133 105 556 413 417 572 103 170 322 
144 8 488 385 14 533 523 563 230 391 
145 8 178 18 530 510 499 550 426 492 
146 11 246 242 570 41 571 503 175 98 176 84 377 
147 10 214 279 328 163 115 358 27 487 432 534 
148 11 454 307 301 423 220 272 493 44 384 76 92 
149 11 566 350 525 232 341 508 559 205 50 150 211 
150 11 50 559 124 211 566 350 347 430 232 110 132 
151 11 132 513 347 421 422 116 452 49 431 354 181 
152 11 550 343 426 510 530 114 499 289 111 498 11 
153 11 201 356 83 511 407 63 565 479 81 334 568 
154 11 494 475 387 177 447 53 480 216 113 492 18 
155 11 91 171 179 219 453 157 544 374 471 16 561 
156 8 217 172 541 71 119 428 113 331 
157 7 453 544 155 91 357 158 538 
158 11 357 302 471 544 394 304 43 125 453 157 91 
159 11 336 235 399 512 218 99 527 337 396 313 72 
160 11 143 254 572 413 133 105 322 417 556 170 344 
161 11 187 416 305 265 30 553 258 95 526 100 287 
162 11 244 107 229 521 120 267 464 88 204 532 466 
163 11 279 115 104 487 147 466 67 62 328 214 549 
164 11 284 247 369 405 35 496 75 324 312 386 418 
165 11 47 122 571 94 368 430 110 124 211 346 102 
166 11 531 102 134 346 243 73 312 368 94 260 325 
167 11 224 402 128 38 60 361 316 80 182 286 309 
168 10 506 282 140 557 439 451 536 69 436 435 
169 8 264 538 298 194 398 552 561 78 
170 11 86 345 413 322 135 193 438 254 48 520 143 
171 11 179 155 219 91 31 16 374 87 376 561 185 
172 9 217 331 156 295 329 428 372 192 119 
173 11 507 251 558 57 364 278 195 58 381 468 516 
174 11 516 249 39 26 364 490 365 381 251 382 280 
175 11 176 570 98 503 246 146 571 41 260 122 242 
176 11 175 570 98 503 246 260 571 146 41 122 242 
177 11 480 494 492 53 475 387 18 154 216 447 499 
178 8 145 442 530 51 465 106 426 550 
179 11 219 171 16 31 91 155 376 46 471 87 394 
180 11 290 406 200 462 262 473 14 203 236 533 230 
181 11 422 116 513 354 151 218 399 159 235 336 99 
182 10 309 38 241 402 59 547 425 199 128 239 
183 11 3 535 378 268 99 524 456 235 512 338 336 
184 9 427 255 437 483 306 333 2 481 320 
185 11 87 515 189 303 293 64 275 31 342 374 171 
186 11 2 478 569 131 55 306 574 446 477 228 88 
187 11 161 305 416 553 265 258 30 95 100 526 287 
188 11 270 223 280 490 45 472 92 249 468 493 335 
189 11 303 342 293 185 78 361 374 398 286 60 87 
190 11 24 19 323 482 294 545 61 321 136 326 263 
191 11 17 63 479 22 206 356 201 511 153 388 83 
192 10 543 295 66 331 25 473 210 172 217 329 
193 11 135 281 118 48 86 556 69 345 436 170 133 
194 11 298 398 552 264 78 561 342 538 169 80 374 
195 11 500 507 458 381 551 251 90 173 382 558 227 
196 11 363 417 408 318 576 344 285 105 414 103 467 
197 11 198 537 240 348 470 560 386 484 82 296 517 
198 11 537 197 470 560 484 240 348 4 310 517 82 
199 6 366 316 286 182 38 60 
200 11 262 290 180 406 203 230 563 533 14 462 234 
201 11 356 153 83 63 511 479 565 407 373 81 334 
202 11 272 310 221 307 44 454 519 301 423 148 529 
203 11 262 200 290 575 406 403 23 230 180 491 236 
204 11 120 476 107 267 263 244 162 142 532 514 308 
205 11 508 379 525 243 455 94 350 102 47 211 368 
206 11 22 388 479 63 511 17 259 191 356 201 153 
207 11 108 277 419 20 434 433 79 474 297 353 362 
208 11 443 353 6 474 540 297 397 444 463 7 20 
209 11 291 377 354 37 242 127 225 292 513 146 84 
210 11 25 391 66 523 543 192 333 437 255 385 295 
211 11 430 124 350 50 150 47 110 559 566 508 165 
212 10 370 339 355 467 103 363 451 105 417 133 
213 11 32 455 243 548 341 12 460 379 525 101 34 
214 9 147 328 27 534 358 555 279 314 432 
215 11 33 274 400 250 539 504 375 439 557 29 440 
216 11 53 492 480 577 177 448 11 494 154 499 18 
217 9 172 156 331 329 295 119 89 428 541 
218 11 399 527 159 396 337 336 235 72 512 313 99 
219 11 179 16 171 31 91 155 46 376 471 394 87 
220 11 148 308 454 423 323 142 294 19 121 384 76 
221 11 519 362 415 269 79 137 433 434 202 13 112 
222 11 509 461 257 28 567 271 74 5 315 138 106 
223 11 270 472 188 56 332 335 61 45 136 468 490 
224 11 167 402 38 128 60 361 316 286 80 182 309 
225 11 292 110 132 242 209 124 354 146 291 430 165 
226 11 231 429 8 524 444 3 6 183 330 338 252 
227 11 238 330 252 500 7 458 551 90 540 195 8 
228 11 392 55 131 478 529 76 569 384 395 121 186 
229 11 521 466 162 244 62 104 464 107 67 404 163 
230 8 563 533 234 200 262 488 203 14 
231 11 226 429 8 444 524 330 252 6 208 540 3 
232 11 566 559 150 50 149 347 350 421 431 49 211 
233 11 449 48 438 345 520 86 287 526 135 281 30 
234 10 230 449 563 287 403 95 533 30 203 262 
235 11 336 159 99 512 399 218 527 268 337 183 396 
236 11 23 462 406 546 390 290 89 203 262 180 409 
237 11 123 245 371 578 568 273 486 562 334 565 83 
238 11 227 7 90 551 458 330 500 540 252 397 463 
239 7 425 241 502 5 547 366 182 
240 11 348 197 386 73 496 198 134 537 260 312 82 
241 10 425 547 5 309 239 59 182 401 502 199 
242 11 146 246 377 209 291 225 292 37 41 84 570 
243 11 455 379 525 205 213 341 508 102 166 346 94 
244 11 162 107 267 120 229 532 521 204 352 97 466 
245 11 578 237 123 568 371 334 407 273 83 565 486 
246 11 146 570 242 175 503 571 41 176 98 84 122 
247 11 284 164 369 405 75 324 35 496 418 386 572 
248 11 321 326 52 545 376 16 117 21 109 46 514 
249 11 516 490 174 364 26 39 45 468 251 280 188 
250 11 375 504 274 215 33 400 96 573 439 539 29 
251 11 173 381 516 364 507 57 174 39 249 195 382 
252 11 330 227 8 238 500 7 444 540 429 458 551 
253 10 393 380 97 42 457 352 532 62 505 67 
254 11 133 143 556 105 160 103 467 118 417 170 193 
255 9 437 184 483 333 391 523 210 427 25 
256 11 296 82 528 130 324 386 320 75 481 410 299 
257 11 271 28 567 74 509 222 315 461 106 138 442 
258 11 265 526 30 100 129 287 161 553 187 305 95 
259 8 304 511 554 81 125 68 357 388 
260 11 346 176 368 122 175 73 134 102 531 94 571 
261 3 113 447 387 
262 11 200 203 290 406 180 230 563 462 23 575 403 
263 11 514 52 204 564 267 120 321 476 545 352 532 
264 10 298 194 552 398 169 78 80 538 561 342 
265 11 30 258 526 287 95 161 100 187 416 129 449 
266 11 70 518 420 445 85 332 334 43 367 335 56 
267 11 120 107 204 244 532 352 162 263 514 476 564 
268 11 535 389 99 338 183 235 336 159 524 512 181 
269 11 415 79 519 362 137 112 383 221 13 434 419 
270 11 223 188 61 472 56 45 294 332 92 280 335 
271 11 74 257 315 28 567 106 509 222 461 442 138 
272 11 307 301 44 148 454 202 423 327 384 493 220 
273 11 371 373 565 123 237 245 83 578 486 568 562 
274 11 250 33 504 215 400 375 539 439 557 451 573 
275 11 64 515 376 87 31 185 564 42 52 393 514 
276 9 77 351 288 340 534 459 126 36 358 
277 11 108 20 207 419 434 297 433 474 353 79 6 
278 11 58 57 468 335 173 45 562 472 364 332 486 
279 11 163 147 115 487 104 214 67 328 466 432 62 
280 11 92 188 493 26 327 249 490 44 301 270 174 
281 11 135 436 193 48 69 435 118 129 345 86 233 
282 10 506 168 557 140 451 439 69 436 536 435 
283 10 495 40 418 322 413 572 410 75 170 520 
284 11 164 247 369 405 35 324 75 496 386 312 418 
285 11 10 542 408 501 318 576 196 414 34 101 363 
286 11 316 60 361 293 303 38 189 199 402 366 224 
287 11 30 526 449 265 95 258 234 233 161 403 416 
288 9 358 351 534 328 340 276 77 214 147 
289 11 9 498 111 54 11 448 152 577 343 550 510 
290 11 406 180 200 262 462 203 236 23 390 230 473 
291 11 209 377 37 354 242 127 225 146 292 513 84 
292 11 225 110 132 242 124 430 209 146 354 291 165 
293 11 303 286 189 361 316 60 185 87 515 342 199 
294 11 24 323 493 19 190 61 220 92 270 482 136 
295 10 331 192 543 66 172 217 473 329 372 25 
296 11 82 130 256 528 481 320 299 324 517 386 65 
297 11 474 6 353 20 208 108 277 207 443 433 419 
298 11 194 552 264 398 78 80 561 169 342 538 374 
299 11 481 65 517 424 427 306 130 484 296 522 82 
300 11 109 367 21 117 85 136 518 56 326 61 482 
301 11 307 44 148 272 493 92 454 327 280 423 220 
302 11 394 471 158 43 357 46 544 304 125 70 91 
303 11 293 189 361 286 185 60 316 342 87 78 374 
304 11 125 554 68 357 420 445 158 81 302 43 70 
305 11 187 553 161 416 258 100 265 30 526 95 129 
306 11 427 65 186 569 2 184 299 481 424 517 522 
307 11 301 44 272 148 493 454 92 327 423 220 202 
308 11 142 121 220 323 476 19 423 76 384 190 454 
309 10 182 241 59 547 38 401 402 425 128 5 
310 11 470 202 4 560 529 395 537 384 76 484 198 
311 11 477 404 446 464 115 88 521 163 574 2 229 
312 11 496 405 134 73 369 531 35 166 164 284 360 
313 11 337 15 141 72 527 396 399 218 512 159 336 
314 9 555 411 27 441 214 469 432 465 502 
315 11 74 106 271 257 442 567 28 51 138 114 509 
316 10 286 60 361 293 38 199 303 402 366 224 
317 11 409 119 541 71 390 89 546 329 236 156 217 
318 11 363 196 285 408 319 417 10 212 542 576 103 
319 11 318 285 460 501 542 10 363 12 34 101 196 
320 9 130 481 296 528 410 256 299 427 82 
321 11 545 326 482 248 52 117 263 136 109 190 514 
322 11 413 572 495 283 418 170 160 40 143 86 254 
323 11 19 190 24 294 220 308 142 482 121 476 61 
324 11 528 75 256 247 284 386 410 418 164 296 82 
325 11 360 34 101 542 10 501 548 414 285 576 408 
326 11 545 321 117 482 248 109 136 21 300 52 61 
327 11 44 26 280 301 365 307 92 272 493 174 221 
328 9 358 288 534 147 214 279 115 351 163 
329 11 89 390 217 172 119 473 462 295 331 156 192 
330 11 252 227 238 8 7 444 540 500 397 90 458 
331 10 295 172 192 217 543 66 372 428 497 329 
332 11 335 472 223 56 45 468 266 518 270 85 188 
333 11 483 437 255 210 391 25 184 523 446 66 311 
334 11 568 407 578 245 81 83 445 237 371 420 68 
335 11 332 472 45 468 223 278 56 57 58 270 188 
336 11 235 159 512 99 399 218 527 337 268 396 313 
337 11 527 313 396 72 399 218 15 141 159 512 336 
338 11 389 535 524 268 6 183 297 474 99 277 20 
339 10 467 103 212 118 556 133 105 355 69 370 
340 10 351 77 288 276 358 534 328 36 126 459 
341 11 525 455 379 243 213 32 205 149 508 350 566 
342 11 78 374 398 189 561 194 298 552 303 538 185 
343 11 114 152 426 550 530 510 315 74 289 499 106 
344 11 576 414 408 196 417 35 369 160 143 360 285 
345 11 86 438 48 520 170 135 233 193 281 413 449 
346 11 102 368 94 122 260 531 165 47 166 571 205 
347 11 132 421 150 559 151 50 431 49 124 110 232 
348 11 240 73 386 197 496 134 198 312 537 260 405 
349 8 432 505 549 67 487 502 27 62 
350 11 211 430 124 50 150 566 508 559 205 47 149 
351 10 340 77 288 276 358 534 328 36 126 459 
352 11 532 97 42 564 514 267 393 253 380 244 263 
353 11 474 443 297 208 20 433 6 108 277 207 397 
354 11 209 291 513 37 377 225 422 292 181 132 151 
355 10 370 451 212 539 339 282 400 439 440 33 
356 11 201 153 63 511 479 83 565 407 373 81 17 
357 11 158 302 544 304 471 125 394 453 43 157 554 
358 9 288 328 534 351 340 147 214 276 77 
359 11 29 96 375 250 573 504 215 274 33 400 539 
360 11 325 414 10 576 34 542 101 408 35 501 285 
361 11 60 286 316 303 293 189 38 224 402 167 342 
362 11 519 221 415 79 269 434 433 137 207 383 419 
363 11 318 196 417 212 103 285 408 105 467 339 370 
364 11 490 249 516 468 57 251 45 174 173 472 39 
365 11 26 39 174 327 382 463 443 516 249 90 381 
366 6 199 316 239 286 182 38 
367 11 85 21 300 109 518 117 56 46 136 43 394 
368 11 94 346 102 122 165 47 571 260 205 508 379 
369 11 35 405 164 284 247 344 312 414 576 360 496 
370 10 355 212 451 440 339 539 400 363 33 467 
371 11 123 273 237 245 578 565 568 83 373 407 334 
372 7 428 497 36 126 331 459 172 
373 11 565 273 371 83 201 123 356 237 153 245 407 
374 11 342 561 78 398 538 189 171 194 155 298 185 
375 11 250 504 274 573 96 215 33 29 400 439 359 
376 11 31 275 16 64 219 87 179 248 515 52 171 
377 11 37 291 209 127 242 84 354 146 41 246 225 
378 11 3 456 183 485 512 450 99 235 336 159 489 
379 11 205 525 508 455 243 341 102 94 346 368 350 
380 10 393 253 457 42 97 352 515 532 64 275 
381 11 382 251 458 39 551 90 516 195 174 500 173 
382 11 381 90 551 458 39 463 7 174 238 516 251 
383 11 112 79 269 84 415 137 434 13 419 127 41 
384 11 76 529 423 454 392 121 148 228 220 308 142 
385 11 523 14 144 391 25 210 533 473 488 543 66 
386 11 256 348 324 240 82 496 284 528 296 247 164 
387 10 447 475 494 113 154 177 480 261 71 18 
388 7 206 22 511 479 259 63 17 
389 11 338 535 268 524 99 183 235 6 181 336 277 
390 11 89 462 329 236 119 409 406 290 546 317 23 
391 11 523 210 25 385 255 437 66 333 543 192 483 
392 11 228 529 76 384 55 395 131 4 569 121 478 
393 11 380 253 42 97 457 352 532 515 64 275 564 
394 11 302 471 43 46 158 357 91 219 70 16 544 
395 11 4 522 560 484 424 569 392 470 517 65 228 
396 11 72 527 337 218 399 313 159 15 141 336 512 
397 11 463 540 7 443 208 90 238 551 444 382 458 
398 11 194 78 298 552 264 342 561 374 538 189 80 
399 11 218 159 527 336 337 235 396 512 72 313 99 
400 10 33 539 274 215 439 250 504 451 557 375 
401 11 59 547 309 5 241 182 128 461 425 222 509 
402 11 38 224 167 128 182 60 316 309 361 286 199 
403 11 575 491 95 203 234 262 287 230 416 30 161 
404 11 464 477 311 88 446 574 521 229 162 2 478 
405 11 369 35 312 164 496 284 247 360 414 134 344 
406 11 290 462 180 262 200 236 203 23 390 89 473 
407 11 334 83 568 81 153 578 565 245 371 201 356 
408 11 576 414 344 196 285 10 417 360 363 542 318 
409 11 317 119 546 541 390 89 236 71 329 462 23 
410 10 40 75 418 528 283 320 324 495 256 130 
411 10 314 441 555 27 502 469 432 214 465 138 
412 11 139 536 93 140 573 557 504 168 439 506 375 
413 11 322 572 495 170 160 283 143 418 254 40 86 
414 11 576 408 344 360 35 10 285 196 325 369 542 
415 11 269 79 519 362 221 137 434 383 112 13 433 
416 11 161 187 305 95 30 265 553 258 526 287 403 
417 11 105 196 103 467 133 363 344 254 408 143 556 
418 11 40 75 283 572 495 322 410 413 324 247 528 
419 11 207 434 277 108 20 79 433 383 269 415 362 
420 11 445 68 125 70 554 304 43 81 302 266 357 
421 11 431 49 347 452 151 132 559 150 232 50 116 
422 11 116 181 513 151 354 132 452 218 421 399 49 
423 11 454 384 76 148 529 220 272 307 308 121 301 
424 11 522 517 65 484 395 569 299 4 560 481 306 
425 8 239 241 5 547 502 182 309 59 
426 11 550 530 152 343 114 510 178 315 442 499 145 
427 9 306 184 481 299 65 320 255 2 517 
428 7 372 497 126 36 331 459 172 
429 11 231 8 226 444 330 252 524 6 208 540 7 
430 11 124 211 350 50 110 47 150 165 559 292 508 
431 11 49 421 452 347 151 559 132 232 150 50 116 
432 11 349 27 487 549 505 67 147 502 279 411 214 
433 11 207 20 434 108 353 362 277 419 79 221 415 
434 11 419 207 79 108 277 20 433 415 269 362 383 
435 11 436 93 129 140 100 281 536 506 69 168 282 
436 11 69 281 435 506 282 168 140 135 193 129 93 
437 9 255 483 333 184 391 210 523 25 427 
438 8 520 345 86 233 48 170 449 135 
439 11 557 168 451 282 506 33 400 140 539 274 504 
440 10 370 539 355 400 33 212 215 451 274 439 
441 11 411 314 555 502 27 469 432 138 51 349 214 
442 11 106 51 315 138 567 74 28 469 271 178 257 
443 11 353 208 397 463 540 474 7 297 6 365 433 
444 11 8 540 429 208 330 7 397 252 231 6 238 
445 11 420 68 125 554 70 81 304 43 334 266 357 
446 11 477 311 2 404 483 464 186 574 88 333 478 
447 9 387 475 113 494 154 177 261 480 71 
448 11 11 577 111 498 54 9 216 289 492 499 53 
449 11 287 233 234 526 30 438 265 520 95 258 48 
450 11 485 489 378 456 141 15 3 512 313 337 336 
451 10 355 282 439 557 168 539 506 370 400 33 
452 11 49 431 421 151 116 347 422 132 513 559 232 
453 8 157 544 91 155 158 357 471 538 
454 11 423 148 384 76 220 272 307 529 301 308 44 
455 11 243 379 525 341 213 205 508 32 102 166 94 
456 11 3 378 485 183 450 489 512 99 235 336 535 
457 7 380 253 393 42 97 505 366 
458 11 551 90 382 238 381 500 7 227 195 463 397 
459 7 126 276 36 497 77 372 428 
460 11 12 548 501 101 32 34 213 542 10 319 325 
461 11 222 509 28 257 567 271 5 74 547 138 59 
462 11 406 290 236 390 180 89 23 329 200 262 473 
463 11 397 540 7 443 90 551 382 208 238 458 353 
464 11 88 404 574 477 521 162 311 229 478 446 244 
465 5 555 314 411 534 27 
466 11 62 104 229 521 67 487 163 549 279 505 115 
467 11 103 105 133 339 556 118 254 417 212 143 69 
468 11 45 57 364 472 490 335 278 249 332 58 188 
469 11 138 51 441 411 442 314 555 567 106 28 502 
470 11 560 537 310 4 198 484 395 522 197 424 517 
471 11 302 394 158 357 46 43 91 544 219 155 179 
472 11 45 335 332 223 468 188 270 490 56 57 364 
473 11 543 180 192 295 329 14 66 462 290 406 25 
474 11 297 6 353 20 208 108 277 207 443 433 419 
475 11 494 154 387 447 177 480 113 53 216 261 71 
476 11 204 120 142 107 308 121 267 263 19 323 162 
477 11 446 404 311 464 2 88 574 186 478 521 483 
478 11 131 55 574 88 186 228 2 464 392 404 477 
479 11 63 511 22 356 206 201 17 153 191 388 83 
480 11 177 492 18 53 494 216 387 475 154 447 499 
481 10 299 65 130 427 320 517 296 82 306 424 
482 11 545 326 136 117 321 190 24 61 109 19 300 
483 11 333 437 255 184 446 2 210 391 427 477 306 
484 11 522 560 424 517 4 395 65 470 299 569 198 
485 11 450 489 378 456 141 15 3 512 313 183 336 
486 11 562 123 237 58 371 273 245 278 558 578 173 
487 11 67 104 549 279 62 505 163 432 466 349 147 
488 8 533 563 144 230 14 234 520 385 
489 11 450 485 141 15 313 378 456 512 337 527 72 
490 11 249 364 45 468 516 188 174 472 57 280 26 
491 11 575 403 203 95 23 416 262 161 234 187 30 
492 11 216 499 480 18 177 53 577 448 510 11 494 
493 11 92 301 294 307 280 148 44 220 188 270 272 
494 11 154 475 387 177 447 480 53 216 113 492 18 
495 11 283 322 413 40 418 572 170 410 520 75 86 
496 11 312 405 73 134 164 284 348 386 369 247 240 
497 7 372 36 126 428 459 77 331 
498 11 111 54 11 448 9 289 577 152 499 510 216 
499 11 510 492 18 530 550 577 145 448 11 480 152 
500 11 227 458 195 238 551 90 252 330 7 381 382 
501 11 542 34 101 10 548 285 325 460 360 12 414 
502 9 441 239 425 411 432 349 314 27 5 
503 11 98 570 41 175 176 246 84 146 242 112 571 
504 11 250 375 274 33 215 439 400 573 96 557 539 
505 9 549 67 349 487 62 432 104 457 466 
506 10 168 282 140 557 439 69 436 536 451 435 
507 11 558 173 195 251 57 381 364 278 500 58 458 
508 11 205 379 525 350 211 47 94 455 430 243 102 
509 11 222 461 257 28 567 271 74 315 5 138 106 
510 11 530 550 499 152 426 145 18 492 343 577 11 
511 11 153 479 356 63 201 259 22 206 81 388 407 
512 11 336 235 159 99 399 218 337 527 313 15 378 
513 11 422 354 181 151 116 132 209 291 225 292 347 
514 11 564 52 263 352 532 267 42 97 321 248 275 
515 11 64 275 87 185 376 31 380 42 293 393 303 
516 11 174 249 364 39 251 490 381 26 382 468 57 
517 11 424 65 484 299 522 481 560 4 395 569 82 
518 11 85 367 300 56 21 109 266 70 43 117 332 
519 11 362 221 415 269 79 137 434 433 13 112 383 
520 8 438 345 86 233 48 170 449 135 
521 11 229 466 162 244 464 104 62 404 88 163 107 
522 11 424 484 395 4 517 560 65 569 299 470 392 
523 11 391 385 210 25 255 437 14 144 66 543 333 
524 11 338 535 183 389 268 6 226 231 3 429 297 
525 11 379 205 508 455 341 243 149 350 213 102 94 
526 11 265 30 258 287 100 129 449 95 233 161 187 
527 11 337 396 218 399 72 313 159 336 512 15 141 
528 11 256 324 130 296 75 82 410 320 386 40 418 
529 11 76 384 392 423 454 228 395 310 4 121 148 
530 11 550 510 426 152 499 145 343 178 18 114 492 
531 11 166 134 73 346 102 260 312 368 94 243 496 
532 11 352 97 267 42 564 244 514 253 393 107 120 
533 8 563 488 230 14 144 200 234 262 
534 7 288 358 328 276 351 214 77 
535 11 268 389 338 183 524 99 235 336 3 159 512 
536 11 139 140 412 93 168 557 506 435 282 439 436 
537 11 198 197 470 560 484 310 240 4 348 395 522 
538 9 561 169 374 78 194 264 398 298 342 
539 10 400 33 274 215 451 439 355 557 250 370 
540 11 397 7 463 208 238 444 443 90 330 551 227 
541 11 71 119 156 317 409 217 113 172 89 329 390 
542 11 10 501 34 101 285 325 548 360 414 408 576 
543 11 192 66 295 473 25 331 210 391 523 329 172 
544 9 453 157 357 158 91 471 155 302 394 
545 11 326 321 482 117 248 136 52 109 190 300 21 
546 11 236 23 409 390 317 462 89 406 290 119 203 
547 10 5 59 241 425 309 401 182 239 461 502 
548 11 101 34 501 460 542 325 213 12 10 32 360 
549 9 505 67 487 349 62 104 432 466 279 
550 11 530 510 426 152 343 499 114 145 178 18 492 
551 11 90 458 382 238 7 381 500 463 227 397 540 
552 11 298 194 398 264 78 80 342 561 169 189 374 
553 11 305 187 100 161 258 416 265 129 30 93 526 
554 11 68 125 304 445 420 81 70 357 43 158 302 
555 9 314 411 27 441 214 465 469 432 502 
556 11 133 118 467 105 254 103 339 193 143 417 135 
557 10 439 168 282 506 140 451 536 504 139 33 
558 11 507 173 195 251 57 562 58 278 486 364 381 
559 11 150 50 566 232 347 350 124 211 421 430 431 
560 11 484 470 4 522 395 424 517 537 198 310 65 
561 10 538 374 78 342 398 194 298 264 552 169 
562 11 486 123 237 58 278 558 245 371 273 578 57 
563 8 230 533 488 234 200 262 14 203 
564 11 514 52 352 532 42 263 97 275 267 64 376 
565 11 83 373 371 273 407 201 153 245 568 123 356 
566 11 232 559 50 150 350 149 211 124 430 347 508 
567 11 28 257 106 271 138 315 509 74 51 461 222 
568 11 334 578 245 407 237 371 123 83 565 81 445 
569 11 65 424 522 186 395 306 228 517 4 392 299 
570 11 503 98 41 175 246 176 146 84 242 571 377 
571 11 122 165 246 47 146 368 94 175 176 110 242 
572 11 322 413 418 495 160 283 143 40 170 75 254 
573 11 96 375 504 412 250 29 139 359 274 536 439 
574 11 88 478 131 464 55 404 186 477 2 446 162 
575 11 491 403 203 23 262 95 234 200 290 406 230 
576 11 414 408 344 360 196 285 10 35 417 369 542 
577 11 448 11 111 54 498 216 492 499 53 9 289 
578 11 245 568 237 334 123 371 407 83 565 273 266 
DEPOT_SECTION
   1
   -1
EOF
