NAME :  X-n613-kX-w61-c9.cctp
COMMENT : 	Adapted by Maziero, Usberti and Cavellucci from the Uchoa, Pecin, Pessoa, Poggi, Subramanian, and Vidal (2013)
TYPE :  CCTP
DIMENSION :    421
EDGE_WEIGHT_TYPE : 	EUC_2D	
CAPACITY : 	523
VERTICES_WITHIN_COVERAGE :  9
VERTICES_WITH_DEMAND : 	61
NODE_COORD_SECTION
1 500 500
2 550 574
3 177 24
4 448 476
5 934 619
6 323 122
7 430 76
8 364 9
9 988 994
10 91 636
11 926 977
12 2 579
13 326 342
14 455 822
15 48 74
16 814 334
17 997 22
18 838 899
19 634 360
20 324 191
21 750 283
22 996 106
23 473 967
24 642 334
25 539 764
26 510 194
27 807 664
28 949 710
29 21 994
30 293 934
31 832 366
32 8 531
33 56 893
34 82 605
35 197 626
36 661 777
37 207 272
38 945 510
39 505 137
40 325 693
41 240 335
42 776 462
43 810 235
44 496 288
45 624 171
46 799 293
47 120 393
48 250 839
49 31 266
50 64 349
51 898 729
52 740 387
53 838 992
54 952 991
55 558 497
56 695 240
57 622 113
58 670 95
59 967 595
60 926 470
61 665 284
62 753 558
63 946 61
64 820 415
65 565 786
66 768 573
67 841 180
68 799 203
69 33 134
70 973 751
71 308 651
72 677 737
73 245 311
74 743 248
75 265 806
76 851 403
77 621 530
78 467 83
79 866 308
80 556 270
81 131 426
82 329 945
83 64 997
84 761 475
85 248 366
86 235 937
87 80 598
88 133 453
89 739 585
90 933 751
91 319 201
92 734 286
93 118 342
94 951 973
95 303 313
96 92 212
97 716 302
98 151 409
99 89 361
100 843 196
101 679 788
102 233 266
103 994 524
104 229 917
105 566 501
106 96 294
107 226 827
108 691 293
109 338 332
110 905 714
111 46 71
112 594 419
113 419 783
114 852 847
115 194 344
116 751 651
117 530 340
118 6 405
119 60 343
120 87 261
121 777 993
122 859 247
123 292 982
124 724 614
125 247 618
126 133 392
127 986 490
128 255 776
129 864 343
130 594 73
131 531 156
132 221 392
133 221 398
134 809 947
135 864 805
136 843 335
137 477 878
138 940 551
139 183 69
140 498 641
141 867 413
142 540 551
143 281 990
144 604 224
145 650 349
146 998 2
147 570 808
148 216 820
149 355 476
150 887 524
151 443 886
152 436 349
153 427 927
154 78 435
155 997 108
156 324 213
157 369 115
158 177 280
159 539 753
160 81 372
161 43 527
162 765 671
163 31 906
164 854 983
165 835 330
166 570 361
167 982 681
168 650 227
169 975 485
170 287 6
171 446 24
172 530 474
173 700 542
174 305 9
175 12 340
176 285 858
177 358 892
178 498 952
179 444 51
180 888 591
181 927 591
182 185 324
183 199 357
184 257 625
185 757 346
186 559 164
187 56 937
188 559 96
189 415 7
190 782 493
191 972 719
192 267 937
193 437 907
194 699 405
195 286 936
196 755 180
197 341 291
198 628 240
199 977 737
200 487 328
201 57 916
202 810 409
203 701 741
204 314 201
205 661 104
206 550 234
207 215 853
208 318 722
209 253 617
210 90 662
211 909 472
212 308 910
213 994 964
214 468 904
215 181 279
216 891 448
217 610 312
218 330 146
219 725 274
220 517 304
221 835 254
222 901 434
223 261 997
224 493 583
225 512 311
226 592 403
227 949 560
228 426 413
229 200 557
230 44 99
231 823 681
232 958 756
233 913 482
234 73 713
235 4 687
236 717 349
237 273 727
238 622 359
239 114 595
240 720 330
241 485 245
242 412 21
243 682 188
244 555 691
245 671 173
246 55 117
247 242 124
248 670 711
249 22 470
250 166 675
251 269 813
252 144 450
253 66 302
254 65 382
255 683 718
256 744 458
257 370 159
258 155 263
259 866 240
260 9 995
261 136 611
262 925 459
263 585 137
264 473 176
265 748 261
266 141 431
267 208 624
268 653 811
269 62 951
270 805 374
271 204 284
272 139 39
273 800 483
274 516 93
275 489 103
276 297 291
277 468 780
278 999 143
279 220 145
280 509 745
281 515 461
282 791 479
283 821 266
284 459 481
285 47 141
286 417 102
287 57 886
288 991 595
289 962 506
290 210 596
291 476 910
292 133 673
293 353 675
294 834 675
295 146 650
296 305 987
297 301 687
298 308 224
299 821 189
300 45 279
301 446 524
302 907 598
303 659 823
304 326 19
305 92 368
306 29 271
307 804 619
308 369 215
309 325 240
310 519 684
311 297 819
312 102 896
313 20 818
314 850 667
315 916 759
316 401 140
317 364 57
318 823 178
319 590 605
320 924 977
321 315 879
322 78 1
323 36 243
324 58 482
325 153 0
326 812 506
327 481 68
328 705 785
329 16 596
330 974 675
331 503 914
332 431 112
333 728 560
334 623 149
335 879 709
336 404 453
337 838 272
338 646 185
339 520 843
340 337 149
341 761 972
342 637 433
343 607 588
344 575 511
345 952 72
346 818 942
347 688 326
348 547 662
349 423 507
350 93 4
351 699 23
352 762 595
353 389 815
354 48 7
355 586 171
356 391 990
357 860 942
358 562 289
359 779 980
360 305 733
361 661 798
362 954 975
363 888 912
364 483 24
365 69 618
366 866 631
367 244 362
368 72 937
369 793 569
370 582 43
371 73 425
372 979 684
373 911 888
374 921 111
375 737 414
376 830 426
377 546 141
378 429 536
379 741 233
380 373 286
381 305 814
382 690 548
383 449 506
384 491 754
385 252 82
386 278 918
387 500 421
388 913 865
389 734 467
390 410 836
391 205 115
392 360 459
393 61 872
394 408 85
395 83 627
396 550 809
397 711 338
398 515 998
399 946 604
400 61 580
401 785 575
402 474 76
403 243 984
404 849 185
405 817 685
406 607 31
407 43 337
408 417 480
409 693 31
410 749 418
411 30 362
412 945 714
413 492 526
414 234 361
415 165 386
416 262 707
417 87 989
418 597 528
419 401 969
420 146 661
421 910 977
DEMAND_SECTION
2 97
3 2
4 30
5 91
6 63
7 99
8 78
9 50
10 2
11 58
12 1
13 3
14 99
15 28
16 32
17 10
18 1
19 75
20 55
21 75
22 31
23 38
24 34
25 62
26 25
27 12
28 63
29 43
30 100
31 58
32 45
33 68
34 38
35 31
36 91
37 59
38 4
39 43
40 48
41 31
42 84
43 43
44 51
45 37
46 48
47 26
48 97
49 39
50 42
51 64
52 50
53 5
54 98
55 66
56 65
57 24
58 74
59 59
60 40
61 57
62 23
COVERAGE_SECTION
2 9 142 319 224 343 418 344 105 413 55 
3 7 325 272 139 350 385 391 322 
4 9 284 383 408 349 301 336 378 228 413 
5 8 399 181 302 59 180 227 288 138 
6 9 218 340 157 257 20 317 91 204 316 
7 9 394 179 286 332 78 402 327 171 242 
8 9 304 317 242 189 174 170 171 394 179 
9 8 213 54 362 94 11 320 421 363 
10 9 395 210 365 34 87 239 261 292 295 
11 9 320 421 94 362 54 9 213 164 357 
12 9 329 32 400 161 365 87 34 395 10 
13 6 109 95 197 276 380 85 
14 7 277 390 113 137 151 353 339 
15 6 111 230 246 69 285 354 
16 8 165 136 31 270 46 129 79 185 
17 7 146 63 345 22 155 374 278 
18 9 346 357 363 114 134 373 388 164 53 
19 9 238 145 24 217 226 166 347 112 342 
20 9 91 204 156 298 340 218 309 308 257 
21 9 92 265 219 74 97 46 379 240 108 
22 7 155 278 345 63 374 17 146 
23 8 178 398 291 153 331 214 193 419 
24 9 145 19 238 217 347 61 108 397 236 
25 8 159 65 280 396 384 147 277 244 
26 9 264 131 39 186 206 241 377 355 80 
27 8 231 405 294 162 314 307 116 366 
28 9 412 191 199 372 330 90 110 167 232 
29 9 260 83 269 417 187 368 201 163 33 
30 9 195 386 192 212 82 123 296 143 86 
31 9 270 136 165 16 129 76 202 64 141 
32 7 161 12 249 329 324 400 87 
33 8 287 393 201 163 187 312 368 269 
34 9 87 365 395 10 400 239 261 210 329 
35 9 267 290 125 295 209 250 184 420 261 
36 8 101 361 268 72 328 303 203 255 
37 9 271 102 215 158 258 73 182 41 115 
38 9 289 169 138 233 60 127 227 103 211 
39 9 131 275 377 274 264 26 186 78 188 
40 7 297 208 293 71 360 237 416 
41 9 73 367 414 85 115 183 182 132 271 
42 9 84 282 190 256 273 389 410 326 375 
43 8 221 283 68 337 299 122 100 259 
44 8 220 225 200 241 117 80 358 206 
45 9 334 338 355 245 263 144 57 243 168 
46 9 283 16 337 21 165 221 43 265 136 
47 9 126 81 98 305 266 160 99 415 93 
48 9 107 251 75 207 148 176 311 381 128 
49 9 306 300 323 253 120 106 407 175 96 
50 9 119 407 99 160 254 305 411 253 175 
51 9 110 335 315 90 412 28 232 191 70 
52 9 375 410 185 236 194 397 240 270 256 
53 9 164 134 346 357 359 121 421 341 320 
54 9 362 94 11 320 9 421 213 164 363 
55 9 105 344 172 418 281 142 77 413 2 
56 9 219 168 379 74 61 108 243 265 92 
57 9 334 205 263 130 58 45 188 355 338 
58 8 205 57 409 334 245 351 130 45 
59 8 399 288 227 181 5 138 302 103 
60 8 262 211 233 216 38 222 169 289 
61 9 108 347 56 97 24 198 168 219 217 
62 9 66 333 89 401 352 369 173 124 382 
63 6 345 374 17 22 155 146 
64 9 202 376 76 270 141 31 42 282 273 
65 7 147 396 25 159 280 339 384 
66 7 401 62 352 369 89 333 307 
67 7 404 100 318 299 68 43 259 
68 8 299 43 318 100 67 196 404 221 
69 5 285 246 230 15 111 
70 9 199 232 191 90 412 28 315 372 167 
71 6 297 40 293 184 209 125 
72 6 255 203 248 36 101 328 
73 9 41 102 271 367 414 37 85 276 95 
74 9 265 379 219 21 92 56 97 43 108 
75 9 251 128 311 48 381 107 148 176 207 
76 8 141 376 64 202 31 270 222 216 
77 6 418 344 343 105 55 382 
78 9 402 327 275 7 179 332 274 286 394 
79 5 129 136 165 337 16 
80 9 358 206 220 225 44 144 217 117 241 
81 9 266 98 88 252 126 47 415 154 371 
82 8 30 212 195 296 123 386 177 192 
83 7 417 29 269 260 187 368 201 
84 9 42 256 190 389 282 273 410 326 375 
85 9 367 414 41 132 133 183 73 115 95 
86 7 104 192 386 403 195 30 223 
87 9 34 365 400 395 239 10 261 329 210 
88 6 252 266 81 98 154 47 
89 7 352 333 62 66 124 401 369 
90 9 315 232 412 70 51 28 110 199 191 
91 9 204 20 156 298 309 308 340 218 257 
92 9 219 21 97 265 74 108 240 379 397 
93 7 99 305 160 47 126 106 50 
94 8 362 54 11 320 421 9 213 363 
95 7 276 13 109 197 73 41 380 
96 4 120 323 49 258 
97 9 92 108 240 219 397 347 21 236 265 
98 8 266 126 81 415 47 252 88 133 
99 9 305 160 50 254 119 93 47 407 126 
100 7 404 67 299 318 68 259 43 
101 7 36 361 328 268 303 72 203 
102 9 37 271 73 215 158 41 276 182 258 
103 9 127 289 169 38 227 138 288 59 60 
104 6 86 192 386 195 30 207 
105 9 55 344 418 172 142 77 281 2 413 
106 6 253 120 93 300 119 50 
107 6 148 48 207 75 251 128 
108 9 97 61 347 219 92 240 397 56 21 
109 5 13 95 197 276 380 
110 9 51 335 412 28 90 315 191 232 314 
111 6 15 230 246 69 354 285 
112 5 226 342 166 238 19 
113 5 353 277 14 390 384 
114 5 135 18 388 373 363 
115 9 183 182 414 41 415 367 132 85 133 
116 4 162 124 27 352 
117 6 225 220 166 200 358 44 
118 8 411 254 175 249 371 407 154 50 
119 9 50 407 99 160 411 254 253 305 175 
120 7 106 253 300 96 323 49 306 
121 6 359 341 134 53 346 164 
122 6 259 221 337 283 43 100 
123 9 143 296 223 195 30 403 192 82 386 
124 6 89 352 116 333 66 62 
125 7 209 184 267 290 35 71 229 
126 9 47 98 415 81 266 305 93 99 160 
127 8 169 289 103 38 60 262 233 138 
128 7 75 251 237 107 148 311 48 
129 7 136 165 79 31 16 76 270 
130 8 370 188 406 57 263 205 58 274 
131 9 377 186 39 26 263 355 264 274 188 
132 8 133 414 85 367 183 115 415 41 
133 8 132 414 85 367 183 415 115 41 
134 8 346 359 357 53 341 18 121 164 
135 5 114 315 388 51 90 
136 8 165 129 16 31 79 270 46 337 
137 9 214 291 151 331 193 339 14 153 178 
138 8 227 38 181 289 59 399 302 150 
139 5 3 391 272 385 325 
140 5 310 348 224 244 2 
141 7 76 376 222 216 64 202 31 
142 9 2 344 413 105 55 224 418 319 343 
143 9 123 223 296 403 195 192 30 82 86 
144 9 198 168 206 355 45 338 80 186 334 
145 9 24 19 238 347 217 397 61 236 108 
146 6 17 63 345 22 155 374 
147 5 396 65 25 339 159 
148 5 107 207 48 75 251 
149 6 392 336 408 349 4 228 
150 4 233 211 138 38 
151 7 193 214 137 291 153 390 14 
152 6 200 228 225 44 380 220 
153 7 193 151 214 419 291 23 137 
154 6 371 324 81 254 88 47 
155 7 22 278 345 63 374 17 146 
156 8 91 204 298 20 309 308 340 218 
157 9 316 257 6 340 394 218 286 317 332 
158 6 215 271 258 37 182 102 
159 8 25 280 65 384 396 147 244 310 
160 9 305 99 254 50 119 47 93 407 411 
161 6 32 324 400 249 12 329 
162 3 116 27 405 
163 8 33 201 287 187 393 368 269 312 
164 9 53 357 346 421 134 320 11 359 121 
165 8 136 16 129 31 79 46 270 337 
166 6 117 226 238 112 217 19 
167 9 372 330 191 28 412 199 70 5 232 
168 9 198 338 144 56 243 245 61 45 108 
169 8 127 289 38 103 60 262 233 211 
170 9 174 304 8 385 317 3 6 139 242 
171 9 179 242 189 364 7 327 402 78 394 
172 7 281 55 105 344 387 413 284 
173 5 382 333 62 89 66 
174 9 170 304 8 317 385 242 189 6 157 
175 9 411 407 119 50 118 253 254 300 306 
176 9 321 48 311 251 381 75 212 386 107 
177 5 321 212 82 390 30 
178 7 23 331 291 398 214 153 193 
179 9 171 7 78 402 327 242 364 394 189 
180 5 302 181 366 5 399 
181 8 302 399 5 227 180 59 138 288 
182 7 115 183 271 158 215 37 41 
183 9 115 414 182 132 367 415 41 133 85 
184 7 209 125 267 290 71 35 297 
185 9 236 240 52 397 270 16 97 21 92 
186 9 377 355 131 263 26 39 45 334 188 
187 9 269 368 201 163 33 287 83 417 312 
188 9 130 274 377 263 370 57 131 39 186 
189 9 242 171 8 179 364 7 317 394 304 
190 8 282 273 84 42 326 256 389 62 
191 9 199 28 412 70 372 167 232 330 90 
192 9 195 386 30 86 104 212 123 403 143 
193 7 151 153 214 291 137 331 23 
194 6 375 52 410 236 342 397 
195 9 30 192 386 212 82 123 86 143 296 
196 8 68 379 299 318 74 243 43 265 
197 5 380 109 95 276 13 
198 9 168 144 61 338 56 45 217 243 80 
199 9 70 191 232 28 412 90 372 167 330 
200 6 225 220 44 117 152 241 
201 8 187 33 368 163 287 269 393 312 
202 9 64 376 270 76 31 141 410 42 52 
203 6 72 255 248 328 101 36 
204 9 91 20 156 298 309 218 308 340 257 
205 9 58 57 334 245 130 45 409 338 263 
206 9 80 144 358 26 241 186 355 44 220 
207 5 107 148 48 104 251 
208 8 360 40 297 237 416 293 71 128 
209 6 125 184 267 290 35 71 
210 8 10 395 292 365 234 420 295 34 
211 8 233 60 262 216 222 38 150 289 
212 9 30 386 321 195 82 192 177 176 123 
213 7 9 362 94 54 11 320 421 
214 8 291 137 151 193 331 153 178 23 
215 7 158 271 37 258 182 102 115 
216 8 222 211 262 233 60 141 76 376 
217 9 24 238 358 19 145 61 166 80 198 
218 9 340 6 257 20 157 91 204 156 316 
219 9 92 265 21 97 74 108 379 56 240 
220 8 225 44 117 200 358 80 241 206 
221 7 283 337 122 43 259 46 100 
222 7 216 262 211 141 60 233 76 
223 9 143 403 123 296 192 86 195 30 386 
224 5 142 413 2 140 301 
225 7 220 44 200 117 358 80 241 
226 5 112 166 238 342 19 
227 8 138 181 59 399 38 288 289 302 
228 7 336 152 4 408 387 284 392 
229 4 290 267 35 125 
230 5 246 15 111 69 285 
231 7 405 294 27 314 162 335 307 
232 9 70 90 199 191 315 412 28 51 110 
233 8 211 60 262 216 38 150 222 289 
234 5 210 292 235 10 395 
235 8 234 210 329 365 395 10 12 34 
236 9 397 240 347 185 52 97 194 108 92 
237 6 416 360 208 297 128 40 
238 8 19 145 24 217 166 226 112 347 
239 9 261 34 87 395 10 365 400 295 210 
240 9 397 236 97 347 185 92 108 21 219 
241 9 44 26 206 220 264 225 80 200 358 
242 9 189 171 179 8 7 317 394 364 286 
243 9 245 338 168 56 45 334 196 379 198 
244 8 348 310 159 280 25 140 384 319 
245 9 243 338 45 334 168 205 56 57 58 
246 5 230 285 69 15 111 
247 7 279 391 385 6 139 218 340 
248 4 255 72 203 36 
249 6 324 161 32 154 118 371 
250 5 420 295 292 35 267 
251 9 75 311 48 381 128 107 176 148 207 
252 6 88 266 81 98 126 47 
253 9 106 300 119 407 120 50 306 49 99 
254 9 160 305 99 50 119 411 371 407 154 
255 4 248 72 203 36 
256 8 389 84 42 410 375 282 190 273 
257 9 340 316 218 157 20 308 6 91 204 
258 4 158 215 37 271 
259 6 122 221 337 100 283 43 
260 9 29 83 269 187 417 368 163 201 33 
261 9 239 295 10 420 34 395 87 292 35 
262 8 60 211 233 222 216 38 169 289 
263 9 355 186 377 334 57 188 45 131 130 
264 9 26 39 131 241 275 332 316 377 186 
265 9 74 21 219 92 379 97 56 46 108 
266 8 81 252 88 98 126 47 415 154 
267 9 35 290 125 209 184 250 229 295 420 
268 5 303 361 36 101 328 
269 9 187 368 201 417 83 163 33 29 287 
270 9 31 202 16 64 165 76 136 185 376 
271 9 37 215 158 102 182 73 258 115 41 
272 5 3 325 139 350 322 
273 8 282 190 326 42 84 256 376 389 
274 8 275 188 327 39 402 78 377 131 
275 9 274 78 402 327 39 332 7 131 179 
276 7 95 197 73 109 309 13 298 
277 9 384 14 113 280 25 159 390 339 353 
278 5 155 22 374 345 63 
279 5 247 391 385 139 6 
280 8 384 159 25 277 310 65 244 396 
281 7 172 387 55 284 105 4 413 
282 9 273 190 42 84 326 256 389 376 64 
283 9 221 337 43 46 122 259 79 165 68 
284 9 4 383 408 349 301 413 281 336 378 
285 5 69 246 230 15 111 
286 9 332 394 7 316 157 78 179 402 317 
287 7 33 393 201 163 312 187 368 
288 9 59 399 227 5 181 138 103 330 302 
289 9 38 169 127 103 138 60 233 227 262 
290 8 267 35 229 125 209 184 261 295 
291 8 214 331 137 193 151 178 153 23 
292 6 420 295 250 210 10 261 
293 5 40 71 297 208 360 
294 8 231 314 405 27 366 335 307 162 
295 8 420 292 250 261 35 10 210 239 
296 9 123 143 223 82 30 195 403 192 386 
297 7 40 71 208 416 360 237 293 
298 8 156 309 204 91 20 308 276 197 
299 7 318 67 100 68 404 43 221 
300 9 306 49 253 323 120 106 407 119 175 
301 7 383 378 349 284 413 4 408 
302 8 180 181 5 399 366 138 227 59 
303 5 268 361 101 36 328 
304 9 174 8 170 317 242 189 385 6 157 
305 9 99 160 254 50 93 47 119 126 407 
306 9 49 300 323 253 120 407 106 175 119 
307 7 27 352 401 369 66 116 366 
308 7 156 20 309 91 257 204 298 
309 7 298 156 91 204 20 308 197 
310 7 348 244 140 280 159 384 25 
311 7 381 251 75 176 48 128 321 
312 3 33 287 393 
313 4 393 287 33 163 
314 9 294 231 405 366 27 335 307 110 51 
315 9 90 51 232 110 412 70 28 335 199 
316 9 257 157 286 332 394 340 7 218 6 
317 9 8 394 304 157 242 7 286 189 174 
318 6 299 67 100 404 68 43 
319 6 343 2 348 142 418 77 
320 9 11 421 94 362 54 9 164 213 357 
321 9 212 176 177 386 30 311 195 381 82 
322 8 350 354 272 325 111 15 3 230 
323 7 49 306 300 120 96 253 106 
324 6 249 161 154 371 32 88 
325 6 3 272 350 139 322 354 
326 6 273 190 282 42 84 369 
327 8 402 78 275 179 274 364 7 171 
328 7 101 203 36 361 72 268 303 
329 9 12 400 365 87 32 34 161 395 10 
330 9 167 372 28 191 412 199 5 70 399 
331 6 291 214 178 137 23 151 
332 9 286 394 7 316 78 402 275 157 179 
333 8 62 89 173 382 66 352 124 401 
334 9 45 57 263 338 355 245 205 186 243 
335 9 110 51 314 294 315 231 405 412 90 
336 8 408 392 228 4 149 349 284 383 
337 8 221 283 122 259 46 43 79 165 
338 9 45 245 243 168 334 144 198 355 56 
339 7 396 137 147 14 65 331 214 
340 9 218 6 257 20 157 91 204 156 316 
341 6 359 121 134 346 53 164 
342 4 112 226 194 19 
343 6 319 2 77 418 142 344 
344 8 105 55 418 77 142 172 2 281 
345 6 63 374 22 155 17 146 
346 8 134 357 18 53 359 164 341 121 
347 9 397 240 108 97 236 145 24 61 92 
348 7 244 310 140 319 2 159 280 
349 7 383 408 301 378 4 284 336 
350 8 322 354 272 325 111 15 3 230 
351 4 409 58 205 406 
352 8 66 89 401 62 369 124 307 333 
353 4 390 113 14 177 
354 8 322 350 111 15 230 272 325 246 
355 9 186 263 45 334 377 144 131 338 57 
356 8 419 153 82 23 296 193 123 177 
357 9 164 363 346 18 134 53 421 320 373 
358 9 80 220 217 225 206 117 44 166 144 
359 6 121 341 134 346 53 164 
360 8 208 237 40 297 416 128 293 381 
361 6 268 36 101 303 328 72 
362 8 94 54 11 320 9 213 421 363 
363 8 373 357 18 388 421 114 320 11 
364 8 171 327 179 402 78 189 242 7 
365 9 395 34 87 10 400 210 239 329 261 
366 7 314 180 302 294 307 231 27 
367 9 85 414 41 132 133 183 73 115 182 
368 9 187 269 201 33 163 312 287 417 83 
369 6 401 66 352 62 307 89 
370 8 406 130 188 57 274 263 205 364 
371 7 154 254 160 47 81 324 305 
372 9 167 330 191 28 412 199 70 232 5 
373 5 388 363 114 18 357 
374 4 345 63 22 155 
375 8 410 52 194 256 389 42 84 236 
376 9 64 202 76 141 270 31 273 42 216 
377 9 131 186 263 39 188 355 274 26 275 
378 6 301 349 383 408 4 284 
379 9 74 265 219 56 21 92 196 68 43 
380 5 197 109 309 308 13 
381 7 311 251 75 176 48 128 321 
382 5 173 333 89 62 77 
383 7 301 349 284 4 378 408 413 
384 8 280 277 159 25 310 14 113 65 
385 8 247 391 139 279 6 170 174 3 
386 9 195 30 192 212 86 104 321 82 176 
387 5 281 172 284 228 4 
388 5 373 363 114 135 18 
389 7 256 84 42 410 375 190 282 
390 4 353 14 113 151 
391 5 279 247 139 385 3 
392 6 149 336 408 349 228 4 
393 5 287 33 201 163 312 
394 9 286 7 332 157 179 317 316 78 242 
395 9 10 365 34 87 210 239 400 261 295 
396 7 147 65 339 25 159 280 384 
397 9 240 236 347 97 185 108 52 92 145 
398 5 178 23 331 291 214 
399 8 5 59 181 302 227 288 138 180 
400 9 87 34 365 329 395 239 161 12 10 
401 7 369 66 352 62 89 307 333 
402 9 78 327 275 179 7 274 364 332 171 
403 9 223 143 86 123 192 296 195 104 30 
404 7 67 100 318 299 68 259 43 
405 7 231 294 27 314 162 335 307 
406 8 370 130 188 57 409 58 205 351 
407 9 119 50 411 175 253 254 99 160 300 
408 9 349 336 4 383 284 301 378 392 149 
409 4 351 58 205 406 
410 8 375 52 256 389 42 194 84 202 
411 9 175 407 50 119 254 118 160 99 305 
412 9 28 191 90 199 110 232 372 70 51 
413 8 301 383 142 284 224 172 378 4 
414 9 367 85 41 132 183 133 115 73 182 
415 9 98 126 183 47 115 266 81 132 133 
416 6 237 297 360 208 40 128 
417 7 83 269 368 187 29 260 201 
418 7 77 344 105 55 142 343 2 
419 8 356 153 23 193 82 177 151 214 
420 7 295 292 250 261 210 10 35 
421 9 320 11 94 54 362 164 357 363 53 
DEPOT_SECTION
   1
   -1
EOF
