NAME :  X-n766-kX-w153-c9.cctp
COMMENT : 	Adapted by Maziero, Usberti and Cavellucci from the Uchoa, Pecin, Pessoa, Poggi, Subramanian, and Vidal (2013)
TYPE :  CCTP
DIMENSION :    607
EDGE_WEIGHT_TYPE : 	EUC_2D	
CAPACITY : 	166
VERTICES_WITHIN_COVERAGE :  9
VERTICES_WITH_DEMAND : 	153
NODE_COORD_SECTION
1 0 0
2 409 418
3 378 220
4 469 585
5 91 695
6 455 648
7 86 403
8 493 292
9 124 630
10 43 202
11 961 668
12 538 143
13 114 523
14 273 287
15 884 865
16 551 791
17 609 232
18 69 625
19 191 484
20 562 650
21 858 506
22 688 951
23 174 158
24 175 404
25 314 484
26 210 517
27 574 158
28 76 499
29 136 195
30 47 593
31 87 897
32 526 650
33 683 60
34 437 962
35 863 428
36 866 335
37 16 391
38 948 422
39 1 945
40 13 299
41 404 889
42 974 290
43 59 281
44 966 52
45 815 145
46 238 897
47 546 414
48 297 370
49 421 143
50 292 86
51 420 958
52 661 796
53 98 757
54 15 722
55 599 669
56 287 134
57 925 251
58 115 179
59 449 945
60 487 960
61 683 779
62 628 855
63 290 322
64 145 109
65 356 887
66 416 654
67 899 981
68 228 187
69 634 10
70 673 503
71 999 237
72 280 64
73 407 977
74 417 841
75 773 52
76 922 376
77 270 503
78 998 123
79 353 527
80 352 21
81 19 697
82 590 322
83 326 401
84 851 668
85 156 557
86 700 423
87 232 556
88 272 248
89 383 472
90 659 930
91 62 513
92 551 459
93 108 723
94 127 359
95 765 936
96 199 264
97 942 980
98 595 746
99 736 127
100 808 393
101 194 803
102 879 138
103 329 531
104 544 840
105 384 143
106 622 102
107 350 231
108 656 364
109 730 846
110 800 218
111 556 454
112 967 994
113 654 141
114 213 582
115 158 64
116 381 518
117 281 153
118 991 305
119 322 68
120 378 996
121 941 397
122 89 16
123 666 113
124 518 249
125 665 277
126 796 357
127 759 988
128 938 366
129 688 589
130 224 487
131 626 118
132 852 200
133 948 17
134 816 580
135 243 75
136 55 873
137 585 640
138 841 326
139 41 67
140 418 268
141 445 424
142 897 432
143 404 444
144 391 537
145 574 728
146 411 117
147 167 197
148 502 596
149 724 799
150 137 619
151 121 457
152 857 627
153 847 277
154 658 690
155 508 997
156 638 579
157 601 692
158 884 98
159 610 664
160 845 965
161 554 127
162 817 205
163 612 861
164 142 905
165 735 77
166 990 120
167 63 415
168 97 810
169 664 488
170 148 748
171 876 902
172 30 706
173 434 176
174 734 742
175 390 613
176 879 972
177 957 393
178 351 361
179 614 200
180 840 412
181 162 699
182 166 217
183 640 833
184 309 407
185 468 408
186 663 357
187 560 636
188 29 716
189 885 881
190 819 918
191 818 716
192 657 620
193 767 710
194 28 821
195 639 287
196 973 213
197 37 615
198 669 338
199 273 325
200 716 872
201 517 434
202 0 537
203 843 863
204 929 542
205 705 899
206 207 798
207 911 610
208 339 859
209 612 102
210 316 810
211 365 275
212 760 848
213 393 15
214 313 107
215 104 662
216 860 699
217 517 239
218 982 715
219 27 603
220 71 270
221 301 17
222 376 970
223 618 71
224 451 280
225 322 295
226 21 95
227 552 836
228 756 914
229 911 695
230 456 521
231 216 642
232 266 379
233 23 325
234 157 140
235 689 733
236 420 309
237 187 599
238 160 281
239 942 581
240 736 235
241 283 191
242 243 947
243 701 533
244 688 457
245 882 105
246 880 403
247 727 763
248 570 595
249 623 916
250 841 842
251 950 982
252 752 33
253 853 91
254 224 467
255 252 39
256 184 424
257 117 489
258 956 1000
259 972 425
260 895 182
261 668 858
262 289 178
263 490 992
264 958 336
265 308 253
266 270 351
267 654 299
268 143 955
269 423 495
270 288 575
271 647 818
272 585 134
273 874 685
274 812 27
275 346 184
276 225 623
277 306 312
278 66 672
279 692 808
280 873 625
281 406 262
282 592 596
283 78 96
284 406 574
285 218 533
286 779 657
287 615 657
288 721 148
289 447 492
290 468 394
291 486 290
292 579 792
293 58 395
294 290 79
295 729 421
296 656 508
297 743 847
298 454 572
299 49 808
300 902 700
301 801 148
302 968 613
303 309 508
304 484 528
305 417 871
306 590 883
307 588 906
308 85 837
309 50 718
310 939 795
311 105 219
312 679 87
313 935 858
314 637 841
315 43 674
316 3 542
317 783 185
318 539 977
319 605 590
320 960 56
321 587 221
322 581 900
323 194 248
324 207 151
325 273 573
326 422 318
327 234 860
328 206 726
329 602 361
330 859 230
331 550 353
332 249 328
333 725 828
334 81 319
335 806 233
336 417 151
337 29 337
338 28 797
339 903 544
340 180 278
341 894 511
342 708 654
343 146 870
344 537 706
345 622 795
346 951 148
347 492 839
348 104 80
349 775 9
350 789 686
351 227 95
352 978 354
353 894 959
354 648 116
355 560 381
356 337 243
357 555 699
358 348 195
359 725 18
360 672 142
361 534 484
362 595 369
363 547 135
364 503 150
365 525 398
366 542 437
367 650 135
368 942 842
369 584 443
370 718 266
371 533 231
372 674 161
373 669 79
374 638 718
375 34 333
376 403 892
377 384 624
378 575 146
379 648 154
380 656 373
381 436 227
382 883 410
383 415 834
384 655 565
385 747 331
386 985 962
387 659 480
388 775 47
389 520 443
390 643 534
391 920 324
392 610 14
393 527 229
394 641 50
395 559 497
396 856 433
397 638 485
398 367 202
399 959 121
400 586 434
401 437 871
402 898 946
403 654 71
404 848 841
405 623 349
406 562 292
407 933 277
408 557 736
409 909 533
410 522 831
411 986 393
412 638 100
413 498 835
414 554 269
415 771 974
416 542 759
417 781 219
418 236 287
419 375 290
420 538 500
421 432 394
422 950 392
423 519 148
424 535 229
425 406 224
426 912 370
427 893 908
428 402 173
429 515 391
430 525 148
431 763 808
432 557 729
433 637 159
434 976 323
435 541 414
436 260 372
437 398 168
438 574 448
439 931 992
440 361 158
441 538 113
442 491 269
443 733 250
444 908 293
445 683 466
446 699 366
447 562 673
448 467 137
449 610 675
450 641 54
451 630 119
452 328 389
453 372 101
454 524 908
455 858 6
456 584 463
457 317 132
458 604 158
459 983 457
460 511 585
461 907 343
462 627 247
463 901 332
464 689 533
465 546 156
466 355 930
467 588 246
468 404 127
469 388 924
470 600 73
471 930 112
472 686 332
473 395 917
474 507 405
475 615 262
476 876 977
477 435 108
478 809 927
479 521 849
480 601 80
481 48 799
482 717 125
483 546 482
484 322 236
485 905 895
486 166 836
487 498 231
488 618 125
489 539 424
490 787 969
491 919 958
492 477 915
493 420 79
494 839 150
495 766 234
496 673 566
497 442 171
498 639 371
499 837 336
500 885 892
501 384 474
502 862 505
503 309 275
504 992 289
505 697 410
506 390 123
507 359 186
508 629 740
509 544 788
510 974 260
511 602 118
512 770 156
513 353 228
514 502 232
515 373 696
516 859 428
517 561 324
518 595 357
519 998 458
520 829 360
521 449 277
522 908 981
523 502 274
524 923 363
525 698 99
526 909 979
527 986 411
528 698 294
529 668 73
530 556 420
531 557 187
532 552 849
533 346 216
534 769 505
535 919 370
536 699 319
537 989 314
538 945 932
539 479 893
540 639 494
541 948 927
542 820 824
543 652 92
544 948 942
545 372 659
546 542 251
547 342 391
548 789 947
549 683 440
550 633 204
551 927 980
552 602 251
553 628 134
554 346 250
555 558 601
556 768 185
557 631 104
558 966 113
559 494 697
560 600 127
561 807 418
562 975 299
563 649 646
564 640 109
565 989 457
566 341 236
567 936 356
568 720 140
569 943 386
570 485 338
571 788 498
572 587 435
573 443 245
574 332 64
575 668 266
576 408 844
577 687 234
578 937 404
579 864 155
580 503 291
581 385 875
582 789 895
583 415 607
584 537 223
585 621 144
586 371 45
587 407 837
588 710 162
589 640 104
590 671 15
591 978 976
592 269 160
593 403 3
594 482 896
595 984 364
596 924 466
597 922 957
598 744 71
599 393 41
600 914 314
601 409 313
602 737 602
603 432 103
604 429 662
605 358 858
606 512 303
607 360 105
DEMAND_SECTION
2 85
3 89
4 71
5 68
6 52
7 76
8 57
9 73
10 89
11 100
12 61
13 92
14 99
15 56
16 91
17 71
18 69
19 79
20 93
21 61
22 94
23 63
24 89
25 88
26 100
27 96
28 92
29 75
30 69
31 72
32 86
33 77
34 68
35 81
36 100
37 95
38 68
39 71
40 79
41 55
42 73
43 82
44 67
45 91
46 96
47 62
48 76
49 53
50 78
51 53
52 61
53 100
54 70
55 57
56 99
57 61
58 55
59 66
60 57
61 70
62 73
63 84
64 80
65 84
66 94
67 53
68 99
69 61
70 96
71 80
72 67
73 87
74 91
75 58
76 84
77 96
78 96
79 97
80 68
81 100
82 60
83 90
84 81
85 60
86 91
87 97
88 55
89 64
90 75
91 65
92 67
93 51
94 60
95 56
96 62
97 85
98 73
99 68
100 81
101 80
102 100
103 64
104 84
105 78
106 54
107 9
108 6
109 4
110 3
111 5
112 7
113 5
114 6
115 10
116 4
117 1
118 4
119 9
120 5
121 2
122 5
123 1
124 7
125 7
126 10
127 1
128 9
129 9
130 5
131 8
132 2
133 3
134 8
135 8
136 9
137 9
138 5
139 1
140 1
141 5
142 2
143 1
144 5
145 7
146 10
147 10
148 6
149 9
150 3
151 2
152 3
153 2
154 2
COVERAGE_SECTION
2 7 143 421 141 89 185 501 290 
3 9 398 513 425 107 533 358 507 566 554 
4 8 298 148 460 583 304 284 6 230 
5 9 93 278 215 309 315 53 172 188 181 
6 8 604 66 583 559 4 148 32 175 
7 9 167 293 94 151 37 334 337 375 24 
8 6 291 580 523 606 442 224 
9 9 150 215 18 237 278 5 181 85 30 
10 9 311 220 58 43 29 40 226 283 334 
11 9 218 302 229 300 207 239 273 280 216 
12 9 363 430 465 423 161 441 364 378 27 
13 9 257 28 91 85 151 19 26 30 150 
14 9 418 199 503 63 88 277 332 265 225 
15 9 189 500 485 171 203 404 427 250 313 
16 7 509 292 416 227 104 410 408 
17 7 552 462 321 467 475 179 550 
18 9 197 30 219 278 215 9 315 150 5 
19 9 130 254 26 285 256 257 151 77 85 
20 9 187 447 137 32 55 357 555 159 287 
21 9 502 341 409 339 571 396 596 35 516 
22 9 90 205 249 228 95 127 200 415 261 
23 9 234 324 147 29 64 182 68 58 351 
24 9 256 94 151 254 19 7 436 232 130 
25 9 303 77 103 79 89 501 116 184 83 
26 9 285 130 19 87 254 77 114 85 325 
27 9 378 272 465 458 531 363 161 12 560 
28 9 91 257 13 151 167 202 316 7 30 
29 9 58 147 182 311 23 234 323 324 64 
30 9 219 197 18 316 202 91 278 315 9 
31 9 136 164 308 343 268 168 194 299 39 
32 9 20 187 447 344 357 559 148 555 137 
33 9 529 373 312 403 450 525 394 543 590 
34 9 51 59 73 60 263 222 469 473 492 
35 9 516 396 382 180 246 142 561 100 596 
36 9 138 499 463 461 520 600 391 426 444 
37 9 293 167 337 375 233 7 40 334 94 
38 9 578 259 121 177 422 569 527 411 459 
39 9 136 31 194 308 268 299 164 338 481 
40 9 233 375 337 43 220 334 37 10 293 
41 9 376 305 581 473 401 469 576 65 74 
42 9 562 504 118 537 510 434 407 264 71 
43 9 220 334 40 233 375 337 311 10 238 
44 9 320 133 558 399 471 166 78 158 346 
45 9 301 494 512 579 317 162 556 102 132 
46 9 327 242 486 164 343 101 206 208 268 
47 9 435 489 530 366 365 201 355 389 429 
48 9 232 266 452 436 184 83 63 547 199 
49 9 336 468 146 437 173 497 428 105 506 
50 9 294 72 214 119 574 56 135 457 255 
51 9 34 73 59 222 469 473 120 60 376 
52 9 271 61 279 345 183 314 261 149 508 
53 9 93 170 168 5 309 481 299 188 308 
54 9 188 172 81 309 315 278 338 5 481 
55 9 159 449 287 157 137 447 20 187 357 
56 9 117 457 592 214 262 50 294 241 72 
57 9 407 444 510 196 42 600 330 562 391 
58 9 29 311 147 234 23 182 10 64 283 
59 9 34 51 60 492 73 594 539 473 263 
60 9 263 59 155 492 34 318 454 594 51 
61 9 52 279 149 235 247 271 174 345 333 
62 9 163 314 183 261 271 306 345 249 307 
63 9 199 277 266 14 332 225 48 503 436 
64 9 234 115 348 23 283 324 58 351 29 
65 9 605 581 208 466 376 41 469 473 305 
66 7 604 6 377 545 583 175 515 
67 9 522 526 176 353 476 551 491 597 439 
68 9 324 592 241 23 147 262 117 182 323 
69 6 392 590 394 450 223 403 
70 9 169 296 387 464 540 445 397 243 390 
71 9 510 196 504 42 562 118 57 407 537 
72 9 294 50 255 135 119 221 574 214 351 
73 9 51 222 34 120 59 469 473 466 60 
74 8 383 576 587 305 401 581 41 376 
75 9 388 252 598 349 165 274 359 99 253 
76 9 535 426 524 128 569 567 121 422 578 
77 9 303 25 130 254 285 26 87 103 325 
78 9 166 558 399 346 471 320 44 196 71 
79 9 103 116 144 303 25 501 89 284 269 
80 7 586 213 599 574 221 593 119 
81 9 172 188 54 315 309 278 5 197 18 
82 7 517 518 329 406 405 362 331 
83 9 452 184 547 48 178 232 436 266 25 
84 9 273 216 152 280 191 300 350 229 286 
85 9 237 13 114 150 285 26 87 257 9 
86 7 505 549 295 244 445 446 380 
87 9 285 114 325 26 270 237 77 276 130 
88 9 265 14 503 484 418 241 356 225 566 
89 9 501 143 116 269 2 79 144 289 25 
90 9 22 249 205 261 307 62 200 163 306 
91 9 28 13 257 202 316 30 151 219 167 
92 9 111 366 483 438 361 456 389 369 489 
93 9 5 53 170 309 181 215 278 188 172 
94 9 7 334 24 293 167 238 256 340 375 
95 9 228 548 415 490 478 582 127 190 205 
96 9 323 340 238 418 182 147 88 14 332 
97 9 251 551 439 258 112 597 491 526 522 
98 9 145 508 408 432 292 374 157 416 345 
99 9 482 568 288 588 512 525 165 598 360 
100 9 561 180 126 520 396 516 499 35 246 
101 9 206 486 327 170 328 343 168 46 53 
102 9 579 245 158 494 260 253 471 45 132 
103 9 79 303 25 116 270 144 77 325 501 
104 8 227 532 410 479 413 16 347 509 
105 9 506 468 440 437 336 428 49 146 453 
106 9 557 209 131 412 589 451 564 488 511 
107 9 513 566 533 356 554 484 3 398 358 
108 8 380 186 498 198 405 446 472 329 
109 9 297 333 200 212 149 431 279 205 261 
110 9 335 417 162 317 495 556 132 330 240 
111 9 92 438 366 456 369 483 489 530 400 
112 9 258 251 591 97 439 386 551 544 597 
113 8 367 379 360 433 354 553 372 123 
114 9 237 87 276 285 231 325 85 26 270 
115 9 64 348 234 351 122 135 283 23 255 
116 9 144 79 501 89 269 103 284 289 303 
117 9 592 56 262 241 457 214 68 50 275 
118 9 537 504 562 42 434 264 510 352 595 
119 9 574 294 50 214 72 607 586 221 80 
120 9 222 73 51 34 466 469 473 59 376 
121 9 578 422 569 177 38 76 128 535 524 
122 9 348 139 283 115 226 64 234 351 23 
123 9 354 543 564 367 589 312 113 360 412 
124 8 217 393 371 514 546 424 487 523 
125 8 575 267 195 528 462 577 475 370 
126 9 520 100 499 138 385 561 180 36 295 
127 9 415 490 548 95 228 478 22 160 190 
128 9 567 524 76 535 569 426 422 121 177 
129 8 496 384 192 156 602 464 243 342 
130 9 254 19 26 285 77 87 256 303 25 
131 9 451 488 557 106 553 564 589 209 354 
132 9 330 162 260 579 494 110 335 45 102 
133 9 44 320 455 471 558 158 399 245 166 
134 9 152 280 602 21 286 571 502 534 339 
135 9 351 255 72 294 50 56 214 119 221 
136 9 31 308 194 299 481 168 338 39 343 
137 9 20 187 55 287 159 447 449 282 248 
138 9 499 36 520 153 126 463 461 600 100 
139 9 226 283 348 122 64 115 58 10 234 
140 8 281 521 573 224 236 381 425 601 
141 6 185 421 2 290 143 474 
142 9 382 35 246 516 396 596 578 38 121 
143 9 2 89 501 141 269 421 289 185 116 
144 9 116 79 284 269 103 501 89 230 289 
145 7 432 408 98 357 344 157 416 
146 9 468 506 603 477 49 336 105 493 453 
147 9 182 29 23 58 234 323 324 68 311 
148 7 460 4 298 555 32 248 6 
149 9 333 279 247 431 61 109 297 174 212 
150 9 9 215 237 85 18 231 181 114 276 
151 9 257 28 7 13 256 167 19 24 91 
152 9 280 84 207 273 134 216 286 300 229 
153 9 138 330 335 499 36 444 110 132 463 
154 9 374 563 449 235 287 159 157 508 342 
155 8 263 318 60 34 59 492 454 51 
156 7 384 319 496 192 390 282 129 
157 9 449 55 159 287 447 145 374 357 98 
158 9 245 253 102 471 579 494 399 45 558 
159 9 287 449 55 157 137 563 447 20 154 
160 8 476 176 353 478 190 67 402 490 
161 6 363 441 12 378 465 272 
162 9 110 335 132 317 417 330 556 301 494 
163 9 62 306 314 183 322 307 271 249 261 
164 9 343 268 31 486 308 136 46 327 168 
165 9 598 525 75 252 99 388 482 33 312 
166 9 78 558 399 346 471 320 44 196 158 
167 9 293 7 37 151 28 94 337 375 257 
168 9 308 299 481 53 194 338 486 136 343 
169 7 387 70 296 397 540 445 244 
170 9 93 53 181 328 101 206 5 168 486 
171 8 500 427 189 485 15 402 203 190 
172 9 188 81 54 309 315 278 5 93 53 
173 5 497 336 428 49 437 
174 9 247 193 235 149 61 431 279 350 333 
175 7 377 583 284 66 545 604 6 
176 9 476 353 67 522 526 402 160 491 597 
177 9 422 121 569 578 411 38 128 527 259 
178 8 547 452 83 48 184 277 63 225 
179 3 550 17 321 
180 9 516 396 35 561 100 246 382 520 142 
181 9 170 328 93 215 5 9 231 150 53 
182 9 147 29 323 96 23 311 340 58 238 
183 9 314 271 62 261 163 345 52 279 61 
184 9 83 452 547 48 232 436 178 266 25 
185 6 290 141 421 474 429 201 
186 9 108 380 198 498 472 446 405 536 267 
187 9 20 137 555 32 447 248 55 282 159 
188 9 172 54 81 309 315 278 5 93 53 
189 9 500 15 171 485 427 203 404 313 250 
190 7 478 582 548 160 95 171 203 
191 8 350 216 193 84 273 286 300 174 
192 8 563 129 156 384 287 496 319 342 
193 9 350 174 191 286 247 235 342 84 216 
194 9 338 299 481 136 308 168 53 31 54 
195 9 267 125 475 575 462 552 198 528 82 
196 9 71 510 57 346 407 42 504 260 562 
197 9 219 30 18 315 278 316 215 81 202 
198 9 472 186 108 536 380 446 267 498 405 
199 9 63 332 266 277 14 436 48 418 232 
200 9 205 109 297 333 212 261 228 279 149 
201 9 389 489 366 435 474 47 365 530 92 
202 9 316 91 219 30 28 197 18 13 257 
203 7 250 404 15 542 189 171 500 
204 8 409 339 239 341 207 596 502 21 
205 9 200 228 22 90 261 109 297 95 333 
206 7 101 486 327 328 170 343 46 
207 9 280 239 152 302 339 204 11 409 84 
208 8 605 65 581 210 576 587 41 376 
209 9 106 511 557 131 488 451 480 412 560 
210 3 208 605 65 
211 9 419 554 281 356 107 566 225 513 140 
212 7 297 109 333 431 200 582 149 
213 4 593 599 586 80 
214 9 457 50 294 56 119 574 607 72 117 
215 9 5 9 278 18 150 93 315 181 309 
216 9 273 84 300 191 229 152 350 280 286 
217 8 124 393 514 371 424 487 584 546 
218 8 11 229 300 310 302 273 216 207 
219 9 197 30 18 316 202 315 278 81 91 
220 9 43 334 311 40 233 375 10 337 238 
221 9 72 80 255 119 574 294 50 586 135 
222 9 120 73 466 51 469 473 34 59 376 
223 6 470 480 450 106 394 209 
224 6 521 140 291 573 442 236 
225 9 277 503 63 265 211 14 554 419 356 
226 9 139 283 348 122 10 64 58 115 234 
227 9 104 532 410 479 16 509 292 413 306 
228 9 95 582 548 205 478 200 415 190 490 
229 9 300 273 216 11 84 218 280 207 152 
230 7 304 289 269 298 4 144 284 
231 7 276 237 114 181 150 328 87 
232 9 436 266 48 184 199 332 63 452 83 
233 9 337 375 40 43 334 37 220 293 167 
234 9 23 64 324 58 147 29 115 182 348 
235 9 61 174 247 154 374 508 52 149 279 
236 6 326 601 140 224 521 281 
237 9 114 276 85 231 150 87 9 285 26 
238 9 340 96 323 182 418 311 147 94 334 
239 8 204 302 207 339 409 280 341 11 
240 7 443 495 370 417 577 556 110 
241 9 262 592 117 68 56 88 484 275 358 
242 9 46 327 268 164 466 343 65 208 222 
243 9 464 70 496 296 384 129 169 390 387 
244 8 445 549 86 387 169 70 505 295 
245 9 158 253 102 471 579 494 45 260 399 
246 9 382 35 516 142 396 180 426 76 535 
247 9 174 149 61 235 279 431 333 193 52 
248 7 555 282 319 187 137 20 460 
249 8 307 90 322 306 163 62 261 22 
250 6 404 203 542 15 189 500 
251 9 97 258 112 439 551 591 597 491 386 
252 9 388 75 359 349 598 165 274 33 590 
253 9 158 245 102 494 579 45 274 301 471 
254 9 130 19 26 77 256 285 24 87 25 
255 9 135 72 221 294 351 50 119 574 214 
256 9 24 254 19 151 130 94 436 257 232 
257 9 151 13 28 91 19 85 7 167 256 
258 9 112 251 97 439 591 551 386 526 522 
259 9 527 38 459 177 411 565 422 578 121 
260 9 579 102 132 330 494 346 57 245 471 
261 9 314 183 62 271 200 205 279 163 52 
262 9 241 117 592 56 457 275 358 68 484 
263 9 155 60 318 34 59 51 492 73 454 
264 8 434 352 567 128 537 595 391 562 
265 9 484 503 356 88 566 554 225 107 14 
266 9 436 199 232 332 48 63 277 14 184 
267 9 195 125 575 198 528 472 536 475 186 
268 9 164 31 343 242 46 136 486 308 327 
269 9 289 230 501 89 116 144 143 304 141 
270 5 325 87 103 303 77 
271 9 183 314 52 345 62 261 279 61 163 
272 7 378 560 511 27 458 161 488 
273 9 216 84 300 229 152 280 191 207 350 
274 9 349 388 75 455 252 253 598 359 165 
275 9 358 507 398 440 533 513 107 3 566 
276 7 231 114 237 87 325 270 150 
277 9 63 225 199 503 14 266 48 265 332 
278 9 315 5 215 18 309 172 81 188 197 
279 9 61 52 149 333 271 109 261 247 183 
280 9 152 207 84 273 134 216 229 300 239 
281 8 140 425 573 419 211 381 521 224 
282 6 319 248 555 137 156 187 
283 9 348 139 226 64 122 115 234 58 10 
284 9 583 144 175 298 377 116 4 79 230 
285 9 26 87 130 114 19 77 85 254 325 
286 9 350 193 602 191 342 84 152 134 216 
287 9 159 449 55 137 563 157 20 154 447 
288 8 568 588 482 99 360 372 512 525 
289 8 269 230 304 143 501 89 141 116 
290 6 185 421 141 474 429 365 
291 7 8 580 442 523 606 224 521 
292 8 16 509 345 98 416 227 104 408 
293 9 167 7 37 337 375 94 233 334 151 
294 9 50 72 119 214 574 135 56 255 457 
295 8 86 505 549 244 446 445 561 100 
296 8 70 169 540 387 390 397 464 445 
297 9 109 212 333 200 431 149 205 279 582 
298 8 4 284 230 583 304 148 460 144 
299 9 481 338 194 308 168 136 53 309 54 
300 9 229 273 216 84 11 280 218 152 191 
301 9 45 512 494 317 556 162 579 99 110 
302 8 239 11 207 204 339 280 409 229 
303 9 25 103 77 79 270 116 325 89 501 
304 5 230 289 298 4 420 
305 9 401 41 376 576 74 581 587 383 473 
306 8 322 307 163 62 249 532 227 104 
307 8 322 306 249 163 454 62 532 90 
308 9 168 299 136 481 194 31 343 338 53 
309 9 188 172 54 81 315 5 278 93 53 
310 5 368 313 15 218 189 
311 9 29 58 182 220 10 147 43 238 23 
312 9 373 529 525 33 543 123 403 354 412 
313 4 368 485 15 189 
314 9 183 62 271 163 261 345 52 306 279 
315 9 278 81 172 188 309 5 18 54 197 
316 9 202 91 219 30 197 28 18 13 257 
317 9 556 512 417 110 162 301 45 495 335 
318 8 155 263 60 454 307 322 492 59 
319 7 282 156 248 555 137 384 192 
320 9 44 133 558 471 399 166 78 158 245 
321 6 17 467 179 552 531 462 
322 8 307 306 249 163 454 532 62 104 
323 9 96 340 182 238 418 147 68 88 29 
324 9 23 68 234 351 147 592 117 64 182 
325 7 270 87 114 285 276 77 103 
326 5 236 601 224 521 140 
327 9 46 206 101 486 242 343 210 164 208 
328 6 181 170 206 101 231 93 
329 7 518 362 405 498 82 355 331 
330 9 132 153 162 335 110 260 57 579 417 
331 7 355 517 518 362 82 365 429 
332 9 199 266 63 418 436 14 232 277 48 
333 9 109 297 149 279 212 431 200 261 61 
334 9 43 375 220 337 233 94 40 293 7 
335 9 110 417 162 495 317 330 132 153 556 
336 9 49 437 428 468 173 497 105 146 506 
337 9 375 233 40 334 37 43 293 220 167 
338 9 481 194 299 168 308 54 53 136 188 
339 9 409 204 341 239 502 21 207 596 280 
340 9 238 96 323 418 182 147 332 14 29 
341 9 409 502 339 21 204 596 142 239 396 
342 9 563 602 192 154 129 286 193 235 350 
343 9 164 486 31 308 168 101 268 327 136 
344 6 357 432 408 447 145 559 
345 9 271 52 183 292 314 508 98 62 61 
346 9 399 558 471 166 78 260 196 102 245 
347 4 413 410 479 104 
348 9 283 64 115 139 122 234 226 58 23 
349 9 252 388 274 75 359 598 165 455 590 
350 9 286 193 191 84 216 174 273 342 152 
351 9 135 324 72 255 294 50 56 115 592 
352 8 595 264 434 411 537 128 567 177 
353 9 402 176 67 476 491 526 522 597 551 
354 9 564 589 123 451 367 412 557 131 543 
355 6 331 47 362 435 365 530 
356 9 566 554 484 107 513 533 265 211 503 
357 7 344 447 432 145 408 157 20 
358 9 275 507 398 533 513 107 3 440 566 
359 9 252 349 590 598 388 33 75 165 529 
360 8 113 372 367 379 123 354 433 588 
361 7 483 420 395 92 111 389 366 
362 6 329 518 405 355 498 82 
363 8 161 12 465 441 430 378 423 27 
364 5 423 430 12 448 465 
365 9 429 474 435 47 489 201 530 355 366 
366 9 489 111 530 47 389 435 92 201 438 
367 9 113 354 379 553 360 451 123 433 564 
368 4 313 310 15 485 
369 7 400 572 438 456 111 530 92 
370 8 443 528 240 577 575 125 536 495 
371 6 424 393 584 217 546 124 
372 6 360 379 113 367 588 433 
373 9 529 312 403 543 33 123 525 412 450 
374 9 508 154 157 98 449 235 159 55 145 
375 9 337 233 40 334 43 37 293 220 7 
376 9 41 305 581 473 469 401 65 576 74 
377 7 175 583 545 66 284 604 515 
378 8 27 272 161 363 458 465 560 12 
379 6 433 113 367 360 372 553 
380 8 108 186 498 198 405 446 472 329 
381 3 573 425 140 
382 9 246 142 35 516 396 180 426 76 535 
383 7 74 587 576 305 401 581 41 
384 7 496 156 390 129 464 192 243 
385 9 536 126 446 472 528 370 198 443 100 
386 8 591 112 251 544 97 258 538 541 
387 7 169 397 540 70 296 445 244 
388 9 75 252 349 598 274 165 359 99 253 
389 9 201 366 489 92 435 111 47 474 361 
390 7 296 384 540 70 496 156 464 
391 9 600 463 461 444 567 524 264 128 535 
392 4 69 394 450 223 
393 7 371 424 584 217 124 514 546 
394 7 450 403 223 529 373 69 33 
395 5 483 420 361 92 456 
396 9 516 35 180 382 246 142 561 100 502 
397 5 540 387 169 296 70 
398 9 507 358 3 533 275 513 107 566 440 
399 9 558 346 471 166 78 320 44 158 245 
400 6 572 369 438 456 530 111 
401 9 305 74 41 376 576 383 587 539 594 
402 9 353 491 597 176 67 526 522 427 476 
403 8 529 373 450 543 394 312 33 412 
404 6 250 203 542 15 189 500 
405 9 329 498 518 362 108 186 380 82 198 
406 6 414 517 82 546 606 467 
407 9 57 444 600 42 510 562 391 504 434 
408 6 432 145 416 344 357 98 
409 8 339 204 341 502 21 239 596 207 
410 6 479 104 413 227 347 532 
411 8 527 177 595 259 422 352 569 121 
412 9 589 557 564 106 543 354 451 131 209 
413 4 347 410 479 104 
414 6 546 406 124 467 371 424 
415 9 490 127 548 95 478 228 190 160 582 
416 4 408 509 16 432 
417 9 110 495 335 317 556 162 240 443 512 
418 9 14 332 96 88 199 323 340 63 266 
419 9 211 601 281 140 236 554 225 326 356 
420 5 361 483 395 92 111 
421 5 2 141 290 185 143 
422 9 177 569 121 578 128 38 76 411 535 
423 7 430 364 12 465 363 441 161 
424 6 371 584 393 217 546 124 
425 8 3 381 281 573 398 140 428 513 
426 9 535 76 524 128 461 567 569 121 463 
427 8 171 485 500 189 402 15 353 491 
428 9 437 336 173 105 49 497 440 398 507 
429 7 365 474 435 47 489 201 355 
430 7 423 12 364 465 363 161 441 
431 8 149 212 333 297 109 247 542 279 
432 6 408 145 344 357 416 98 
433 4 379 585 113 367 
434 8 537 264 118 562 352 42 504 595 
435 9 47 489 530 365 366 201 429 474 389 
436 9 232 266 48 332 199 63 184 452 83 
437 9 428 336 105 49 173 440 468 507 497 
438 8 369 400 456 572 111 92 530 366 
439 9 551 97 251 522 258 526 67 112 491 
440 9 105 507 275 437 358 398 428 506 457 
441 4 161 363 12 430 
442 5 523 291 8 580 124 
443 8 240 370 495 577 528 417 575 125 
444 9 600 407 391 463 57 461 36 153 42 
445 8 244 549 387 169 70 86 397 296 
446 9 472 186 198 108 380 505 536 86 385 
447 9 20 357 55 187 137 344 32 157 449 
448 4 364 497 477 49 
449 9 159 55 157 287 137 447 563 154 374 
450 7 394 403 223 529 373 543 33 
451 9 131 488 564 553 557 354 589 106 412 
452 9 83 547 184 48 178 232 266 436 63 
453 8 607 506 468 146 105 493 574 586 
454 7 594 539 492 322 479 60 307 
455 9 274 349 253 133 388 158 75 245 252 
456 6 438 369 572 111 400 92 
457 9 214 56 117 440 607 50 262 592 294 
458 6 585 27 272 378 560 433 
459 9 565 519 259 527 38 596 411 177 578 
460 6 148 4 555 298 248 304 
461 9 463 391 524 426 535 600 567 76 128 
462 9 475 17 552 467 195 550 575 125 321 
463 9 461 391 600 36 524 426 444 535 567 
464 9 243 70 496 296 390 384 169 129 387 
465 8 12 363 430 27 423 161 378 531 
466 9 469 473 65 222 376 581 41 73 120 
467 7 552 17 321 475 462 414 546 
468 9 146 506 49 105 336 477 603 437 453 
469 9 473 466 376 41 51 222 65 581 73 
470 4 480 223 209 106 
471 9 399 558 346 158 245 102 166 320 78 
472 9 198 536 186 446 528 108 267 380 125 
473 9 469 376 41 466 581 51 65 305 222 
474 8 429 365 201 435 489 185 47 389 
475 8 552 462 17 467 195 321 125 575 
476 9 176 67 353 522 160 526 402 491 597 
477 6 603 146 493 468 49 448 
478 7 190 548 582 95 490 160 228 
479 6 410 104 413 347 532 227 
480 4 470 223 209 106 
481 9 299 338 194 168 308 53 136 309 54 
482 9 568 99 288 525 588 360 165 123 312 
483 7 361 395 420 92 111 456 438 
484 9 356 566 265 107 554 533 513 503 358 
485 8 427 500 189 171 15 313 402 538 
486 9 343 101 206 327 164 168 308 170 46 
487 3 514 217 124 
488 9 131 451 553 511 560 585 106 209 557 
489 9 435 47 366 530 201 389 365 111 92 
490 8 415 548 127 95 478 160 190 228 
491 9 597 526 551 402 353 522 67 97 544 
492 8 594 539 59 60 454 401 34 51 
493 3 603 477 146 
494 9 45 579 301 102 132 162 253 245 260 
495 9 417 240 443 110 335 556 317 370 162 
496 8 384 129 156 464 243 390 192 296 
497 5 173 336 49 428 448 
498 8 380 108 405 186 329 362 198 518 
499 9 138 520 36 126 153 100 463 461 180 
500 8 189 171 427 485 15 203 402 313 
501 9 89 143 116 269 2 79 144 289 25 
502 9 21 341 409 339 396 596 571 35 204 
503 9 265 225 277 14 484 356 554 88 566 
504 9 118 42 562 537 510 434 71 264 407 
505 9 86 549 295 446 244 380 445 108 186 
506 9 468 105 146 453 607 49 336 440 437 
507 9 275 358 398 440 533 3 513 437 428 
508 9 374 98 345 145 157 154 235 52 61 
509 6 16 416 292 410 227 104 
510 9 42 71 504 562 407 196 118 57 537 
511 8 560 488 209 272 131 106 451 553 
512 9 556 301 317 99 45 288 568 588 482 
513 9 107 533 566 356 554 3 398 484 358 
514 4 487 217 124 393 
515 3 545 66 604 
516 9 35 396 180 382 246 142 561 100 520 
517 5 82 331 406 518 606 
518 7 329 362 405 82 355 331 498 
519 8 565 459 259 527 38 411 596 177 
520 9 499 126 138 100 36 180 561 246 382 
521 6 224 140 573 291 236 442 
522 9 526 67 551 439 491 353 597 176 476 
523 7 442 580 8 291 124 606 217 
524 9 535 76 426 128 567 461 569 121 463 
525 9 312 482 123 373 529 33 165 99 543 
526 9 522 67 551 491 353 439 597 176 97 
527 8 411 259 177 38 422 459 565 121 
528 9 536 370 125 472 575 267 198 443 195 
529 9 373 403 312 33 543 450 394 123 412 
530 9 47 435 489 366 400 438 111 572 369 
531 5 465 27 584 321 378 
532 8 104 227 479 410 306 413 16 322 
533 9 513 107 358 566 398 356 484 3 275 
534 9 571 243 464 21 134 295 502 244 445 
535 9 76 426 524 128 567 569 461 121 422 
536 9 472 528 198 446 267 385 186 125 370 
537 8 118 434 562 504 42 264 352 595 
538 7 541 544 597 491 97 402 251 
539 8 594 492 401 454 347 59 413 479 
540 5 397 296 387 169 70 
541 7 538 544 597 491 386 97 402 
542 6 250 404 203 431 212 15 
543 9 412 589 373 403 564 354 557 123 529 
544 7 538 541 597 491 97 251 386 
545 6 377 515 66 175 604 583 
546 7 371 414 424 124 393 217 584 
547 8 452 83 178 184 48 2 232 143 
548 8 490 95 478 415 190 228 127 582 
549 7 244 86 445 505 387 295 169 
550 2 179 17 
551 9 439 97 526 522 251 491 597 67 258 
552 7 467 475 17 462 321 414 179 
553 7 585 488 451 131 367 113 354 
554 9 356 566 107 513 484 211 533 265 3 
555 8 248 282 187 137 319 20 460 148 
556 9 317 512 417 110 495 301 162 240 288 
557 9 412 106 589 564 131 451 209 354 543 
558 9 399 166 78 471 346 320 44 158 245 
559 2 344 32 
560 7 511 272 488 585 131 209 553 
561 9 100 180 396 516 35 126 520 246 382 
562 9 42 118 504 537 434 510 264 407 352 
563 9 192 287 159 154 449 55 342 137 157 
564 9 589 412 557 354 451 131 106 543 123 
565 8 459 519 259 527 38 411 596 177 
566 9 356 107 513 554 484 533 265 3 358 
567 9 128 524 535 76 426 264 569 461 391 
568 9 288 482 99 588 525 360 372 512 123 
569 9 422 121 177 578 128 76 535 524 567 
570 4 606 8 291 580 
571 9 534 21 502 561 134 243 396 295 180 
572 6 400 369 438 456 530 111 
573 4 381 521 140 224 
574 9 119 586 294 50 80 214 607 72 453 
575 8 125 195 267 577 528 462 370 475 
576 9 587 74 383 305 581 401 41 376 605 
577 5 575 370 125 240 443 
578 9 121 422 569 38 177 76 128 535 259 
579 9 102 494 260 132 45 245 158 301 253 
580 6 8 606 291 523 442 124 
581 9 41 376 65 305 605 576 473 587 74 
582 6 190 228 478 95 548 212 
583 9 175 284 377 66 298 6 604 4 545 
584 6 424 371 393 217 546 124 
585 6 553 488 433 458 131 451 
586 6 599 80 213 574 593 119 
587 8 576 383 74 305 581 401 41 605 
588 7 288 568 372 482 360 99 113 
589 9 412 564 557 354 543 106 451 131 123 
590 9 69 394 33 450 359 529 403 392 373 
591 9 386 112 251 258 97 544 439 551 538 
592 9 117 262 56 241 68 457 324 214 50 
593 4 213 599 586 80 
594 8 539 492 454 401 347 59 479 413 
595 8 352 411 264 177 434 422 128 527 
596 9 142 38 341 459 259 578 565 382 409 
597 9 491 551 402 526 353 522 97 544 67 
598 9 165 75 252 388 525 359 99 482 33 
599 5 586 213 593 80 493 
600 9 391 444 463 461 407 567 264 524 36 
601 7 236 326 419 140 281 224 521 
602 9 129 342 286 496 243 134 192 464 384 
603 5 477 146 493 468 49 
604 6 66 6 545 583 377 175 
605 9 208 65 581 576 587 41 376 305 74 
606 7 580 8 291 523 442 570 406 
607 9 453 506 105 214 468 574 457 146 119 
DEPOT_SECTION
   1
   -1
EOF
