NAME :  X-n733-kX-w292-c9.cctp
COMMENT : 	Adapted by Maziero, Usberti and Cavellucci from the Uchoa, Pecin, Pessoa, Poggi, Subramanian, and Vidal (2013)
TYPE :  CCTP
DIMENSION :    724
EDGE_WEIGHT_TYPE : 	EUC_2D	
CAPACITY : 	25
VERTICES_WITHIN_COVERAGE :  9
VERTICES_WITH_DEMAND : 	292
NODE_COORD_SECTION
1 500 500
2 143 12
3 206 907
4 895 855
5 640 970
6 865 716
7 993 356
8 618 966
9 963 539
10 50 979
11 241 998
12 32 206
13 288 926
14 299 507
15 336 180
16 589 726
17 665 488
18 36 521
19 112 895
20 814 442
21 843 474
22 17 258
23 360 273
24 814 537
25 775 524
26 825 471
27 321 87
28 773 958
29 119 166
30 368 928
31 193 250
32 452 919
33 736 322
34 386 911
35 624 313
36 694 398
37 186 803
38 948 721
39 216 973
40 915 641
41 238 810
42 946 172
43 23 561
44 613 657
45 359 434
46 604 96
47 56 554
48 862 723
49 222 161
50 974 838
51 775 67
52 815 880
53 204 362
54 435 760
55 593 358
56 203 435
57 882 803
58 194 739
59 380 323
60 836 461
61 537 136
62 789 669
63 956 1000
64 98 295
65 656 410
66 580 959
67 594 64
68 459 43
69 425 559
70 262 31
71 522 339
72 960 74
73 237 910
74 353 828
75 420 281
76 721 524
77 185 679
78 703 303
79 923 491
80 444 792
81 567 476
82 987 930
83 113 210
84 907 45
85 383 799
86 209 192
87 34 820
88 464 717
89 837 536
90 202 94
91 177 341
92 551 3
93 835 467
94 128 655
95 988 937
96 179 369
97 487 765
98 975 406
99 365 411
100 440 41
101 607 487
102 57 898
103 161 707
104 0 517
105 210 88
106 524 195
107 682 409
108 608 55
109 16 909
110 846 379
111 183 242
112 586 182
113 948 682
114 324 44
115 380 573
116 339 188
117 629 32
118 589 805
119 934 907
120 848 633
121 890 973
122 98 787
123 964 391
124 171 837
125 261 409
126 637 133
127 541 313
128 946 388
129 479 636
130 818 503
131 188 602
132 887 643
133 981 839
134 585 570
135 383 325
136 288 219
137 407 596
138 707 525
139 56 193
140 523 502
141 102 374
142 282 573
143 90 56
144 538 143
145 614 30
146 237 435
147 823 405
148 363 560
149 192 314
150 826 849
151 541 870
152 604 432
153 292 364
154 131 65
155 990 723
156 944 209
157 68 210
158 564 354
159 865 378
160 646 604
161 883 273
162 362 499
163 313 888
164 49 95
165 797 864
166 93 297
167 439 445
168 74 429
169 76 683
170 152 66
171 796 886
172 716 113
173 693 324
174 263 134
175 893 184
176 549 927
177 817 770
178 976 350
179 692 957
180 227 408
181 323 894
182 169 573
183 106 959
184 982 365
185 292 960
186 552 181
187 505 588
188 119 372
189 506 122
190 160 569
191 208 381
192 530 266
193 947 928
194 857 644
195 990 518
196 178 652
197 305 811
198 834 331
199 577 316
200 607 398
201 471 599
202 111 69
203 149 735
204 437 140
205 38 10
206 37 315
207 841 876
208 870 781
209 806 151
210 789 38
211 238 478
212 182 984
213 272 20
214 869 228
215 880 423
216 231 683
217 142 8
218 611 385
219 760 234
220 950 575
221 823 394
222 676 27
223 823 573
224 850 625
225 923 848
226 552 189
227 468 743
228 522 560
229 756 931
230 55 920
231 47 187
232 136 376
233 838 595
234 833 785
235 367 992
236 938 833
237 389 681
238 856 363
239 184 380
240 751 956
241 831 424
242 927 752
243 711 219
244 479 537
245 288 947
246 175 63
247 111 514
248 603 634
249 90 763
250 557 925
251 3 914
252 682 68
253 269 277
254 360 979
255 958 203
256 854 930
257 59 285
258 697 384
259 999 813
260 332 70
261 399 474
262 8 315
263 102 310
264 913 612
265 429 919
266 567 461
267 700 906
268 465 439
269 995 588
270 969 530
271 173 949
272 440 702
273 141 839
274 641 740
275 361 430
276 365 318
277 621 920
278 337 330
279 50 481
280 347 468
281 387 470
282 642 51
283 486 875
284 568 101
285 95 19
286 463 673
287 864 522
288 792 430
289 607 489
290 541 477
291 830 978
292 859 434
293 485 690
294 944 765
295 990 934
296 186 358
297 494 823
298 563 350
299 396 727
300 272 211
301 104 980
302 625 64
303 58 830
304 190 270
305 989 645
306 179 252
307 437 360
308 93 576
309 521 190
310 607 277
311 949 574
312 713 437
313 282 382
314 113 15
315 459 368
316 858 925
317 552 873
318 235 360
319 790 779
320 916 377
321 817 710
322 213 486
323 350 900
324 262 829
325 109 521
326 960 308
327 207 862
328 282 555
329 72 702
330 707 705
331 970 106
332 75 217
333 88 275
334 249 910
335 622 92
336 794 539
337 190 261
338 912 562
339 239 9
340 232 154
341 53 42
342 951 789
343 26 748
344 222 65
345 170 643
346 801 788
347 889 86
348 927 290
349 986 224
350 473 21
351 937 197
352 332 363
353 399 590
354 58 719
355 983 139
356 757 833
357 262 684
358 225 375
359 44 366
360 344 764
361 882 90
362 720 250
363 840 219
364 570 238
365 514 534
366 868 870
367 291 431
368 733 850
369 871 381
370 71 526
371 24 626
372 464 212
373 617 137
374 311 775
375 869 818
376 219 453
377 871 952
378 647 941
379 354 911
380 787 715
381 703 108
382 715 611
383 217 201
384 778 655
385 636 539
386 231 139
387 896 875
388 135 951
389 149 310
390 490 146
391 30 507
392 629 789
393 170 132
394 862 16
395 965 567
396 358 377
397 585 856
398 296 401
399 247 913
400 247 435
401 728 971
402 821 717
403 127 290
404 552 702
405 889 108
406 43 645
407 59 842
408 354 427
409 811 541
410 646 634
411 200 595
412 65 882
413 190 682
414 892 397
415 911 972
416 924 847
417 175 582
418 120 413
419 251 281
420 496 123
421 868 438
422 252 427
423 489 227
424 176 25
425 824 82
426 281 949
427 594 400
428 690 884
429 551 492
430 784 755
431 587 545
432 10 280
433 412 385
434 798 253
435 747 872
436 118 205
437 397 649
438 878 239
439 240 664
440 48 117
441 677 390
442 13 41
443 698 192
444 253 630
445 19 187
446 266 971
447 976 790
448 298 612
449 87 602
450 670 316
451 761 466
452 672 776
453 237 724
454 91 189
455 229 296
456 980 970
457 817 9
458 663 691
459 581 178
460 16 299
461 1 430
462 972 560
463 93 782
464 298 972
465 556 678
466 624 36
467 488 752
468 37 137
469 409 568
470 104 641
471 32 545
472 881 445
473 477 892
474 48 558
475 528 812
476 316 928
477 158 954
478 46 518
479 288 114
480 160 636
481 806 196
482 267 514
483 829 404
484 59 134
485 223 704
486 956 308
487 368 523
488 987 3
489 170 703
490 938 925
491 330 705
492 742 338
493 116 155
494 456 252
495 451 777
496 973 57
497 225 138
498 85 372
499 567 505
500 64 454
501 518 310
502 917 341
503 776 30
504 529 433
505 955 382
506 62 317
507 102 781
508 584 849
509 471 40
510 966 476
511 524 326
512 20 822
513 209 361
514 896 507
515 470 876
516 711 235
517 13 312
518 450 114
519 324 779
520 104 241
521 931 251
522 57 522
523 923 27
524 712 427
525 470 964
526 54 752
527 693 963
528 311 479
529 271 194
530 964 724
531 176 808
532 384 936
533 371 981
534 846 857
535 945 504
536 791 719
537 509 607
538 348 704
539 837 32
540 95 639
541 751 372
542 75 958
543 270 637
544 62 898
545 994 91
546 80 955
547 744 327
548 162 587
549 458 595
550 372 168
551 330 379
552 66 190
553 197 229
554 413 716
555 184 835
556 151 81
557 591 356
558 616 852
559 35 1
560 996 23
561 845 854
562 850 475
563 693 951
564 880 672
565 495 614
566 936 622
567 544 21
568 289 72
569 906 45
570 146 971
571 54 319
572 412 160
573 769 573
574 709 340
575 268 211
576 640 263
577 604 137
578 305 190
579 305 835
580 66 597
581 260 693
582 566 121
583 867 589
584 990 771
585 413 711
586 580 374
587 729 641
588 409 283
589 67 679
590 386 329
591 249 424
592 528 22
593 55 599
594 476 8
595 862 134
596 255 769
597 537 489
598 296 575
599 578 236
600 699 693
601 503 884
602 746 832
603 489 958
604 672 855
605 267 330
606 677 724
607 262 795
608 191 708
609 978 896
610 394 834
611 645 6
612 976 593
613 106 659
614 156 888
615 962 119
616 948 243
617 955 217
618 674 251
619 615 425
620 733 282
621 151 182
622 613 431
623 586 480
624 160 725
625 154 682
626 90 574
627 935 608
628 760 475
629 749 859
630 177 967
631 297 396
632 269 829
633 550 370
634 397 539
635 389 199
636 123 973
637 498 893
638 226 358
639 504 637
640 966 481
641 364 615
642 597 134
643 12 93
644 139 824
645 246 744
646 391 718
647 867 221
648 192 857
649 70 999
650 945 599
651 91 436
652 375 330
653 90 117
654 549 410
655 295 420
656 140 382
657 390 352
658 945 422
659 160 621
660 645 42
661 379 971
662 829 47
663 951 753
664 250 732
665 350 340
666 4 293
667 17 762
668 710 511
669 610 493
670 242 988
671 214 834
672 13 547
673 164 342
674 659 346
675 809 539
676 930 196
677 522 862
678 831 144
679 974 862
680 11 303
681 643 667
682 409 926
683 584 675
684 137 732
685 442 514
686 626 494
687 719 243
688 14 859
689 288 802
690 790 425
691 160 720
692 679 76
693 501 66
694 789 555
695 893 652
696 995 293
697 855 486
698 586 489
699 604 475
700 153 435
701 76 380
702 728 97
703 186 15
704 175 942
705 346 707
706 834 13
707 232 991
708 408 267
709 798 568
710 104 139
711 540 509
712 27 383
713 16 704
714 818 141
715 611 568
716 540 277
717 544 996
718 829 952
719 146 558
720 276 452
721 370 965
722 72 268
723 555 758
724 898 424
DEMAND_SECTION
2 5
3 3
4 1
5 1
6 5
7 9
8 9
9 3
10 2
11 3
12 4
13 1
14 2
15 4
16 1
17 10
18 9
19 3
20 3
21 3
22 2
23 3
24 1
25 1
26 4
27 5
28 8
29 4
30 7
31 5
32 10
33 3
34 5
35 1
36 10
37 5
38 2
39 1
40 4
41 5
42 4
43 10
44 6
45 4
46 8
47 3
48 6
49 1
50 2
51 2
52 2
53 1
54 7
55 6
56 5
57 4
58 5
59 2
60 3
61 5
62 1
63 5
64 3
65 3
66 10
67 10
68 1
69 5
70 2
71 6
72 3
73 9
74 6
75 9
76 7
77 2
78 9
79 7
80 8
81 3
82 3
83 5
84 10
85 6
86 4
87 9
88 1
89 2
90 6
91 10
92 8
93 6
94 4
95 1
96 8
97 3
98 8
99 7
100 6
101 4
102 1
103 8
104 3
105 9
106 8
107 7
108 10
109 8
110 2
111 10
112 5
113 2
114 4
115 1
116 9
117 1
118 6
119 6
120 8
121 9
122 8
123 7
124 6
125 1
126 10
127 10
128 1
129 9
130 2
131 3
132 10
133 2
134 3
135 1
136 3
137 3
138 2
139 5
140 7
141 2
142 1
143 7
144 4
145 6
146 5
147 1
148 2
149 5
150 10
151 1
152 3
153 4
154 1
155 3
156 1
157 1
158 6
159 3
160 2
161 7
162 10
163 6
164 3
165 1
166 5
167 8
168 1
169 8
170 8
171 2
172 1
173 7
174 1
175 1
176 4
177 10
178 6
179 2
180 2
181 2
182 1
183 8
184 4
185 3
186 6
187 7
188 4
189 6
190 6
191 6
192 6
193 5
194 4
195 6
196 10
197 3
198 1
199 5
200 3
201 10
202 4
203 6
204 6
205 4
206 9
207 6
208 3
209 2
210 8
211 5
212 2
213 2
214 4
215 1
216 10
217 2
218 3
219 8
220 9
221 9
222 5
223 2
224 3
225 8
226 4
227 1
228 3
229 9
230 7
231 6
232 9
233 5
234 3
235 6
236 4
237 3
238 9
239 7
240 8
241 8
242 1
243 7
244 4
245 7
246 4
247 4
248 8
249 7
250 1
251 5
252 8
253 1
254 10
255 6
256 10
257 3
258 10
259 10
260 5
261 1
262 8
263 3
264 5
265 10
266 5
267 2
268 8
269 8
270 7
271 7
272 6
273 4
274 5
275 9
276 2
277 8
278 7
279 2
280 5
281 6
282 3
283 7
284 4
285 4
286 5
287 1
288 5
289 7
290 2
291 4
292 9
293 10
COVERAGE_SECTION
2 9 217 314 424 703 285 154 170 246 202 
3 9 73 399 334 327 704 648 271 614 39 
4 9 387 225 416 366 375 236 534 561 57 
5 9 8 378 277 527 179 563 66 267 401 
6 9 48 402 564 321 208 695 177 194 242 
7 9 184 178 123 505 98 128 326 486 696 
8 9 5 378 66 277 250 179 527 563 176 
9 9 270 462 395 195 220 311 535 338 612 
10 9 649 542 546 301 183 230 636 109 251 
11 9 670 707 39 446 212 426 464 185 245 
12 9 445 231 139 157 552 332 22 454 468 
13 9 245 426 476 185 334 399 163 181 464 
14 9 528 482 328 720 280 162 142 211 598 
15 9 116 578 550 635 136 529 300 575 572 
16 9 404 723 683 274 465 44 392 118 681 
17 9 686 668 669 138 101 289 385 699 76 
18 9 478 391 522 471 370 672 104 47 474 
19 9 614 412 544 102 388 230 273 183 546 
20 9 241 288 60 690 26 93 147 483 21 
21 9 562 93 60 697 26 130 20 292 421 
22 9 432 666 460 680 257 12 517 722 262 
23 9 276 708 588 59 135 652 75 278 590 
24 9 409 675 336 89 694 130 709 223 25 
25 9 336 694 675 409 24 130 573 709 628 
26 9 93 60 21 562 20 130 697 241 292 
27 9 260 568 114 479 174 70 213 15 550 
28 9 240 229 401 718 291 171 527 563 179 
29 9 493 710 454 621 436 83 653 552 393 
30 9 532 379 34 323 721 682 661 254 476 
31 9 337 111 306 304 553 383 455 86 149 
32 9 265 473 682 515 525 637 603 283 601 
33 9 547 492 574 78 620 173 541 450 258 
34 9 30 532 682 379 323 265 721 661 181 
35 9 310 450 199 674 576 557 55 173 298 
36 9 258 107 441 524 65 312 574 541 674 
37 9 531 555 124 671 644 41 648 273 327 
38 9 530 663 242 113 155 294 584 342 447 
39 9 707 670 11 212 630 271 446 704 477 
40 9 695 132 566 264 627 564 650 113 194 
41 8 607 324 671 632 596 689 37 555 
42 9 351 676 255 156 617 355 175 615 349 
43 9 672 471 474 47 18 478 104 593 522 
44 9 248 681 683 410 458 465 160 16 404 
45 9 275 408 99 280 281 261 396 551 162 
46 9 335 67 284 302 642 108 577 373 582 
47 9 474 471 370 522 43 478 18 626 308 
48 9 6 402 321 564 208 177 234 242 536 
49 9 340 497 386 86 383 174 529 393 575 
50 9 133 679 259 236 447 416 225 342 609 
51 8 210 503 425 702 662 539 457 172 
52 9 171 165 207 150 534 561 366 316 256 
53 9 513 296 191 638 358 96 239 318 91 
54 9 495 80 227 554 299 88 97 467 585 
55 9 557 586 158 298 218 200 427 199 633 
56 9 376 146 180 400 591 422 700 322 191 
57 9 375 208 234 4 225 416 561 236 534 
58 9 608 624 691 489 203 485 103 453 645 
59 9 135 590 652 276 657 665 278 588 23 
60 9 93 21 26 562 20 697 292 241 421 
61 9 144 582 189 420 186 284 390 226 309 
62 9 384 380 321 536 402 587 120 194 224 
63 9 456 415 95 121 193 295 82 490 119 
64 9 166 263 333 403 722 257 506 571 389 
65 9 107 441 36 619 622 258 200 218 152 
66 9 8 250 176 717 277 5 378 317 603 
67 9 108 302 46 145 335 466 284 117 282 
68 9 509 100 350 594 693 518 592 420 567 
69 9 469 634 353 137 115 685 549 244 201 
70 9 213 339 568 344 114 105 703 260 27 
71 9 511 501 127 298 633 158 199 716 586 
72 9 496 331 545 615 84 523 569 560 355 
73 9 399 334 3 13 327 426 245 39 446 
74 9 610 85 579 197 519 360 374 689 163 
75 9 588 708 494 135 59 590 23 276 652 
76 9 138 668 25 628 17 573 451 336 694 
77 9 413 196 489 608 625 103 345 485 216 
78 9 173 450 574 620 33 547 492 362 618 
79 9 535 514 640 510 270 9 472 287 697 
80 9 495 54 97 227 297 467 85 610 88 
81 9 266 623 429 698 290 499 597 699 101 
82 9 295 95 609 193 456 490 119 679 63 
83 9 436 454 520 332 29 157 621 552 493 
84 7 569 523 347 361 394 72 405 
85 9 610 74 360 80 519 54 495 299 374 
86 9 383 49 553 340 111 497 386 621 31 
87 9 512 303 407 688 667 412 463 526 122 
88 9 227 272 293 467 286 554 585 54 97 
89 9 24 409 675 287 130 223 336 709 694 
90 9 105 344 246 393 497 556 386 170 340 
91 9 673 296 96 149 53 513 239 389 191 
92 9 567 592 145 67 594 108 350 466 693 
93 9 60 21 26 562 697 20 130 292 241 
94 9 613 470 480 540 625 345 659 196 169 
95 9 295 82 456 193 609 490 119 63 679 
96 9 239 296 53 91 191 513 673 656 232 
97 9 467 227 495 80 54 88 297 475 723 
98 9 123 505 128 658 184 7 178 320 510 
99 9 275 408 45 396 551 433 352 280 281 
100 9 68 509 350 594 693 518 592 204 420 
101 9 289 669 699 686 698 623 81 499 266 
102 9 544 412 230 109 19 251 407 688 546 
103 9 489 691 624 625 203 608 684 77 413 
104 9 391 672 18 471 478 43 522 279 474 
105 9 90 344 246 497 386 393 556 170 174 
106 9 309 226 186 423 144 459 61 390 372 
107 9 36 441 65 258 524 312 674 619 622 
108 9 67 302 466 145 117 282 660 335 46 
109 9 251 230 102 544 688 412 542 10 546 
110 9 159 238 369 221 483 147 241 198 414 
111 9 306 31 553 337 304 383 86 621 455 
112 9 459 186 226 577 642 373 599 364 144 
113 9 38 530 40 305 155 566 695 564 663 
114 9 260 27 568 213 70 479 339 344 174 
115 9 148 353 469 137 634 641 69 487 162 
116 9 15 578 550 635 136 529 300 575 572 
117 9 466 145 660 282 108 611 302 67 222 
118 9 392 508 397 558 723 475 317 16 151 
119 9 490 193 609 387 82 225 679 416 95 
120 9 224 194 233 132 583 695 564 223 40 
121 9 415 377 256 316 291 718 490 63 193 
122 9 463 507 249 644 526 303 273 407 684 
123 9 505 128 98 184 658 178 7 320 502 
124 9 555 531 648 273 644 37 671 327 614 
125 9 591 422 400 180 313 146 398 655 367 
126 9 373 577 642 335 46 302 112 381 692 
127 9 511 501 71 199 716 298 158 192 633 
128 9 505 123 320 98 658 184 178 414 502 
129 9 639 565 201 286 537 549 293 187 272 
130 9 26 24 675 21 89 409 93 697 336 
131 9 411 417 548 659 182 190 480 345 196 
132 9 695 40 194 564 120 264 224 566 583 
133 9 50 679 259 236 447 609 342 416 225 
134 9 431 715 385 228 248 499 160 711 365 
135 9 59 590 652 276 657 665 278 588 23 
136 9 300 575 529 578 116 253 15 419 383 
137 9 353 469 115 69 641 549 437 148 634 
138 9 76 668 17 25 385 628 573 451 382 
139 9 552 231 157 12 332 454 445 83 468 
140 9 711 597 429 290 365 499 81 244 228 
141 9 188 498 701 232 656 418 359 168 651 
142 9 598 328 448 482 444 543 14 148 411 
143 9 202 285 341 154 314 164 653 170 556 
144 9 61 582 189 186 420 226 390 309 284 
145 9 466 117 108 660 282 302 67 611 222 
146 9 400 591 422 376 180 56 125 211 720 
147 9 483 221 241 110 20 690 288 292 159 
148 9 115 487 634 353 469 641 137 162 69 
149 9 91 673 455 389 296 304 53 513 337 
150 9 561 534 207 52 165 366 171 375 234 
151 9 317 677 601 397 508 637 283 250 176 
152 9 622 619 200 427 699 266 218 623 101 
153 9 313 631 398 352 551 605 125 278 655 
154 9 202 170 556 143 246 314 2 217 285 
155 9 530 38 584 663 113 294 447 242 342 
156 9 351 617 255 676 616 42 521 349 175 
157 9 332 552 139 231 454 12 83 520 436 
158 9 298 633 586 557 55 199 71 127 511 
159 9 369 238 110 414 483 221 215 147 320 
160 9 410 715 248 44 681 385 382 134 431 
161 9 438 214 348 521 647 363 616 198 502 
162 9 487 280 281 261 634 528 148 14 45 
163 9 181 323 476 13 379 579 245 30 334 
164 9 440 643 484 468 653 341 143 442 202 
165 9 171 52 150 207 629 534 561 356 435 
166 9 64 263 333 403 257 722 506 571 389 
167 9 268 261 281 433 685 275 315 45 99 
168 9 651 500 418 701 279 498 141 712 359 
169 9 589 329 613 354 540 406 470 94 713 
170 9 556 154 246 202 424 2 90 217 703 
171 9 52 165 207 150 435 629 534 561 229 
172 9 381 702 692 252 51 126 443 222 335 
173 9 78 574 450 674 33 492 547 620 258 
174 9 386 479 340 497 49 529 568 105 578 
175 9 676 647 351 214 42 156 438 595 363 
176 9 250 66 317 151 637 601 603 717 677 
177 9 234 346 319 430 402 208 536 321 380 
178 9 184 7 505 123 326 486 128 98 502 
179 9 527 563 401 378 267 5 240 229 428 
180 9 591 146 422 191 358 125 400 56 376 
181 9 163 323 379 476 13 30 579 245 34 
182 9 190 417 548 719 131 411 659 480 345 
183 9 301 636 546 388 542 570 477 649 10 
184 9 7 178 123 505 98 128 326 486 320 
185 9 464 245 426 446 13 476 670 11 399 
186 9 226 459 106 309 112 144 61 364 599 
187 9 537 565 228 201 549 639 129 365 244 
188 9 141 232 656 498 418 701 673 96 263 
189 9 420 390 61 144 693 518 582 284 309 
190 9 182 548 719 417 131 411 659 308 480 
191 9 358 53 513 239 638 96 296 180 318 
192 9 716 501 127 364 423 599 511 199 106 
193 9 490 119 82 95 295 609 456 415 679 
194 9 120 224 132 564 695 233 583 40 264 
195 9 270 9 640 462 535 510 395 311 220 
196 9 345 480 77 413 659 625 94 131 489 
197 8 689 579 374 519 632 607 324 74 
198 9 238 110 159 369 221 483 147 161 502 
199 9 127 298 158 557 55 35 310 511 716 
200 9 427 218 619 152 622 586 55 557 65 
201 9 549 565 187 129 537 639 69 244 137 
202 9 154 143 170 556 285 653 314 246 341 
203 9 684 624 691 103 489 58 608 625 249 
204 9 518 572 390 420 189 550 635 372 309 
205 9 559 341 442 285 143 314 164 643 202 
206 9 571 517 506 460 262 680 257 666 432 
207 9 534 561 52 366 150 165 171 316 387 
208 9 57 234 375 177 48 242 6 346 294 
209 8 714 678 481 595 425 363 51 175 
210 7 503 51 457 662 539 706 425 
211 9 322 376 146 400 482 720 422 56 591 
212 9 630 39 271 477 570 704 707 388 636 
213 9 70 339 568 114 344 260 27 703 105 
214 9 647 438 363 161 175 521 676 481 351 
215 9 724 421 472 292 414 369 159 241 483 
216 9 439 485 357 581 413 453 77 608 664 
217 9 2 314 424 703 285 154 170 246 202 
218 9 200 427 55 586 557 619 622 152 65 
219 9 434 687 362 516 243 620 481 443 363 
220 9 311 395 650 462 612 627 9 338 269 
221 9 147 483 110 241 159 238 690 288 20 
222 9 660 611 252 282 117 692 466 145 302 
223 9 709 233 409 24 675 694 89 336 583 
224 9 120 194 233 583 132 695 564 223 264 
225 9 416 236 4 387 50 679 133 366 119 
226 9 186 106 309 459 112 144 364 599 61 
227 9 467 88 97 54 495 272 80 293 554 
228 9 365 187 244 537 711 140 565 134 201 
229 9 240 28 401 171 435 267 563 179 527 
230 9 102 544 412 109 542 546 251 10 19 
231 9 139 552 12 445 157 332 454 468 484 
232 9 656 188 141 418 96 673 239 498 296 
233 9 223 583 224 120 709 194 89 409 24 
234 9 177 346 208 319 375 57 430 150 48 
235 9 533 254 661 721 532 30 464 682 185 
236 9 416 225 50 133 342 679 4 447 387 
237 9 437 646 585 554 299 538 705 272 491 
238 9 159 110 369 198 221 483 414 147 320 
239 9 96 296 191 53 513 91 358 673 656 
240 9 28 229 401 527 563 179 267 718 291 
241 9 483 147 20 292 221 60 288 421 690 
242 9 294 663 38 342 530 447 208 584 57 
243 9 516 687 443 362 618 219 620 78 576 
244 9 365 685 228 140 187 69 549 201 711 
245 9 426 185 13 464 446 476 399 334 670 
246 9 170 556 424 90 105 154 344 703 2 
247 9 325 370 522 719 626 308 478 47 279 
248 9 44 410 683 160 681 465 134 715 458 
249 9 463 507 122 526 354 684 329 203 343 
250 9 176 66 317 151 277 637 601 677 717 
251 9 109 230 102 688 544 412 10 542 546 
252 9 692 222 282 381 660 702 172 302 117 
253 9 419 455 605 136 300 575 304 31 337 
254 9 533 235 721 661 532 30 464 476 379 
255 9 617 156 351 676 42 349 616 521 175 
256 9 316 377 718 291 121 207 366 52 387 
257 9 722 333 506 571 166 206 64 460 432 
258 9 36 441 107 524 574 65 674 312 541 
259 9 133 447 50 584 342 679 236 294 663 
260 9 27 114 568 479 213 70 174 550 15 
261 9 281 162 167 280 45 275 487 685 408 
262 9 517 680 460 666 206 432 571 506 22 
263 9 64 166 403 333 506 389 571 257 722 
264 9 627 566 40 650 132 695 338 583 220 
265 9 682 32 34 532 473 515 525 30 283 
266 9 81 623 290 698 429 699 597 499 152 
267 9 428 563 179 527 435 604 229 378 368 
268 9 167 504 315 261 433 685 281 307 290 
269 9 612 462 395 220 311 650 305 9 627 
270 9 9 195 462 535 395 311 220 640 510 
271 9 704 477 630 570 212 388 39 3 636 
272 9 88 585 554 286 293 227 299 646 237 
273 9 644 124 555 531 614 648 37 19 122 
274 9 606 452 392 16 458 681 330 600 118 
275 9 45 408 99 280 281 396 261 551 655 
276 9 59 652 135 590 665 278 657 23 352 
277 9 378 8 5 66 250 558 176 397 428 
278 9 665 276 352 652 59 135 551 590 396 
279 9 500 391 478 18 522 370 168 651 104 
280 9 162 45 528 275 281 408 261 487 99 
281 9 261 162 280 45 275 408 487 167 99 
282 9 660 302 117 466 108 145 222 252 611 
283 9 515 473 601 637 677 297 151 32 317 
284 9 582 46 642 67 61 577 144 335 108 
285 9 314 143 217 341 2 202 154 205 559 
286 9 293 272 129 88 639 585 554 565 227 
287 9 89 514 697 562 130 21 24 409 675 
288 9 690 20 241 147 483 221 451 26 60 
289 9 101 669 699 686 698 623 81 499 266 
290 9 597 429 81 140 266 711 499 623 504 
291 9 718 377 256 28 121 316 415 240 229 
292 9 421 215 472 241 60 724 93 483 562 
293 9 286 88 272 129 227 639 467 404 465 
294 9 663 242 342 447 38 530 584 155 236 
295 9 95 82 456 609 193 490 119 63 679 
296 9 96 53 91 239 513 673 191 638 358 
297 9 475 677 283 97 515 80 601 495 151 
298 9 158 633 557 586 55 199 71 127 511 
299 8 646 554 585 237 54 272 538 705 
300 9 575 529 136 578 383 86 253 340 15 
301 9 636 183 546 542 649 388 570 10 477 
302 9 108 282 335 466 660 67 117 145 46 
303 9 407 87 512 412 688 122 463 507 102 
304 9 337 31 306 111 553 149 455 389 419 
305 9 612 113 269 566 650 627 40 155 220 
306 9 111 31 337 304 553 149 383 403 389 
307 9 315 433 657 590 135 59 652 75 396 
308 9 626 449 580 47 593 474 370 719 325 
309 9 106 226 186 423 144 390 61 372 459 
310 9 576 35 199 599 364 716 618 450 127 
311 9 220 395 650 462 612 627 9 338 269 
312 9 524 107 36 258 451 441 628 65 17 
313 9 153 631 398 125 655 551 367 318 352 
314 9 285 2 217 143 154 202 170 424 341 
315 9 307 433 71 268 657 511 167 501 590 
316 9 256 377 718 207 366 121 291 52 387 
317 9 151 677 397 508 601 250 176 637 283 
318 9 638 358 513 53 191 605 180 296 313 
319 7 346 430 177 234 536 356 380 
320 9 414 128 502 505 369 123 724 159 658 
321 9 402 536 380 48 6 62 430 177 384 
322 9 211 376 56 146 400 482 422 591 720 
323 9 379 181 30 34 163 476 532 682 13 
324 9 632 41 607 689 579 197 671 596 327 
325 9 247 370 522 719 626 308 47 478 190 
326 9 486 348 696 178 502 7 184 521 616 
327 9 648 671 555 124 3 73 614 41 531 
328 9 142 598 482 14 448 444 148 528 543 
329 9 169 354 589 526 613 713 249 406 343 
330 8 600 606 458 587 681 274 452 380 
331 9 615 545 72 355 496 42 405 347 560 
332 9 157 552 139 454 520 83 231 12 436 
333 9 722 64 166 257 263 520 403 506 571 
334 9 399 73 13 3 426 245 446 327 185 
335 9 46 302 67 108 126 373 282 577 642 
336 9 675 409 694 24 25 709 573 89 130 
337 9 304 31 306 111 553 455 149 389 419 
338 9 311 220 264 650 627 583 395 9 514 
339 9 70 213 703 344 424 568 105 246 114 
340 9 49 386 497 174 86 383 529 393 90 
341 9 205 143 442 559 285 164 202 643 314 
342 9 294 447 663 584 242 236 50 259 133 
343 9 667 526 354 713 329 249 87 512 463 
344 9 105 90 246 70 339 424 703 213 568 
345 9 196 480 659 77 625 94 413 131 411 
346 8 319 177 234 430 356 150 208 536 
347 6 361 405 569 84 595 425 
348 9 486 326 521 161 616 502 696 438 178 
349 9 617 255 616 156 351 521 676 42 696 
350 9 594 509 68 100 693 592 567 92 518 
351 9 676 156 255 42 617 175 616 521 349 
352 9 551 665 396 278 153 631 398 313 652 
353 9 137 469 115 69 641 148 634 437 549 
354 9 329 526 169 589 343 713 249 667 463 
355 9 615 331 545 42 72 255 351 676 156 
356 8 602 629 368 435 165 319 346 171 
357 9 581 439 216 485 453 543 664 444 645 
358 9 638 191 318 513 53 180 239 296 96 
359 9 712 701 498 571 206 506 141 262 517 
360 6 519 374 85 705 538 197 
361 6 347 405 595 84 569 425 
362 9 687 516 243 620 219 618 78 443 33 
363 9 647 214 481 438 434 175 161 209 678 
364 9 599 192 716 226 310 112 186 459 106 
365 9 228 140 244 711 597 187 429 499 290 
366 9 534 207 387 561 4 150 375 52 316 
367 9 655 720 398 631 125 422 591 400 313 
368 8 629 602 435 356 428 604 267 165 
369 9 159 238 110 414 215 320 483 221 724 
370 9 522 478 47 18 325 474 247 471 391 
371 9 406 593 580 43 449 589 474 540 169 
372 9 423 494 309 106 390 572 635 204 708 
373 9 577 126 642 46 335 582 112 459 284 
374 6 519 360 689 197 607 596 
375 9 57 208 561 4 534 234 366 150 225 
376 9 56 146 211 400 322 422 591 180 720 
377 9 121 256 316 718 415 291 490 119 193 
378 9 5 277 8 563 179 527 267 66 428 
379 9 323 30 34 181 532 476 163 721 682 
380 8 536 321 402 430 62 384 177 319 
381 9 172 702 692 252 126 51 282 335 443 
382 9 587 573 160 410 384 600 138 76 681 
383 9 86 553 49 340 575 111 529 31 300 
384 9 62 587 380 536 321 120 402 382 224 
385 9 715 686 431 669 289 17 101 134 160 
386 9 497 340 49 174 90 105 86 393 479 
387 9 4 366 225 416 119 534 207 561 236 
388 9 477 570 636 183 271 704 301 630 546 
389 9 403 673 91 149 263 64 166 304 296 
390 9 420 189 61 144 518 204 309 106 186 
391 9 18 478 522 104 279 471 672 370 43 
392 9 118 452 274 558 16 508 604 397 723 
393 9 90 621 556 497 105 493 49 29 386 
394 6 706 539 662 457 569 84 
395 9 462 220 311 9 612 269 270 650 627 
396 9 551 352 99 665 657 408 652 278 275 
397 9 508 558 317 151 118 677 475 277 250 
398 9 631 655 313 367 125 153 551 422 352 
399 9 334 73 3 13 426 245 446 185 327 
400 9 422 146 591 125 376 180 720 56 211 
401 9 240 527 179 563 28 229 267 378 5 
402 9 321 536 380 48 6 177 430 62 234 
403 9 64 389 263 166 333 520 722 306 673 
404 9 465 683 16 723 293 44 467 639 248 
405 6 361 347 595 569 84 678 
406 9 371 589 593 169 540 580 470 449 329 
407 9 303 87 412 512 688 102 544 122 463 
408 9 275 45 99 280 396 281 551 655 367 
409 9 675 24 336 89 694 709 223 130 25 
410 9 160 681 44 248 458 382 683 715 600 
411 9 131 417 182 548 190 659 345 480 196 
412 9 544 102 230 407 19 303 109 688 87 
413 9 77 608 489 196 625 103 485 216 345 
414 9 369 724 215 320 159 421 110 472 238 
415 9 121 377 63 490 193 119 456 256 316 
416 9 225 236 4 387 50 679 133 57 119 
417 9 182 548 190 131 411 719 659 480 345 
418 9 651 656 232 700 188 141 168 498 701 
419 9 253 455 605 304 337 31 149 136 575 
420 9 189 390 61 144 518 693 204 582 309 
421 9 292 472 215 724 60 241 562 21 93 
422 9 591 400 146 125 180 720 367 376 655 
423 9 372 494 106 309 192 716 226 186 390 
424 9 703 2 217 246 170 154 344 556 314 
425 6 662 51 539 210 361 714 
426 9 245 185 13 446 464 476 334 399 670 
427 9 200 218 586 619 152 622 55 557 654 
428 9 267 604 368 435 629 563 378 179 602 
429 9 597 290 711 499 81 140 266 698 623 
430 7 319 177 346 536 380 402 321 
431 9 134 715 499 385 698 669 289 711 101 
432 9 666 460 22 680 517 262 206 257 571 
433 9 307 657 315 99 396 590 167 652 135 
434 9 219 363 481 620 214 647 362 687 438 
435 9 629 368 356 602 165 171 267 428 229 
436 9 83 454 29 520 621 332 157 493 552 
437 9 237 641 137 353 585 272 554 646 286 
438 9 214 647 161 363 521 175 676 616 348 
439 9 216 357 581 444 543 485 413 77 453 
440 9 484 164 468 653 643 710 231 143 341 
441 9 36 107 258 65 674 524 312 574 218 
442 9 205 341 559 643 164 143 440 285 468 
443 9 243 516 687 362 618 219 172 381 126 
444 9 543 439 448 357 216 581 142 411 598 
445 9 12 231 139 552 468 157 332 484 22 
446 9 426 185 670 464 245 11 707 13 39 
447 9 584 342 259 294 663 50 133 236 242 
448 9 598 543 142 444 328 641 439 357 148 
449 9 580 308 626 593 540 470 47 474 613 
450 9 173 674 78 35 574 576 618 33 620 
451 9 628 288 690 312 20 25 524 26 130 
452 7 392 274 606 330 604 458 600 
453 8 664 645 485 581 216 58 357 596 
454 9 552 83 157 436 332 139 29 493 231 
455 9 419 149 253 304 605 337 31 638 318 
456 9 95 295 63 82 193 490 415 609 119 
457 6 706 539 210 662 394 503 
458 9 681 600 606 330 274 410 44 683 16 
459 9 112 186 226 577 642 144 373 599 106 
460 9 680 517 666 262 432 206 22 571 257 
461 9 712 500 279 168 359 391 104 651 701 
462 9 395 9 220 311 270 612 269 195 650 
463 9 122 507 249 526 303 644 684 407 87 
464 9 185 245 426 446 13 476 670 254 11 
465 9 404 683 16 44 248 639 293 723 537 
466 9 117 145 660 282 108 302 611 67 222 
467 9 97 227 88 495 54 80 293 723 272 
468 9 484 440 164 231 643 445 653 139 552 
469 9 69 353 137 115 634 148 549 487 685 
470 9 540 613 94 449 169 589 480 580 659 
471 9 43 672 474 18 47 478 522 391 104 
472 9 421 215 292 724 562 21 60 414 697 
473 9 515 283 637 601 32 677 265 603 151 
474 9 47 471 43 522 672 18 370 478 593 
475 9 297 677 151 723 118 97 317 508 397 
476 9 13 245 181 163 185 426 379 323 464 
477 9 271 570 704 388 630 212 636 183 301 
478 9 18 522 391 370 471 47 279 474 672 
479 9 174 568 27 260 386 497 340 578 114 
480 9 345 659 196 94 131 625 548 77 413 
481 9 363 209 714 434 678 219 647 214 438 
482 9 14 328 211 528 142 322 720 598 376 
483 9 147 221 241 110 20 292 159 690 288 
484 9 440 468 653 164 710 231 552 139 493 
485 9 216 453 608 581 664 413 439 357 58 
486 9 326 348 696 178 502 7 521 184 616 
487 9 162 634 148 115 281 261 280 469 69 
488 9 560 496 523 72 545 84 569 331 615 
489 9 103 691 608 624 625 77 413 203 58 
490 9 193 119 82 609 95 295 415 456 387 
491 7 705 538 360 646 237 299 357 
492 9 547 33 574 541 173 78 620 258 450 
493 9 29 710 454 621 653 436 83 393 484 
494 9 372 423 75 708 588 192 501 635 716 
495 9 80 54 97 227 467 88 297 85 554 
496 9 72 545 560 331 488 523 615 84 569 
497 9 386 340 49 174 90 105 393 86 383 
498 9 701 141 188 359 232 418 656 168 712 
499 9 429 698 711 81 623 597 290 289 101 
500 9 168 279 651 391 478 461 522 418 370 
501 9 511 127 71 716 192 199 298 158 633 
502 9 320 486 348 326 128 505 178 369 414 
503 8 210 51 457 662 706 539 425 702 
504 9 654 290 266 81 597 429 268 633 140 
505 9 128 123 98 184 178 320 658 7 502 
506 9 571 206 257 166 263 64 333 460 517 
507 9 122 463 249 526 644 684 203 303 273 
508 9 397 558 317 118 151 677 475 392 277 
509 9 68 350 100 594 693 592 567 518 420 
510 9 640 535 79 195 270 658 9 98 514 
511 9 71 501 127 298 158 633 716 199 192 
512 9 87 688 303 407 667 343 412 526 463 
513 9 53 638 191 358 296 318 96 239 91 
514 9 79 287 697 535 562 338 21 472 89 
515 9 283 473 637 601 32 677 297 265 151 
516 9 687 243 362 618 443 219 620 78 576 
517 9 262 680 460 666 206 432 571 506 257 
518 9 204 420 390 189 572 693 68 100 509 
519 6 374 360 197 689 74 579 
520 9 83 332 333 436 722 157 64 403 454 
521 9 616 348 617 156 161 351 438 255 676 
522 9 478 370 18 391 47 471 474 279 672 
523 8 84 569 496 72 394 347 488 560 
524 9 312 36 107 258 441 65 451 541 628 
525 9 603 32 265 473 682 637 717 176 601 
526 9 343 354 249 667 463 329 122 507 713 
527 9 179 563 401 378 5 267 240 229 8 
528 9 14 280 720 367 162 482 655 45 408 
529 9 300 575 136 578 383 340 49 174 86 
530 9 38 155 663 113 242 294 584 342 447 
531 9 37 555 124 644 671 273 648 41 327 
532 9 30 34 682 721 661 379 533 265 254 
533 9 254 235 661 721 532 30 682 34 379 
534 9 561 207 150 366 52 375 4 165 387 
535 9 79 640 270 510 9 195 514 462 395 
536 9 380 321 402 430 62 177 319 384 346 
537 9 565 187 639 201 129 228 549 365 244 
538 8 705 491 646 237 299 360 585 554 
539 6 662 706 394 457 210 425 
540 9 470 613 94 449 169 589 580 406 593 
541 9 492 547 33 574 258 36 690 524 288 
542 9 546 183 10 301 649 230 636 388 544 
543 9 444 448 439 357 581 216 142 598 411 
544 9 102 412 230 109 19 407 546 251 542 
545 9 331 72 496 615 355 560 488 42 523 
546 9 542 183 301 10 230 649 636 388 544 
547 9 33 492 574 541 620 78 173 258 450 
548 9 417 182 190 131 719 659 411 480 345 
549 9 201 565 129 187 69 137 537 469 353 
550 9 635 15 116 572 204 578 518 27 136 
551 9 352 396 631 398 153 665 99 313 278 
552 9 139 231 157 454 332 12 445 83 436 
553 9 111 31 306 337 383 86 304 621 49 
554 9 585 299 646 272 237 54 88 227 286 
555 9 124 648 531 671 37 327 273 644 41 
556 9 170 154 246 202 90 393 105 424 143 
557 9 55 586 158 298 218 199 633 427 200 
558 9 397 508 118 604 392 317 277 151 428 
559 9 205 341 442 285 143 314 164 643 202 
560 9 488 496 72 545 523 331 84 569 615 
561 9 534 150 207 366 52 375 165 4 387 
562 9 21 697 93 60 26 421 292 130 472 
563 9 179 527 401 267 378 5 240 229 428 
564 9 695 132 194 6 40 120 48 224 264 
565 9 537 639 129 187 201 549 228 286 293 
566 9 627 264 650 40 220 612 311 695 132 
567 9 592 92 693 67 594 145 350 108 509 
568 9 27 479 260 114 70 213 174 344 339 
569 7 84 523 347 361 394 72 405 
570 9 477 388 636 630 271 212 704 183 301 
571 9 506 206 257 517 460 166 262 680 359 
572 9 204 550 635 518 372 116 15 390 420 
573 9 694 709 336 25 675 409 223 24 382 
574 9 173 33 492 78 547 258 450 674 541 
575 9 300 529 136 578 383 86 253 340 49 
576 9 310 618 35 450 599 364 78 516 173 
577 9 642 373 126 46 582 459 112 335 284 
578 9 15 116 136 529 300 575 174 550 479 
579 9 197 632 689 324 74 163 519 607 374 
580 9 593 449 626 308 474 47 371 540 406 
581 9 357 216 439 453 485 664 645 543 444 
582 9 284 61 642 144 577 46 373 459 189 
583 9 233 224 223 120 264 338 194 132 89 
584 9 447 259 342 663 294 155 530 38 242 
585 9 554 299 646 272 237 88 54 286 227 
586 9 55 557 158 298 427 633 218 200 654 
587 9 382 384 600 62 330 573 410 458 681 
588 9 75 708 59 135 23 590 276 494 652 
589 9 169 329 354 406 613 540 470 713 94 
590 9 135 59 652 657 276 665 278 588 396 
591 9 422 400 146 125 180 720 376 367 655 
592 9 567 92 693 594 350 509 68 67 145 
593 9 580 449 371 474 626 308 47 406 43 
594 9 350 509 68 100 592 693 567 92 518 
595 8 678 405 714 361 347 175 209 425 
596 6 607 645 664 41 689 453 
597 9 290 429 140 711 81 499 266 698 623 
598 9 142 328 448 543 14 482 148 444 641 
599 9 364 310 226 112 716 192 459 186 106 
600 8 330 458 606 587 681 274 410 382 
601 9 637 283 473 677 515 151 317 32 297 
602 8 356 368 629 435 165 319 346 171 
603 9 525 32 637 473 717 176 265 601 250 
604 9 428 558 267 368 435 602 629 392 452 
605 9 153 318 638 455 419 253 313 358 513 
606 7 330 458 600 274 452 681 392 
607 6 596 689 41 324 632 197 
608 9 489 413 77 103 58 485 691 624 625 
609 9 679 82 295 95 119 193 490 133 50 
610 9 85 74 80 34 323 495 54 360 379 
611 9 117 660 222 466 145 282 108 302 252 
612 9 269 395 220 650 311 462 627 566 305 
613 9 470 94 540 169 589 625 329 480 449 
614 9 19 648 273 3 124 327 704 555 271 
615 9 331 355 545 72 42 496 405 347 351 
616 9 521 617 156 255 349 351 676 348 486 
617 9 156 255 351 616 349 676 521 42 175 
618 9 576 516 362 687 243 78 443 450 620 
619 9 622 152 200 427 218 65 699 266 586 
620 9 362 78 33 687 547 516 219 492 173 
621 9 29 436 493 83 393 86 454 710 553 
622 9 619 152 200 427 699 218 65 266 101 
623 9 698 81 699 101 289 266 669 499 429 
624 9 691 203 103 489 684 608 58 625 77 
625 9 103 489 77 413 94 196 691 345 624 
626 9 308 449 580 47 593 474 370 325 719 
627 9 650 566 264 220 311 40 612 338 395 
628 9 451 25 288 690 312 668 20 76 130 
629 9 435 368 356 602 165 171 428 267 52 
630 9 212 271 477 704 570 39 388 636 707 
631 9 398 313 655 153 367 551 125 352 422 
632 8 324 689 607 41 579 197 671 596 
633 9 158 298 586 654 71 557 55 511 427 
634 9 469 487 69 115 148 353 685 162 137 
635 9 550 572 116 15 708 204 372 23 578 
636 9 301 183 570 388 477 546 542 630 271 
637 9 601 473 283 515 677 151 32 317 176 
638 9 318 358 513 53 191 296 239 96 180 
639 9 129 565 537 187 201 286 293 549 465 
640 9 510 535 79 195 270 9 658 514 98 
641 9 353 115 137 437 148 469 448 237 598 
642 9 577 373 582 46 126 284 459 112 335 
643 9 164 440 468 442 484 341 653 143 205 
644 9 273 124 531 555 37 122 507 463 648 
645 7 664 453 596 485 58 581 607 
646 8 299 554 585 237 538 705 272 54 
647 9 214 438 363 175 161 481 676 521 351 
648 9 327 555 124 671 614 3 531 37 273 
649 9 10 301 542 546 183 636 230 388 570 
650 9 627 220 311 566 612 264 395 462 338 
651 9 168 500 418 701 279 700 141 498 188 
652 9 59 135 590 276 657 665 278 396 352 
653 9 710 484 440 493 164 202 29 468 143 
654 9 504 633 427 586 266 158 152 200 298 
655 9 367 398 631 125 720 313 422 591 400 
656 9 232 188 418 141 96 239 673 296 91 
657 9 590 652 135 59 433 396 276 665 307 
658 9 98 128 123 505 724 320 510 414 640 
659 9 480 345 131 548 196 417 94 411 182 
660 9 282 117 466 302 145 222 611 108 252 
661 9 721 533 254 235 532 30 682 34 379 
662 6 539 706 425 457 210 394 
663 9 294 242 38 530 342 584 447 155 113 
664 7 645 453 596 485 581 357 216 
665 9 278 276 652 352 59 135 396 590 657 
666 9 680 460 432 517 262 22 206 257 571 
667 9 343 526 713 354 87 512 249 303 463 
668 9 138 76 17 628 25 451 312 385 524 
669 9 289 101 686 699 698 623 499 81 385 
670 9 11 707 446 39 426 185 464 212 245 
671 9 327 555 648 41 37 124 531 324 632 
672 9 43 471 104 18 474 391 47 478 522 
673 9 91 296 96 389 149 239 232 53 656 
674 9 450 173 35 441 574 258 78 218 36 
675 9 409 24 336 694 89 709 25 130 223 
676 9 351 156 42 255 617 175 616 521 349 
677 9 151 601 317 283 637 297 475 473 515 
678 8 714 209 595 481 425 405 175 361 
679 9 50 133 609 236 416 225 259 119 82 
680 9 460 517 262 666 432 206 22 571 257 
681 9 458 44 410 248 683 600 160 606 274 
682 9 265 34 532 30 32 661 721 379 323 
683 9 465 44 404 248 16 681 410 458 274 
684 9 203 624 691 103 489 625 249 58 608 
685 9 244 69 634 261 469 167 281 365 487 
686 9 669 101 289 699 17 698 623 385 499 
687 9 362 516 243 620 219 618 443 78 434 
688 9 512 87 407 109 303 251 412 102 544 
689 7 197 607 632 374 324 579 519 
690 9 288 20 147 241 483 221 451 26 60 
691 9 624 103 203 489 684 608 625 58 77 
692 9 252 381 282 660 222 172 702 302 335 
693 9 509 68 592 350 189 420 567 594 100 
694 9 709 336 409 675 573 24 25 223 89 
695 9 132 564 40 194 264 120 224 566 627 
696 9 326 486 178 7 348 616 349 184 521 
697 9 562 21 93 60 26 287 130 514 472 
698 9 623 101 289 81 699 669 499 266 429 
699 9 101 289 623 669 698 686 81 266 152 
700 9 418 56 656 232 651 239 376 96 188 
701 9 498 141 359 188 168 712 418 651 232 
702 9 172 381 692 252 51 503 210 222 209 
703 9 424 2 217 246 339 170 344 314 154 
704 9 271 477 630 388 570 212 3 39 614 
705 8 538 491 646 237 299 360 585 554 
706 6 457 539 394 662 210 503 
707 9 670 11 39 446 212 630 426 185 464 
708 9 588 75 23 494 59 135 590 276 635 
709 9 694 223 336 573 409 675 24 233 25 
710 9 493 653 29 484 454 440 552 621 393 
711 9 140 429 597 499 290 365 81 698 228 
712 9 359 701 461 498 168 206 571 262 517 
713 9 343 354 329 589 667 526 169 406 371 
714 7 678 209 595 481 425 405 363 
715 9 134 431 385 160 248 410 669 686 499 
716 9 192 127 501 364 511 199 599 71 310 
717 9 66 603 176 250 8 525 5 277 637 
718 9 291 256 316 377 28 121 52 171 229 
719 9 190 182 548 417 325 247 308 626 131 
720 9 367 400 422 655 591 146 528 125 211 
721 9 661 533 254 235 532 30 682 34 379 
722 9 333 257 166 64 520 506 332 263 571 
723 9 16 404 118 475 467 97 392 465 227 
724 9 215 472 414 421 292 658 320 369 159 
DEPOT_SECTION
   1
   -1
EOF
