NAME :  X-n701-kX-w280-c7.cctp
COMMENT : 	Adapted by Maziero, Usberti and Cavellucci from the Uchoa, Pecin, Pessoa, Poggi, Subramanian, and Vidal (2013)
TYPE :  CCTP
DIMENSION :    580
EDGE_WEIGHT_TYPE : 	EUC_2D	
CAPACITY : 	87
VERTICES_WITHIN_COVERAGE :  7
VERTICES_WITH_DEMAND : 	280
NODE_COORD_SECTION
1 0 0
2 878 606
3 35 593
4 320 125
5 189 244
6 274 784
7 900 310
8 742 640
9 800 448
10 57 755
11 522 327
12 528 268
13 461 328
14 325 726
15 788 496
16 626 660
17 720 744
18 3 417
19 32 306
20 65 233
21 827 442
22 347 566
23 545 389
24 452 670
25 236 564
26 439 425
27 69 17
28 468 416
29 103 137
30 689 261
31 300 603
32 378 187
33 790 584
34 336 860
35 386 199
36 522 461
37 356 214
38 947 18
39 431 1000
40 817 983
41 71 731
42 918 54
43 989 840
44 260 262
45 904 724
46 970 295
47 567 694
48 426 75
49 24 178
50 656 590
51 128 178
52 969 965
53 309 968
54 855 798
55 587 48
56 118 736
57 838 354
58 274 298
59 311 702
60 183 963
61 392 495
62 950 484
63 621 676
64 52 482
65 956 934
66 745 263
67 289 149
68 689 900
69 216 107
70 852 560
71 45 441
72 638 84
73 66 842
74 290 815
75 68 509
76 521 672
77 100 855
78 408 483
79 491 455
80 536 563
81 114 255
82 383 536
83 902 19
84 964 423
85 610 39
86 719 961
87 837 83
88 657 185
89 289 599
90 747 259
91 292 168
92 552 548
93 560 212
94 128 950
95 211 939
96 160 473
97 32 550
98 353 65
99 995 695
100 72 691
101 19 172
102 237 657
103 994 883
104 457 195
105 35 32
106 425 288
107 12 586
108 560 747
109 302 972
110 891 540
111 812 30
112 206 371
113 241 223
114 436 508
115 601 81
116 298 860
117 977 911
118 188 304
119 545 745
120 318 269
121 839 548
122 107 557
123 262 668
124 824 424
125 859 540
126 477 909
127 323 639
128 954 411
129 271 682
130 412 518
131 751 85
132 922 84
133 13 661
134 354 560
135 524 576
136 522 565
137 228 552
138 573 723
139 71 320
140 627 736
141 760 323
142 668 714
143 777 669
144 685 750
145 654 333
146 63 754
147 477 613
148 224 523
149 662 829
150 515 78
151 962 282
152 351 237
153 737 451
154 605 442
155 472 449
156 249 840
157 537 728
158 244 611
159 205 27
160 681 545
161 921 582
162 171 870
163 810 570
164 487 331
165 451 822
166 453 518
167 888 770
168 85 443
169 895 651
170 984 369
171 494 962
172 973 891
173 721 160
174 989 256
175 638 621
176 223 951
177 602 835
178 516 523
179 780 864
180 991 664
181 914 45
182 949 533
183 335 946
184 6 338
185 234 558
186 491 163
187 170 763
188 77 45
189 845 26
190 681 306
191 107 355
192 593 124
193 231 497
194 881 371
195 420 399
196 17 680
197 581 906
198 783 782
199 334 715
200 395 79
201 285 579
202 908 478
203 532 760
204 847 460
205 438 733
206 102 417
207 645 136
208 71 222
209 337 978
210 44 67
211 760 84
212 849 533
213 984 810
214 738 919
215 918 985
216 533 824
217 579 119
218 14 972
219 609 859
220 560 291
221 32 686
222 35 244
223 280 871
224 940 401
225 452 680
226 790 271
227 832 824
228 765 381
229 653 162
230 594 601
231 114 661
232 702 726
233 649 586
234 594 299
235 433 966
236 499 695
237 159 291
238 261 445
239 46 465
240 479 816
241 108 11
242 898 637
243 667 524
244 46 379
245 120 371
246 133 485
247 958 649
248 182 943
249 23 384
250 426 116
251 36 988
252 945 828
253 350 956
254 560 676
255 975 826
256 972 624
257 836 379
258 149 821
259 295 92
260 977 685
261 917 843
262 137 226
263 477 858
264 256 630
265 235 922
266 292 81
267 449 829
268 179 845
269 136 84
270 713 592
271 94 858
272 697 981
273 165 188
274 326 480
275 750 434
276 836 453
277 574 982
278 386 481
279 705 190
280 203 945
281 816 604
282 975 849
283 483 904
284 47 84
285 503 851
286 438 468
287 937 42
288 629 845
289 209 270
290 61 456
291 906 841
292 624 195
293 662 907
294 673 555
295 307 43
296 296 837
297 253 75
298 829 599
299 138 159
300 710 107
301 37 564
302 974 967
303 759 756
304 580 848
305 260 64
306 596 890
307 745 159
308 847 81
309 207 27
310 912 418
311 859 340
312 425 770
313 375 325
314 114 18
315 923 49
316 87 908
317 84 327
318 219 869
319 378 164
320 800 100
321 22 470
322 952 3
323 105 215
324 80 581
325 728 532
326 823 527
327 625 890
328 854 377
329 500 240
330 126 833
331 560 23
332 138 966
333 909 990
334 447 664
335 187 283
336 435 345
337 460 767
338 325 901
339 362 602
340 485 74
341 754 65
342 19 676
343 583 926
344 678 820
345 451 76
346 497 468
347 910 712
348 364 919
349 580 785
350 513 457
351 486 458
352 768 472
353 663 367
354 800 702
355 846 788
356 343 784
357 477 523
358 459 894
359 422 91
360 881 418
361 665 647
362 488 927
363 574 373
364 318 951
365 580 535
366 381 57
367 578 904
368 529 432
369 424 941
370 564 835
371 462 915
372 604 438
373 711 692
374 585 331
375 1000 582
376 694 324
377 531 377
378 319 988
379 748 383
380 550 545
381 886 630
382 464 790
383 459 892
384 263 731
385 910 658
386 954 676
387 339 995
388 548 384
389 646 127
390 530 491
391 892 599
392 857 656
393 379 965
394 910 765
395 764 542
396 746 566
397 758 330
398 788 471
399 601 815
400 599 443
401 612 452
402 517 665
403 471 427
404 314 942
405 449 692
406 603 776
407 785 108
408 705 286
409 861 753
410 253 757
411 582 120
412 930 746
413 356 949
414 194 998
415 523 914
416 249 8
417 569 530
418 697 596
419 800 653
420 388 283
421 610 597
422 406 480
423 519 35
424 960 884
425 1000 655
426 891 715
427 375 465
428 653 335
429 881 810
430 476 502
431 512 6
432 314 80
433 372 452
434 796 503
435 980 890
436 821 409
437 459 846
438 528 455
439 714 162
440 436 399
441 441 504
442 677 307
443 979 797
444 691 762
445 322 213
446 600 75
447 458 506
448 368 879
449 782 605
450 700 177
451 553 57
452 361 931
453 535 162
454 779 427
455 584 169
456 968 639
457 538 432
458 423 126
459 649 580
460 714 575
461 630 532
462 561 303
463 316 878
464 476 920
465 503 81
466 368 922
467 966 709
468 482 907
469 426 613
470 619 443
471 319 189
472 696 579
473 561 392
474 759 434
475 549 403
476 498 309
477 697 697
478 509 466
479 276 695
480 383 737
481 566 572
482 854 859
483 855 780
484 449 817
485 534 381
486 514 94
487 782 608
488 911 584
489 794 421
490 930 603
491 465 430
492 925 589
493 903 700
494 86 841
495 936 814
496 549 796
497 953 696
498 447 81
499 933 643
500 956 648
501 936 782
502 839 490
503 542 792
504 313 985
505 760 439
506 552 70
507 851 771
508 583 543
509 677 320
510 901 671
511 408 731
512 897 704
513 929 716
514 542 495
515 489 528
516 469 846
517 261 63
518 434 996
519 788 856
520 623 345
521 543 811
522 653 493
523 506 537
524 496 106
525 462 553
526 302 731
527 610 449
528 532 555
529 534 722
530 548 215
531 352 885
532 415 527
533 353 967
534 896 713
535 540 259
536 839 438
537 365 542
538 481 887
539 502 470
540 319 886
541 439 0
542 927 975
543 864 824
544 462 863
545 367 989
546 550 29
547 542 469
548 667 751
549 364 868
550 790 67
551 491 754
552 320 938
553 389 659
554 333 868
555 762 894
556 834 595
557 430 114
558 807 652
559 522 548
560 585 319
561 418 848
562 812 478
563 638 504
564 509 877
565 732 547
566 540 734
567 417 762
568 473 879
569 520 472
570 965 697
571 515 504
572 484 966
573 632 71
574 864 521
575 878 724
576 246 855
577 669 545
578 803 761
579 889 884
580 517 469
DEMAND_SECTION
2 2
3 8
4 7
5 5
6 3
7 7
8 6
9 3
10 10
11 2
12 1
13 8
14 8
15 8
16 8
17 4
18 9
19 7
20 9
21 4
22 10
23 4
24 1
25 2
26 1
27 9
28 4
29 4
30 5
31 8
32 2
33 9
34 3
35 1
36 8
37 2
38 8
39 3
40 3
41 2
42 4
43 3
44 2
45 7
46 7
47 9
48 1
49 5
50 7
51 10
52 5
53 9
54 7
55 7
56 1
57 3
58 5
59 9
60 5
61 4
62 5
63 9
64 4
65 4
66 7
67 8
68 1
69 8
70 7
71 2
72 9
73 5
74 1
75 6
76 8
77 4
78 10
79 9
80 8
81 4
82 2
83 8
84 1
85 5
86 2
87 7
88 3
89 1
90 2
91 6
92 5
93 10
94 9
95 6
96 8
97 6
98 1
99 8
100 3
101 8
102 9
103 2
104 9
105 8
106 8
107 2
108 7
109 4
110 10
111 5
112 4
113 10
114 9
115 9
116 7
117 6
118 7
119 10
120 10
121 5
122 6
123 1
124 3
125 4
126 1
127 5
128 8
129 3
130 1
131 4
132 4
133 3
134 8
135 6
136 8
137 1
138 2
139 2
140 8
141 9
142 6
143 10
144 3
145 1
146 5
147 6
148 1
149 4
150 4
151 10
152 8
153 10
154 5
155 5
156 8
157 10
158 1
159 2
160 7
161 4
162 3
163 4
164 4
165 6
166 3
167 1
168 8
169 9
170 8
171 5
172 1
173 2
174 2
175 10
176 9
177 4
178 7
179 7
180 2
181 1
182 4
183 2
184 9
185 6
186 6
187 8
188 9
189 1
190 10
191 2
192 10
193 6
194 4
195 9
196 10
197 1
198 8
199 1
200 4
201 2
202 4
203 2
204 5
205 5
206 9
207 1
208 5
209 7
210 2
211 4
212 1
213 1
214 9
215 3
216 8
217 1
218 4
219 9
220 5
221 8
222 2
223 10
224 1
225 6
226 1
227 9
228 3
229 9
230 4
231 1
232 10
233 8
234 6
235 4
236 8
237 2
238 7
239 8
240 7
241 7
242 6
243 6
244 5
245 6
246 1
247 8
248 10
249 1
250 6
251 1
252 6
253 5
254 6
255 2
256 4
257 4
258 1
259 6
260 10
261 4
262 1
263 8
264 1
265 3
266 1
267 10
268 1
269 5
270 10
271 6
272 7
273 4
274 5
275 4
276 4
277 10
278 10
279 1
280 8
281 5
COVERAGE_SECTION
2 7 391 381 242 488 556 169 161 
3 7 107 301 97 324 133 122 342 
4 7 67 259 432 91 266 471 98 
5 7 289 335 262 113 237 118 273 
6 7 410 74 384 296 526 156 356 
7 7 311 194 151 46 57 328 257 
8 7 143 487 449 270 419 373 418 
9 7 398 21 489 454 562 124 276 
10 7 146 41 56 100 221 196 73 
11 7 476 164 462 377 220 485 12 
12 7 535 220 329 462 476 530 11 
13 7 164 336 476 106 11 440 195 
14 7 199 526 59 479 480 356 384 
15 7 434 398 562 352 326 9 502 
16 7 63 175 361 421 230 47 142 
17 7 232 444 144 303 477 373 548 
18 7 249 71 321 244 239 290 184 
19 7 139 184 317 222 244 249 20 
20 7 208 222 323 81 49 262 101 
21 7 536 276 124 204 9 436 489 
22 7 134 537 339 82 31 201 89 
23 7 388 485 475 473 377 363 457 
24 7 334 225 405 236 147 469 553 
25 7 185 137 148 158 201 89 193 
26 7 440 491 28 195 403 155 286 
27 7 188 105 241 314 210 284 269 
28 7 403 491 26 155 440 79 351 
29 7 299 51 269 284 323 273 49 
30 7 408 190 442 66 90 509 376 
31 7 89 201 127 264 158 22 339 
32 7 35 319 37 152 471 445 458 
33 7 449 163 487 281 298 556 396 
34 7 554 463 549 531 540 448 116 
35 7 32 37 319 152 445 471 104 
36 7 438 580 350 569 478 539 547 
37 7 152 35 445 32 471 319 120 
38 7 322 287 315 181 83 42 132 
39 7 518 235 369 393 572 545 171 
40 7 333 86 215 214 555 542 272 
41 7 146 10 100 56 221 196 342 
42 7 315 181 287 132 83 38 322 
43 7 282 255 213 103 443 252 435 
44 7 58 113 289 120 5 335 445 
45 7 347 534 426 512 493 513 575 
46 7 151 174 7 170 224 128 194 
47 7 254 138 529 157 566 76 108 
48 6 359 498 345 200 557 250 
49 7 101 208 222 20 29 323 284 
50 7 233 459 175 294 418 472 421 
51 7 299 273 323 29 262 208 81 
52 7 302 65 542 117 215 333 172 
53 7 109 504 364 378 404 209 552 
54 7 355 483 507 543 429 227 167 
55 7 85 446 451 115 331 506 546 
56 7 41 146 187 10 100 231 258 
57 7 257 311 328 194 436 124 7 
58 7 44 120 289 113 118 335 152 
59 7 199 14 526 479 129 384 123 
60 7 248 280 95 414 176 332 94 
61 7 278 78 422 130 427 532 82 
62 7 202 182 84 128 310 110 224 
63 7 16 361 47 175 140 142 254 
64 7 239 290 75 321 71 168 97 
65 7 117 52 302 172 424 435 542 
66 7 90 226 408 30 141 397 190 
67 7 91 4 471 259 266 445 432 
68 7 293 214 327 86 555 149 272 
69 7 297 305 517 259 266 159 309 
70 7 121 125 212 556 574 163 110 
71 7 290 239 321 168 64 18 249 
72 7 573 115 446 389 207 85 192 
73 7 494 271 77 330 316 258 10 
74 7 296 6 116 156 223 576 356 
75 7 64 239 290 97 321 122 301 
76 7 402 236 254 47 529 157 566 
77 7 271 494 330 73 316 258 162 
78 7 422 61 278 286 130 114 427 
79 7 351 346 539 155 478 350 580 
80 7 528 136 135 559 92 380 481 
81 7 262 323 20 208 237 5 51 
82 7 537 532 130 134 61 22 278 
83 7 181 315 42 287 38 322 189 
84 7 128 224 310 170 62 202 360 
85 7 55 446 573 115 331 72 451 
86 7 272 214 68 293 555 40 179 
87 7 308 320 550 189 407 111 211 
88 7 229 292 450 279 207 389 439 
89 7 31 201 264 158 127 25 22 
90 7 66 226 408 30 141 397 190 
91 7 67 471 4 445 113 259 37 
92 7 380 528 80 417 481 559 365 
93 7 530 455 535 453 12 292 329 
94 7 332 248 60 316 280 414 95 
95 7 280 176 248 265 60 414 318 
96 7 246 193 148 168 206 75 122 
97 7 301 107 3 75 324 64 122 
98 7 366 432 200 295 266 259 4 
99 7 260 570 180 467 425 497 386 
100 7 41 221 231 342 196 56 146 
101 7 49 208 222 20 29 284 323 
102 7 123 264 129 158 479 89 384 
103 7 435 172 117 424 282 43 255 
104 7 186 329 35 458 32 250 319 
105 7 210 27 188 284 241 314 269 
106 7 420 13 336 313 164 476 329 
107 7 3 301 97 324 133 342 196 
108 7 119 566 138 157 203 529 349 
109 7 53 504 378 364 404 209 552 
110 7 125 574 212 70 488 161 121 
111 7 189 550 87 308 341 320 211 
112 7 118 245 335 238 237 58 191 
113 7 44 5 289 91 335 58 445 
114 7 441 166 447 130 532 78 286 
115 7 446 573 55 72 85 411 192 
116 7 223 296 463 540 554 34 74 
117 7 172 435 65 424 103 52 302 
118 7 335 237 289 5 112 44 58 
119 7 566 108 157 203 529 138 503 
120 7 152 58 445 44 37 420 313 
121 7 70 212 125 326 163 574 556 
122 7 324 75 301 97 246 3 64 
123 7 129 102 479 264 59 158 384 
124 7 436 21 536 489 276 9 204 
125 7 212 574 70 121 110 326 502 
126 7 468 283 464 371 362 538 358 
127 7 31 89 339 59 129 123 264 
128 7 84 224 310 170 62 360 202 
129 7 479 123 102 59 384 264 526 
130 7 532 114 61 441 82 78 422 
131 7 211 341 407 550 300 320 307 
132 7 42 315 181 287 83 38 308 
133 7 342 196 221 100 3 107 41 
134 7 22 537 82 339 31 532 130 
135 7 136 80 528 559 92 380 481 
136 7 135 80 528 559 523 92 380 
137 7 185 25 148 193 158 201 89 
138 7 108 47 566 119 157 529 254 
139 7 317 19 191 244 184 245 81 
140 7 548 142 406 138 63 144 108 
141 5 397 228 226 379 66 
142 7 477 232 548 144 140 373 444 
143 7 419 558 354 8 487 449 373 
144 7 444 548 232 17 142 477 140 
145 7 428 509 520 353 442 190 376 
146 7 10 41 56 100 221 196 73 
147 7 469 334 135 24 525 136 402 
148 7 193 137 185 25 96 201 238 
149 7 344 288 177 219 399 327 444 
150 5 465 486 340 524 506 
151 7 46 174 7 170 311 194 224 
152 7 37 445 120 35 32 471 420 
153 3 275 505 474 
154 5 372 400 527 401 470 
155 7 351 79 491 403 346 28 539 
156 7 576 318 223 296 74 116 6 
157 7 529 566 119 108 203 138 47 
158 7 264 89 102 25 201 185 31 
159 7 309 416 305 517 297 69 269 
160 7 577 294 243 472 460 459 325 
161 7 492 488 490 391 2 110 182 
162 7 268 318 258 330 77 248 576 
163 7 33 281 298 556 121 70 326 
164 7 476 13 11 336 377 485 12 
165 7 484 267 437 240 516 382 544 
166 7 447 441 114 357 430 525 515 
167 7 394 409 483 507 429 54 355 
168 7 290 206 71 239 64 246 75 
169 4 242 385 510 381 
170 7 128 224 84 46 310 151 7 
171 7 572 362 464 126 415 468 371 
172 7 435 424 117 103 282 65 43 
173 7 439 307 450 279 300 229 88 
174 7 151 46 7 170 224 311 194 
175 7 50 233 361 421 16 459 230 
176 7 95 280 265 60 248 414 109 
177 7 399 219 304 288 370 306 349 
178 7 523 571 559 515 390 528 514 
179 7 519 555 227 214 482 198 543 
180 7 425 260 99 456 247 500 386 
181 7 42 315 287 83 132 38 322 
182 7 62 161 110 492 488 202 375 
183 7 552 253 364 404 413 533 452 
184 7 19 249 244 139 18 317 222 
185 7 25 137 148 158 201 193 89 
186 4 453 104 524 486 
187 7 56 258 268 330 410 384 41 
188 7 27 210 105 241 314 284 269 
189 7 111 308 83 87 550 181 42 
190 7 442 509 376 408 145 428 30 
191 7 245 317 139 206 244 237 249 
192 7 411 217 115 455 446 207 389 
193 7 148 137 238 185 25 96 274 
194 7 328 311 57 257 360 310 7 
195 7 440 26 28 491 336 403 286 
196 7 342 221 133 100 41 10 146 
197 7 367 343 306 327 219 304 415 
198 6 578 303 355 227 507 483 
199 7 14 59 526 480 479 356 129 
200 7 366 359 48 98 250 557 498 
201 7 89 31 25 158 185 264 22 
202 7 62 310 574 110 204 360 182 
203 7 119 566 108 157 503 529 496 
204 7 276 536 21 502 562 124 9 
205 7 511 567 312 337 405 225 480 
206 7 168 245 290 71 191 244 239 
207 7 389 229 88 72 192 292 411 
208 7 20 323 222 81 49 262 51 
209 7 387 533 378 504 253 53 183 
210 7 284 105 188 27 241 314 29 
211 7 131 341 550 407 320 300 111 
212 7 125 121 574 70 326 110 502 
213 6 443 255 43 282 252 495 
214 7 555 86 68 179 272 293 519 
215 7 333 542 52 302 65 117 40 
216 7 521 496 370 503 285 304 240 
217 7 411 192 115 446 455 506 453 
218 7 251 316 94 332 271 73 77 
219 7 288 177 304 306 327 399 370 
220 7 462 234 535 560 12 374 11 
221 7 196 342 133 100 41 10 146 
222 7 20 208 19 49 101 323 81 
223 7 116 463 296 576 540 156 554 
224 7 128 84 310 170 360 194 202 
225 7 24 405 334 236 205 553 402 
226 7 90 66 141 397 408 57 311 
227 7 543 54 355 482 483 429 519 
228 3 379 454 489 
229 7 88 207 389 292 450 279 439 
230 6 421 481 175 233 459 508 
231 7 100 56 41 221 324 342 196 
232 7 17 144 477 373 142 444 548 
233 7 459 50 175 294 421 577 472 
234 5 560 374 462 220 520 
235 5 369 518 39 572 393 
236 7 76 402 529 225 157 405 24 
237 7 335 118 289 5 81 262 191 
238 7 193 274 148 112 96 433 137 
239 7 290 64 71 321 168 75 18 
240 7 165 382 484 516 267 437 263 
241 7 314 27 188 105 269 210 284 
242 6 169 381 385 510 499 2 
243 6 577 160 294 522 563 461 
244 7 249 18 184 71 139 317 191 
245 7 191 206 317 139 244 168 112 
246 7 96 168 75 206 122 290 64 
247 5 500 456 499 386 256 
248 7 60 280 95 176 332 94 414 
249 7 244 18 184 71 19 139 290 
250 5 557 458 359 48 498 
251 7 218 316 94 332 271 77 60 
252 7 495 255 261 282 291 213 43 
253 7 413 533 183 209 452 393 364 
254 7 47 76 402 138 529 157 63 
255 7 213 43 282 443 252 495 501 
256 7 456 247 500 425 499 180 490 
257 7 328 57 436 311 194 124 489 
258 7 330 268 162 77 187 271 494 
259 7 266 432 4 297 305 517 295 
260 7 570 99 180 386 467 497 425 
261 7 291 252 495 429 579 543 282 
262 7 323 81 273 51 5 208 299 
263 7 516 544 568 437 285 538 564 
264 7 158 102 123 89 31 129 201 
265 7 95 176 280 318 248 60 223 
266 7 259 432 305 517 297 295 4 
267 7 165 484 437 516 240 544 561 
268 7 162 258 318 330 576 156 77 
269 7 29 314 188 299 241 69 159 
270 7 418 460 472 396 565 294 8 
271 7 77 494 73 330 316 258 162 
272 7 86 214 68 293 555 327 40 
273 7 51 299 262 5 323 29 81 
274 7 427 433 278 61 537 238 82 
275 4 474 505 153 454 
276 7 204 21 536 124 562 9 502 
277 7 343 197 367 171 415 572 306 
278 7 61 427 422 78 433 130 286 
279 7 450 439 173 88 307 229 30 
280 7 95 176 248 60 265 414 332 
281 7 298 556 33 449 487 163 558 
282 7 43 255 252 424 103 213 435 
283 7 468 126 464 538 362 371 358 
284 7 210 188 105 27 29 269 101 
285 7 263 564 516 216 568 240 538 
286 7 78 422 441 155 114 26 447 
287 7 315 42 181 38 83 322 132 
288 7 219 177 149 399 327 304 344 
289 7 335 5 118 44 237 113 58 
290 7 239 71 168 64 321 75 206 
291 7 261 429 495 252 543 579 482 
292 7 88 229 455 207 93 389 192 
293 7 68 327 306 288 219 214 149 
294 7 577 160 243 472 459 50 233 
295 7 432 266 259 517 98 305 297 
296 7 74 116 223 34 463 156 554 
297 7 305 517 266 259 69 432 295 
298 7 556 281 163 33 70 449 487 
299 7 51 273 29 323 262 269 208 
300 7 131 173 211 439 341 307 389 
301 7 97 3 107 324 75 122 64 
302 7 52 65 542 117 215 333 172 
303 6 198 17 578 232 354 444 
304 7 370 177 219 399 306 288 521 
305 7 517 297 266 259 295 432 416 
306 7 197 367 327 219 343 304 177 
307 7 173 439 450 279 300 407 131 
308 7 87 320 189 550 111 407 132 
309 7 159 416 305 517 297 69 269 
310 7 360 224 128 84 194 202 328 
311 7 57 328 194 257 7 436 360 
312 5 567 337 205 511 382 
313 7 420 106 336 120 13 195 152 
314 7 241 27 188 269 105 210 159 
315 7 42 181 287 132 83 38 322 
316 7 271 77 94 494 73 332 330 
317 7 139 191 19 245 244 81 184 
318 7 576 156 268 162 265 223 95 
319 7 32 35 37 458 471 250 4 
320 7 407 550 87 211 131 308 341 
321 7 239 64 71 290 18 75 168 
322 7 38 287 83 315 181 42 132 
323 7 262 208 81 20 51 299 273 
324 7 122 301 3 97 107 75 231 
325 5 565 395 396 460 160 
326 7 121 212 434 125 502 574 70 
327 7 306 219 293 288 197 367 343 
328 7 257 57 194 311 436 360 124 
329 7 12 535 530 104 93 476 186 
330 7 258 77 271 494 268 162 73 
331 7 546 451 55 423 506 431 85 
332 7 94 60 248 414 280 316 95 
333 7 215 542 52 302 65 40 117 
334 7 24 225 405 469 553 147 236 
335 7 118 289 237 5 44 262 81 
336 7 13 164 440 195 106 313 476 
337 7 382 551 312 205 567 484 240 
338 7 540 463 531 554 552 34 404 
339 7 22 134 127 537 31 553 469 
340 2 465 150 
341 7 131 211 550 407 320 300 111 
342 7 196 133 221 100 41 3 10 
343 7 197 367 306 327 277 415 219 
344 7 149 288 444 144 548 177 399 
345 3 498 48 359 
346 7 539 478 79 351 350 580 569 
347 6 45 493 534 512 426 513 
348 5 466 452 413 531 183 
349 7 406 496 399 503 108 521 370 
350 7 36 478 580 438 539 569 346 
351 6 79 346 155 539 478 350 
352 7 398 15 505 153 474 9 275 
353 2 428 145 
354 4 143 419 558 578 
355 7 483 54 507 409 227 543 429 
356 2 14 74 
357 6 515 430 166 447 523 525 
358 5 383 371 568 126 538 
359 7 48 557 250 498 200 345 458 
360 7 310 194 536 328 204 124 276 
361 7 175 16 63 50 477 418 233 
362 7 464 126 468 283 371 171 415 
363 4 473 388 23 475 
364 7 404 552 183 53 109 253 209 
365 3 508 417 92 
366 7 200 98 48 359 498 432 345 
367 7 197 306 343 327 219 304 415 
368 6 457 438 36 350 475 478 
369 2 235 371 
370 7 304 521 216 177 399 496 503 
371 6 464 126 358 468 383 283 
372 5 154 400 527 401 470 
373 7 477 232 142 17 8 144 361 
374 5 560 234 462 520 363 
375 7 256 456 182 425 490 492 161 
376 5 509 190 442 408 145 
377 7 485 23 388 475 473 363 11 
378 7 504 209 387 53 109 364 533 
379 1 228 
380 6 92 528 80 417 559 481 
381 7 242 169 2 391 385 392 510 
382 7 337 240 484 165 267 312 551 
383 5 358 568 371 538 126 
384 7 410 479 526 129 6 59 14 
385 4 510 169 242 499 
386 5 497 570 260 247 500 
387 7 209 378 504 545 533 53 253 
388 6 23 485 473 377 475 363 
389 7 207 229 72 192 573 88 115 
390 7 514 571 569 547 580 36 478 
391 7 2 488 381 161 492 242 490 
392 6 169 381 242 510 558 385 
393 7 533 545 413 253 452 209 466 
394 5 167 412 501 45 409 
395 6 396 565 325 33 434 15 
396 7 565 395 460 325 270 33 472 
397 3 141 228 379 
398 7 352 15 562 9 434 505 454 
399 7 177 349 304 406 288 370 219 
400 5 154 372 527 401 470 
401 5 527 470 154 372 400 
402 7 76 236 254 47 529 24 147 
403 7 491 28 155 26 79 351 440 
404 7 552 364 183 53 109 253 338 
405 7 225 24 334 205 236 511 553 
406 7 349 399 140 108 496 177 138 
407 7 320 211 131 550 341 87 307 
408 7 30 190 442 376 509 66 90 
409 6 507 483 167 575 355 54 
410 7 384 6 526 479 74 129 14 
411 7 217 192 115 446 455 506 453 
412 4 394 513 45 501 
413 7 253 533 452 183 393 466 348 
414 7 60 280 176 248 95 332 94 
415 7 362 564 283 468 126 464 538 
416 7 309 159 517 305 297 295 266 
417 4 365 508 380 92 
418 7 270 472 460 50 294 233 459 
419 7 558 143 487 354 449 281 392 
420 7 106 313 152 120 37 336 35 
421 6 230 175 233 459 50 481 
422 7 78 278 61 286 427 130 114 
423 7 431 546 451 150 331 506 465 
424 7 172 435 117 103 282 65 43 
425 7 180 456 260 99 247 256 500 
426 6 534 512 45 575 347 493 
427 7 433 278 61 422 78 274 286 
428 6 145 509 520 353 442 190 
429 7 543 54 291 483 167 355 261 
430 6 447 357 166 515 441 571 
431 5 423 546 331 451 150 
432 7 259 266 295 98 4 305 517 
433 7 427 278 422 61 78 274 286 
434 7 15 562 398 326 352 502 395 
435 7 172 103 117 424 282 65 43 
436 7 124 489 21 257 536 9 276 
437 7 516 544 267 263 165 484 240 
438 7 36 350 580 569 547 478 368 
439 7 173 450 279 307 300 88 229 
440 7 195 26 28 491 403 336 155 
441 7 114 447 166 130 430 532 286 
442 7 190 509 376 145 408 428 30 
443 5 213 255 43 252 495 
444 7 144 548 17 232 142 344 477 
445 7 471 37 152 91 120 32 35 
446 7 115 55 573 85 72 411 506 
447 6 166 441 430 114 357 515 
448 3 549 531 34 
449 7 487 33 281 163 298 419 8 
450 7 279 439 173 88 307 229 207 
451 7 506 546 55 331 423 150 446 
452 7 466 348 413 253 183 533 393 
453 7 186 455 530 93 217 411 524 
454 7 489 474 505 9 275 124 398 
455 7 192 292 93 411 453 217 530 
456 7 247 500 256 180 499 425 386 
457 5 368 438 475 36 350 
458 5 250 557 359 48 498 
459 6 233 50 294 577 175 421 
460 7 270 472 418 396 565 160 325 
461 3 563 243 577 
462 7 220 560 234 374 11 12 535 
463 7 540 554 116 338 34 223 531 
464 6 126 362 468 371 283 358 
465 4 150 486 340 524 
466 5 348 452 413 253 531 
467 4 570 497 260 99 
468 7 283 126 464 538 362 371 358 
469 7 147 334 553 24 339 525 225 
470 5 401 527 154 372 400 
471 7 445 91 37 67 152 32 4 
472 7 418 460 270 294 160 50 577 
473 6 388 23 475 363 485 377 
474 5 505 275 454 153 489 
475 6 23 473 388 485 457 377 
476 7 164 11 13 12 462 220 535 
477 7 373 232 142 17 144 361 548 
478 7 539 580 350 346 569 36 79 
479 7 129 123 59 384 526 102 14 
480 5 511 567 312 199 205 
481 6 92 80 380 508 528 230 
482 7 543 227 579 291 429 54 261 
483 7 507 355 54 409 167 429 543 
484 7 165 267 240 382 437 516 561 
485 7 377 23 388 475 473 363 368 
486 5 150 465 524 340 506 
487 7 449 33 281 163 298 419 8 
488 7 161 492 391 490 2 110 381 
489 7 454 9 124 436 474 505 21 
490 7 492 161 488 391 499 242 256 
491 7 403 28 155 26 351 79 440 
492 7 161 488 490 391 2 242 499 
493 6 512 347 534 426 45 510 
494 7 271 73 77 330 258 316 146 
495 6 252 501 261 291 255 443 
496 7 503 521 216 349 203 370 108 
497 5 570 467 386 260 513 
498 3 345 48 359 
499 3 500 247 385 
500 5 247 456 499 386 256 
501 5 394 495 412 443 252 
502 7 562 204 276 326 574 212 434 
503 7 496 521 216 203 349 119 108 
504 7 378 53 109 209 387 364 404 
505 6 474 275 454 153 352 489 
506 7 451 150 55 546 486 331 423 
507 6 483 355 409 54 167 429 
508 4 365 417 92 380 
509 6 442 190 376 145 428 408 
510 2 385 169 
511 5 480 205 567 312 405 
512 6 493 534 426 347 45 575 
513 4 347 45 412 493 
514 7 390 547 571 569 580 178 36 
515 7 357 523 178 430 571 166 525 
516 7 437 263 544 267 165 240 568 
517 7 305 297 266 259 295 416 432 
518 7 39 235 369 572 393 545 171 
519 7 179 555 227 482 198 214 543 
520 3 428 145 374 
521 7 216 496 503 370 349 203 304 
522 2 563 243 
523 7 178 515 559 136 357 528 571 
524 4 486 465 150 340 
525 7 357 166 515 447 523 114 430 
526 7 14 59 199 384 479 410 129 
527 5 401 154 470 372 400 
528 7 80 559 136 92 380 135 523 
529 7 157 566 119 108 203 138 47 
530 7 93 535 329 453 12 455 186 
531 5 448 549 554 34 338 
532 7 130 114 82 441 61 166 78 
533 7 253 413 209 393 545 183 387 
534 6 426 512 45 347 493 575 
535 7 12 220 329 530 462 93 476 
536 7 21 276 124 204 436 9 360 
537 7 82 134 22 532 130 61 339 
538 7 568 283 468 126 358 383 263 
539 7 346 478 580 350 569 79 351 
540 7 463 338 554 34 116 531 223 
541 4 431 48 345 366 
542 7 215 333 52 302 65 117 172 
543 7 429 54 227 482 355 291 483 
544 7 263 437 516 568 383 358 538 
545 7 533 393 387 209 253 413 378 
546 7 331 451 423 506 55 431 150 
547 6 438 36 569 390 580 514 
548 7 144 444 142 140 232 17 477 
549 3 448 531 34 
550 7 211 320 341 407 111 131 87 
551 7 337 203 382 157 566 529 119 
552 7 404 364 183 53 253 338 109 
553 7 334 469 339 24 225 405 127 
554 7 34 463 540 531 549 338 116 
555 7 179 214 519 68 86 482 227 
556 7 298 281 163 70 2 33 121 
557 5 250 458 359 498 48 
558 7 419 143 281 354 392 487 449 
559 7 528 136 523 80 178 135 380 
560 5 374 234 462 220 520 
561 1 267 
562 7 398 15 434 502 9 276 21 
563 3 522 461 243 
564 7 285 538 568 263 283 415 468 
565 6 325 396 395 460 472 270 
566 7 157 119 529 108 203 138 47 
567 5 312 511 205 480 337 
568 7 538 383 544 263 358 283 468 
569 7 580 36 478 350 539 438 390 
570 5 467 497 260 386 99 
571 6 178 390 514 569 523 515 
572 7 171 362 464 235 371 126 518 
573 7 72 446 115 85 55 389 192 
574 7 212 125 110 121 502 70 326 
575 6 426 534 45 512 347 409 
576 7 156 318 223 116 296 74 265 
577 6 294 160 243 459 461 472 
578 6 198 303 507 355 483 354 
579 7 482 291 261 543 424 429 252 
580 7 569 36 478 350 539 438 346 
DEPOT_SECTION
   1
   -1
EOF
