NAME :  X-n701-kX-w140-c11.cctp
COMMENT : 	Adapted by Maziero, Usberti and Cavellucci from the Uchoa, Pecin, Pessoa, Poggi, Subramanian, and Vidal (2013)
TYPE :  CCTP
DIMENSION :    514
EDGE_WEIGHT_TYPE : 	EUC_2D	
CAPACITY : 	87
VERTICES_WITHIN_COVERAGE :  11
VERTICES_WITH_DEMAND : 	140
NODE_COORD_SECTION
1 0 0
2 878 606
3 35 593
4 320 125
5 189 244
6 274 784
7 900 310
8 742 640
9 800 448
10 57 755
11 522 327
12 528 268
13 461 328
14 325 726
15 788 496
16 626 660
17 720 744
18 3 417
19 32 306
20 65 233
21 827 442
22 347 566
23 545 389
24 452 670
25 236 564
26 439 425
27 69 17
28 468 416
29 103 137
30 689 261
31 300 603
32 378 187
33 790 584
34 336 860
35 386 199
36 522 461
37 356 214
38 947 18
39 431 1000
40 817 983
41 71 731
42 918 54
43 989 840
44 260 262
45 904 724
46 970 295
47 567 694
48 426 75
49 24 178
50 656 590
51 128 178
52 969 965
53 309 968
54 855 798
55 587 48
56 118 736
57 838 354
58 274 298
59 311 702
60 183 963
61 392 495
62 950 484
63 621 676
64 52 482
65 956 934
66 745 263
67 289 149
68 689 900
69 216 107
70 852 560
71 45 441
72 638 84
73 66 842
74 290 815
75 68 509
76 521 672
77 100 855
78 408 483
79 491 455
80 536 563
81 114 255
82 383 536
83 902 19
84 964 423
85 610 39
86 719 961
87 837 83
88 657 185
89 289 599
90 747 259
91 292 168
92 552 548
93 560 212
94 128 950
95 211 939
96 160 473
97 32 550
98 353 65
99 995 695
100 72 691
101 19 172
102 237 657
103 994 883
104 457 195
105 35 32
106 425 288
107 12 586
108 560 747
109 302 972
110 891 540
111 812 30
112 206 371
113 241 223
114 436 508
115 601 81
116 298 860
117 977 911
118 188 304
119 545 745
120 318 269
121 839 548
122 107 557
123 262 668
124 824 424
125 859 540
126 477 909
127 323 639
128 954 411
129 271 682
130 412 518
131 751 85
132 922 84
133 13 661
134 354 560
135 524 576
136 522 565
137 228 552
138 573 723
139 71 320
140 627 736
141 760 323
142 668 714
143 777 669
144 685 750
145 63 754
146 477 613
147 224 523
148 662 829
149 962 282
150 351 237
151 472 449
152 249 840
153 537 728
154 244 611
155 205 27
156 681 545
157 921 582
158 171 870
159 810 570
160 487 331
161 453 518
162 888 770
163 85 443
164 984 369
165 494 962
166 973 891
167 721 160
168 989 256
169 638 621
170 223 951
171 516 523
172 780 864
173 991 664
174 914 45
175 949 533
176 335 946
177 6 338
178 234 558
179 491 163
180 170 763
181 77 45
182 845 26
183 681 306
184 107 355
185 593 124
186 231 497
187 881 371
188 420 399
189 17 680
190 783 782
191 334 715
192 395 79
193 285 579
194 908 478
195 532 760
196 847 460
197 438 733
198 102 417
199 645 136
200 71 222
201 337 978
202 44 67
203 760 84
204 849 533
205 984 810
206 738 919
207 918 985
208 579 119
209 14 972
210 560 291
211 32 686
212 35 244
213 280 871
214 940 401
215 452 680
216 790 271
217 832 824
218 653 162
219 594 601
220 114 661
221 702 726
222 649 586
223 433 966
224 499 695
225 159 291
226 261 445
227 46 465
228 108 11
229 898 637
230 46 379
231 120 371
232 133 485
233 182 943
234 23 384
235 426 116
236 36 988
237 945 828
238 560 676
239 975 826
240 836 379
241 149 821
242 295 92
243 977 685
244 137 226
245 256 630
246 235 922
247 292 81
248 179 845
249 136 84
250 713 592
251 94 858
252 697 981
253 165 188
254 326 480
255 836 453
256 386 481
257 705 190
258 203 945
259 816 604
260 975 849
261 483 904
262 47 84
263 438 468
264 937 42
265 209 270
266 61 456
267 906 841
268 624 195
269 662 907
270 673 555
271 307 43
272 296 837
273 253 75
274 829 599
275 138 159
276 710 107
277 37 564
278 974 967
279 759 756
280 260 64
281 466 4
282 745 159
283 847 81
284 207 27
285 912 418
286 859 340
287 375 325
288 114 18
289 923 49
290 87 908
291 84 327
292 219 869
293 378 164
294 800 100
295 22 470
296 952 3
297 105 215
298 80 581
299 823 527
300 625 890
301 854 377
302 500 240
303 126 833
304 560 23
305 138 966
306 909 990
307 447 664
308 187 283
309 435 345
310 325 901
311 362 602
312 448 905
313 754 65
314 19 676
315 678 820
316 451 76
317 497 468
318 910 712
319 580 785
320 513 457
321 486 458
322 768 472
323 846 788
324 343 784
325 477 523
326 459 894
327 422 91
328 881 418
329 665 647
330 488 927
331 574 373
332 318 951
333 580 535
334 381 57
335 529 432
336 462 915
337 711 692
338 575 526
339 585 331
340 531 377
341 319 988
342 550 545
343 886 630
344 369 882
345 459 892
346 263 731
347 463 15
348 339 995
349 548 384
350 646 127
351 530 491
352 892 599
353 857 656
354 910 765
355 764 542
356 746 566
357 758 330
358 788 471
359 517 665
360 471 427
361 314 942
362 449 692
363 603 776
364 785 108
365 705 286
366 861 753
367 253 757
368 582 120
369 859 725
370 930 746
371 194 998
372 523 914
373 249 8
374 569 530
375 697 596
376 800 653
377 388 283
378 610 597
379 406 480
380 960 884
381 1000 655
382 891 715
383 375 465
384 881 810
385 476 502
386 314 80
387 372 452
388 796 503
389 980 890
390 821 409
391 469 73
392 528 455
393 714 162
394 436 399
395 441 504
396 677 307
397 979 797
398 691 762
399 322 213
400 600 75
401 458 506
402 368 879
403 782 605
404 700 177
405 553 57
406 535 162
407 779 427
408 584 169
409 485 490
410 469 82
411 538 432
412 423 126
413 649 580
414 714 575
415 561 303
416 316 878
417 476 920
418 966 709
419 482 907
420 426 613
421 319 189
422 696 579
423 561 392
424 759 434
425 549 403
426 498 309
427 697 697
428 509 466
429 276 695
430 383 737
431 566 572
432 854 859
433 855 780
434 534 381
435 782 608
436 911 584
437 794 421
438 930 603
439 465 430
440 925 589
441 903 700
442 86 841
443 549 796
444 447 81
445 839 490
446 542 792
447 313 985
448 760 439
449 552 70
450 851 771
451 583 543
452 677 320
453 408 731
454 897 704
455 929 716
456 542 495
457 489 528
458 261 63
459 434 996
460 788 856
461 379 843
462 506 537
463 462 553
464 302 731
465 532 555
466 534 722
467 548 215
468 352 885
469 415 527
470 353 967
471 896 713
472 540 259
473 839 438
474 365 542
475 481 887
476 502 470
477 319 886
478 439 0
479 927 975
480 864 824
481 367 989
482 550 29
483 542 469
484 667 751
485 364 868
486 790 67
487 491 754
488 320 938
489 389 659
490 584 364
491 333 868
492 762 894
493 834 595
494 430 114
495 807 652
496 522 548
497 585 319
498 812 478
499 509 877
500 540 734
501 473 879
502 520 472
503 965 697
504 484 966
505 632 71
506 966 732
507 864 521
508 878 724
509 246 855
510 669 545
511 591 551
512 803 761
513 889 884
514 517 469
DEMAND_SECTION
2 2
3 8
4 7
5 5
6 3
7 7
8 6
9 3
10 10
11 2
12 1
13 8
14 8
15 8
16 8
17 4
18 9
19 7
20 9
21 4
22 10
23 4
24 1
25 2
26 1
27 9
28 4
29 4
30 5
31 8
32 2
33 9
34 3
35 1
36 8
37 2
38 8
39 3
40 3
41 2
42 4
43 3
44 2
45 7
46 7
47 9
48 1
49 5
50 7
51 10
52 5
53 9
54 7
55 7
56 1
57 3
58 5
59 9
60 5
61 4
62 5
63 9
64 4
65 4
66 7
67 8
68 1
69 8
70 7
71 2
72 9
73 5
74 1
75 6
76 8
77 4
78 10
79 9
80 8
81 4
82 2
83 8
84 1
85 5
86 2
87 7
88 3
89 1
90 2
91 6
92 5
93 10
94 9
95 6
96 8
97 6
98 1
99 8
100 3
101 8
102 9
103 2
104 9
105 8
106 8
107 2
108 7
109 4
110 10
111 5
112 4
113 10
114 9
115 9
116 7
117 6
118 7
119 10
120 10
121 5
122 6
123 1
124 3
125 4
126 1
127 5
128 8
129 3
130 1
131 4
132 4
133 3
134 8
135 6
136 8
137 1
138 2
139 2
140 8
141 9
COVERAGE_SECTION
2 10 352 343 229 436 493 157 274 440 438 70 
3 11 107 277 97 298 133 122 314 189 75 211 220 
4 11 67 242 386 91 247 421 98 293 271 273 32 
5 11 265 308 244 113 225 118 253 44 81 297 51 
6 11 367 74 346 272 464 152 324 509 14 116 213 
7 11 286 187 149 46 57 301 240 214 164 168 285 
8 11 143 435 403 250 376 337 375 495 414 427 33 
9 11 358 21 437 407 498 124 255 322 473 448 424 
10 11 145 41 56 100 211 189 73 314 442 133 303 
11 11 426 160 415 340 210 434 12 13 339 349 497 
12 10 472 210 302 415 426 467 11 93 160 497 
13 11 160 309 426 106 11 394 188 340 287 377 28 
14 9 191 464 59 429 430 324 346 129 6 
15 10 388 358 498 322 299 9 445 355 255 448 
16 11 63 169 329 378 219 47 142 238 50 140 222 
17 11 221 398 144 279 427 337 484 142 190 512 315 
18 11 234 71 295 230 227 266 177 64 163 198 75 
19 11 139 177 291 212 230 234 20 184 200 81 231 
20 11 200 212 297 81 49 244 101 19 51 139 291 
21 11 473 255 124 196 9 390 437 498 358 445 407 
22 11 134 474 311 82 31 193 89 127 469 130 61 
23 9 349 434 425 423 340 331 411 335 490 
24 11 307 215 362 224 146 420 489 197 359 76 453 
25 11 178 137 147 154 193 89 186 245 31 102 123 
26 11 394 439 28 188 360 151 263 321 79 379 78 
27 11 181 105 228 288 202 262 249 29 155 284 275 
28 11 360 439 26 151 394 79 321 188 263 317 320 
29 11 275 51 249 262 297 253 49 101 200 202 244 
30 8 365 183 396 66 90 452 257 88 
31 11 89 193 127 245 154 22 311 134 25 123 178 
32 11 35 293 37 150 421 399 412 104 4 235 91 
33 11 403 159 435 259 274 493 356 355 121 70 299 
34 11 491 416 485 468 477 402 116 344 310 272 461 
35 11 32 37 293 150 399 421 104 412 377 235 494 
36 11 392 514 320 502 428 476 483 317 335 351 79 
37 11 150 35 399 32 421 293 120 377 91 67 4 
38 11 296 264 289 174 83 42 132 182 283 87 111 
39 7 459 223 504 481 165 470 336 
40 11 306 86 207 206 492 479 252 513 172 432 460 
41 11 145 10 100 56 211 189 314 220 133 180 73 
42 11 289 174 264 132 83 38 296 283 182 87 111 
43 10 260 239 205 103 397 237 389 166 380 117 
44 11 58 113 265 120 5 308 399 118 150 421 91 
45 9 318 471 382 454 441 455 508 370 354 
46 11 149 168 7 164 214 128 187 286 84 285 301 
47 11 238 138 466 153 500 76 108 119 63 359 16 
48 9 327 444 316 192 494 235 391 410 334 
49 11 101 200 212 20 29 297 262 51 202 275 81 
50 10 222 413 169 270 375 422 378 510 156 250 
51 11 275 253 297 29 244 200 81 20 5 249 49 
52 11 278 65 479 117 207 306 166 389 380 103 513 
53 10 109 447 332 341 361 201 488 176 348 470 
54 11 323 433 450 480 384 217 162 366 432 354 512 
55 10 85 400 405 115 304 449 482 505 72 208 
56 11 41 145 180 10 100 220 241 303 211 442 189 
57 10 240 286 301 187 390 124 7 328 437 141 
58 11 44 120 265 113 118 308 150 399 112 5 287 
59 11 191 14 464 429 129 346 123 127 367 430 102 
60 11 233 258 95 371 170 305 94 246 158 292 290 
61 11 256 78 379 130 383 469 82 114 387 395 263 
62 11 194 175 84 128 285 110 214 507 328 157 196 
63 11 16 329 47 169 140 142 238 138 427 219 378 
64 11 227 266 75 295 71 163 97 18 232 198 277 
65 11 117 52 278 166 380 389 479 103 207 306 513 
66 10 90 216 365 30 141 357 183 396 257 452 
67 11 91 4 421 242 247 399 386 273 69 113 280 
68 8 269 206 300 86 492 148 252 315 
69 11 273 280 458 242 247 155 284 249 67 275 253 
70 11 121 125 204 493 507 159 110 299 274 2 352 
71 11 266 227 295 163 64 18 234 198 230 75 232 
72 11 505 115 400 350 199 85 185 55 368 208 276 
73 11 442 251 77 303 290 241 10 145 158 41 248 
74 11 272 6 116 152 213 509 324 34 416 491 367 
75 11 64 227 266 97 295 122 277 163 232 71 298 
76 11 359 224 238 47 466 153 500 24 215 138 146 
77 11 251 442 303 73 290 241 158 248 94 145 10 
78 11 379 61 256 263 130 114 383 395 469 387 401 
79 11 321 317 476 151 428 320 514 36 360 502 409 
80 11 465 136 135 496 92 342 431 462 171 374 451 
81 11 244 297 20 200 225 5 51 139 291 308 212 
82 11 474 469 130 134 61 22 256 78 114 379 395 
83 11 174 289 42 264 38 296 182 132 283 87 111 
84 11 128 214 285 164 62 194 328 187 175 301 196 
85 11 55 400 505 115 304 72 405 482 449 208 368 
86 9 252 206 68 269 492 40 172 300 460 
87 11 283 294 486 182 364 111 203 132 313 42 131 
88 11 218 268 404 257 199 350 393 167 408 30 185 
89 11 31 193 245 154 127 25 22 178 311 123 134 
90 10 66 216 365 30 141 357 183 257 396 452 
91 11 67 421 4 399 113 242 37 293 247 32 150 
92 11 342 465 80 374 431 496 333 451 338 136 511 
93 10 467 408 472 406 12 268 302 210 179 415 
94 11 305 233 60 290 258 371 95 158 170 251 77 
95 11 258 170 233 246 60 371 292 305 158 94 509 
96 11 232 186 147 163 198 75 122 266 137 226 64 
97 11 277 107 3 75 298 64 122 295 227 266 71 
98 11 334 386 192 271 247 242 4 48 327 235 494 
99 6 243 503 173 418 381 506 
100 11 41 211 220 314 189 56 145 10 133 3 298 
101 11 49 200 212 20 29 262 297 202 51 275 81 
102 11 123 245 129 154 429 89 346 31 59 127 193 
103 11 389 166 117 380 260 43 239 65 205 237 52 
104 10 179 302 35 412 32 235 293 406 494 467 
105 11 202 27 181 262 228 288 249 29 101 49 275 
106 11 377 13 309 287 160 426 302 150 35 104 37 
107 11 3 277 97 298 133 314 189 75 122 211 64 
108 11 119 500 138 153 195 466 319 446 443 363 47 
109 10 53 447 341 332 361 201 488 176 348 470 
110 11 125 507 204 70 436 157 121 175 352 440 194 
111 11 182 486 87 283 313 294 203 131 364 83 174 
112 11 118 231 308 226 225 58 184 265 96 198 44 
113 11 44 5 265 91 308 58 399 253 421 67 120 
114 11 395 161 401 130 469 78 263 385 379 325 61 
115 11 400 505 55 72 85 368 185 208 449 405 350 
116 11 213 272 416 477 491 34 74 310 509 152 468 
117 11 166 389 65 380 103 52 278 260 43 479 239 
118 11 308 225 265 5 112 44 58 81 244 231 184 
119 11 500 108 153 195 466 138 446 443 319 487 47 
120 11 150 58 399 44 37 377 287 421 113 35 32 
121 11 70 204 125 299 159 507 493 274 110 445 33 
122 11 298 75 277 97 232 3 64 96 107 220 227 
123 11 129 102 429 245 59 154 346 127 89 31 464 
124 11 390 21 473 437 255 9 196 407 240 498 301 
125 11 204 507 70 121 110 299 445 159 493 274 352 
126 10 419 261 417 336 330 475 326 345 312 501 
127 11 31 89 311 59 129 123 245 489 193 429 22 
128 11 84 214 285 164 62 328 194 187 301 7 46 
129 11 429 123 102 59 346 245 464 127 14 191 154 
130 11 469 114 61 395 82 78 379 161 256 401 474 
131 11 203 313 364 486 276 294 282 167 111 393 87 
132 11 42 289 174 264 83 38 283 87 296 182 111 
133 11 314 189 211 100 3 107 41 277 220 10 298 
134 11 22 474 82 311 31 469 130 193 61 89 127 
135 11 136 80 465 496 92 342 431 462 171 457 146 
136 11 135 80 465 496 462 92 342 171 431 457 374 
137 11 178 25 147 186 154 193 89 245 31 96 102 
138 11 108 47 500 119 153 466 238 195 140 363 319 
139 11 291 19 184 230 177 231 81 234 212 20 225 
140 11 484 142 363 138 63 144 108 319 398 47 16 
141 5 357 216 66 90 365 
142 11 427 221 484 144 140 337 398 17 63 329 16 
143 8 376 495 8 435 403 337 259 353 
144 11 398 484 221 17 142 427 140 337 315 279 148 
145 11 10 41 56 100 211 189 73 314 442 303 133 
146 11 420 307 135 24 463 136 359 215 76 80 496 
147 11 186 137 178 25 96 193 226 154 232 89 31 
148 7 315 300 398 68 269 484 363 
149 11 46 168 7 164 286 187 214 128 84 57 301 
150 11 37 399 120 35 32 421 377 293 106 91 287 
151 11 321 79 439 360 317 28 476 263 26 428 320 
152 11 509 292 213 272 74 116 6 248 416 246 367 
153 11 466 500 119 108 195 138 47 224 487 238 76 
154 11 245 89 102 25 193 178 31 123 137 129 127 
155 11 284 373 280 458 273 69 249 288 228 247 271 
156 8 510 270 422 414 413 50 222 375 
157 9 440 436 438 352 2 110 175 343 229 
158 11 248 292 241 303 77 233 509 251 95 246 258 
159 11 33 259 274 493 121 70 299 403 435 204 355 
160 11 426 13 11 309 340 434 12 106 415 349 23 
161 11 401 395 114 325 385 463 457 469 130 409 263 
162 10 354 366 433 450 384 54 323 508 370 45 
163 11 266 198 71 227 64 232 75 295 230 231 96 
164 11 128 214 84 46 285 149 7 187 168 328 62 
165 11 504 330 417 126 372 419 336 261 223 459 312 
166 10 389 380 117 103 260 65 43 239 237 52 
167 11 393 282 404 257 276 218 88 199 131 350 364 
168 11 149 46 7 164 214 286 187 128 84 285 57 
169 11 50 222 329 378 16 413 219 63 375 422 270 
170 11 95 258 246 60 233 371 109 292 305 53 361 
171 10 462 496 457 351 465 456 325 342 136 92 
172 11 460 492 217 206 432 190 480 68 54 323 512 
173 5 381 243 99 503 418 
174 11 42 289 264 83 132 38 296 182 283 87 111 
175 10 62 157 110 440 436 194 438 507 352 125 
176 6 488 332 361 470 201 53 
177 11 19 234 230 139 18 291 212 184 71 231 20 
178 11 25 137 147 154 193 186 89 245 31 102 22 
179 5 406 104 412 467 302 
180 11 56 241 248 303 367 346 41 6 145 158 152 
181 11 27 202 105 228 288 262 249 29 155 275 284 
182 11 111 283 83 87 486 174 42 289 294 264 132 
183 4 396 452 365 30 
184 11 231 291 139 198 230 225 234 19 163 118 81 
185 11 368 208 115 408 400 199 350 72 505 449 406 
186 11 147 137 226 178 25 96 254 193 232 154 89 
187 11 301 286 57 240 328 285 7 214 390 124 473 
188 11 394 26 28 439 309 360 263 151 387 383 13 
189 11 314 211 133 100 41 10 145 3 107 220 56 
190 10 512 279 323 217 450 433 17 54 460 172 
191 10 14 59 464 430 429 324 129 346 453 127 
192 10 334 327 48 98 235 494 444 412 316 391 
193 11 89 31 25 154 178 245 22 137 127 134 311 
194 11 62 285 507 110 196 328 175 445 255 84 125 
195 10 119 500 108 153 446 466 443 487 319 138 
196 11 255 473 21 445 498 124 9 328 390 358 507 
197 6 453 362 215 430 487 24 
198 11 163 231 266 71 184 230 227 232 96 64 234 
199 11 350 218 88 72 185 268 368 505 208 404 408 
200 11 20 297 212 81 49 244 51 101 29 275 19 
201 9 348 470 341 447 53 176 481 332 109 
202 11 262 105 181 27 228 288 29 249 101 49 275 
203 11 131 313 486 364 294 276 111 282 87 167 283 
204 11 125 121 507 70 299 110 445 159 388 493 498 
205 6 397 239 43 260 237 103 
206 11 492 86 68 172 252 269 460 40 315 300 148 
207 11 306 479 52 278 65 117 40 513 166 380 389 
208 11 368 185 115 400 408 449 406 350 405 199 72 
209 11 236 290 94 305 251 73 77 442 60 233 303 
210 9 415 472 497 12 339 11 426 467 490 
211 11 189 314 133 100 41 10 145 220 3 56 107 
212 11 20 200 19 49 101 297 81 139 291 177 244 
213 11 116 416 272 509 477 152 491 310 34 74 292 
214 11 128 84 285 164 328 187 194 62 301 7 286 
215 11 24 362 307 224 197 489 359 453 76 146 420 
216 9 90 66 141 357 365 57 286 30 183 
217 11 480 54 323 432 433 384 460 450 190 172 512 
218 11 88 199 350 268 404 257 393 167 408 185 72 
219 11 378 431 169 511 222 413 451 50 16 333 92 
220 11 100 56 41 211 298 314 189 133 3 122 145 
221 11 17 144 427 337 142 398 484 279 140 329 143 
222 10 413 50 169 270 378 510 422 375 156 219 
223 6 459 39 504 336 165 312 
224 11 76 359 466 215 153 362 24 500 487 307 238 
225 11 308 118 265 5 81 244 184 291 231 112 139 
226 11 186 254 147 112 96 387 137 178 383 25 256 
227 11 266 64 71 295 163 75 18 198 234 97 230 
228 11 288 27 181 105 249 202 262 155 284 29 373 
229 4 343 2 352 353 
230 11 234 18 177 71 139 291 184 198 19 231 163 
231 11 184 198 291 139 230 163 112 225 118 234 71 
232 11 96 163 75 198 122 266 64 227 71 147 186 
233 11 60 258 95 170 305 94 371 246 158 292 248 
234 11 230 18 177 71 19 139 266 291 227 163 198 
235 8 494 412 327 48 444 316 192 410 
236 11 209 290 94 305 251 77 60 73 233 442 371 
237 7 239 260 267 205 43 397 380 
238 11 47 76 359 138 466 153 63 500 224 16 108 
239 7 205 43 260 397 237 103 380 
240 10 301 57 390 286 187 124 437 473 328 21 
241 11 303 248 158 77 180 251 442 292 73 56 152 
242 11 247 386 4 273 280 458 271 67 98 91 69 
243 5 503 99 173 418 381 
244 11 297 81 253 51 5 200 275 225 20 308 265 
245 11 154 102 123 89 31 129 193 127 429 25 178 
246 11 95 170 258 292 233 60 213 509 361 158 152 
247 11 242 386 280 458 273 271 4 98 67 69 373 
248 11 158 241 292 303 509 152 77 180 251 442 246 
249 11 29 288 181 275 228 69 155 262 284 51 202 
250 9 375 414 422 356 270 8 50 156 222 
251 11 77 442 73 303 290 241 158 248 94 10 145 
252 7 86 206 68 269 492 300 40 
253 11 51 275 244 5 297 29 81 113 265 69 308 
254 11 383 387 256 61 474 226 82 379 78 134 22 
255 11 196 21 473 124 498 9 445 390 358 437 328 
256 11 61 383 379 78 387 130 263 469 82 114 254 
257 11 404 393 167 88 282 218 30 90 199 268 66 
258 11 95 170 233 60 246 371 305 94 292 158 509 
259 11 274 493 33 403 435 159 495 376 70 121 2 
260 9 43 239 237 380 103 205 389 166 397 
261 11 419 126 417 475 330 336 326 345 501 312 499 
262 11 202 181 105 27 29 249 101 288 228 49 275 
263 11 78 379 395 151 114 26 401 439 321 385 161 
264 11 289 42 174 38 83 296 132 182 283 87 111 
265 11 308 5 118 44 225 113 58 244 253 81 112 
266 11 227 71 163 64 295 75 198 18 230 232 234 
267 8 384 237 480 513 432 54 260 380 
268 11 88 218 408 199 93 350 185 404 467 257 368 
269 6 68 300 206 148 86 252 
270 8 510 156 422 413 50 222 414 375 
271 11 386 247 242 458 98 280 273 373 334 4 192 
272 11 74 116 213 34 416 152 491 509 477 6 310 
273 11 280 458 247 242 69 386 271 284 373 155 67 
274 11 493 259 159 33 70 403 435 2 121 495 376 
275 11 51 253 29 297 244 249 200 69 5 81 20 
276 11 131 167 203 393 313 282 350 199 404 364 72 
277 11 97 3 107 298 75 122 64 295 227 133 266 
278 11 52 65 479 117 207 306 166 389 380 103 260 
279 9 190 17 512 221 398 144 337 427 143 
280 11 458 273 247 242 271 386 373 69 284 155 4 
281 7 347 478 391 316 410 444 48 
282 11 167 393 404 257 276 364 131 203 294 88 218 
283 11 87 294 182 486 111 364 132 42 174 289 83 
284 11 155 373 280 458 273 69 249 288 228 247 271 
285 11 328 214 128 84 187 194 301 62 473 196 255 
286 11 57 301 187 240 7 390 328 124 285 216 141 
287 11 377 106 309 120 13 188 150 394 58 160 37 
288 11 228 27 181 249 105 202 155 284 262 29 69 
289 11 42 174 264 132 83 38 296 182 283 87 111 
290 11 251 77 94 442 73 305 303 158 236 209 233 
291 11 139 184 19 231 230 81 177 225 234 198 20 
292 11 509 152 248 158 246 213 95 258 116 170 233 
293 11 32 35 37 412 421 235 4 494 399 150 104 
294 11 364 486 87 203 131 283 313 111 282 182 276 
295 11 227 64 71 266 18 75 163 97 234 230 277 
296 11 38 264 83 289 174 42 132 182 283 87 111 
297 11 244 200 81 20 51 275 253 212 29 5 49 
298 11 122 277 3 97 107 75 220 64 133 100 232 
299 11 121 204 388 125 445 507 70 159 15 498 355 
300 3 269 68 148 
301 11 240 57 187 286 390 328 124 473 21 285 437 
302 11 12 472 467 104 93 426 179 210 406 415 106 
303 11 241 77 251 442 248 158 73 180 290 56 292 
304 7 482 405 55 449 85 400 115 
305 11 94 60 233 371 258 290 95 170 158 236 246 
306 11 207 479 52 278 65 40 117 513 166 380 389 
307 11 24 215 362 420 489 146 224 197 359 76 453 
308 11 118 265 225 5 44 244 81 113 58 112 253 
309 11 13 160 394 188 106 287 426 28 377 26 11 
310 9 477 416 468 491 488 34 361 176 344 
311 11 22 134 127 474 31 489 420 82 89 193 469 
312 5 326 336 345 126 417 
313 11 131 203 486 364 294 276 111 87 282 283 182 
314 11 189 133 211 100 41 3 10 107 145 220 277 
315 7 148 398 144 484 68 17 363 
316 6 444 391 410 48 327 494 
317 11 476 428 79 321 320 514 502 409 36 151 392 
318 7 45 441 471 454 382 455 508 
319 6 363 443 446 108 119 195 
320 11 36 428 514 392 476 502 317 79 321 335 483 
321 11 79 317 151 476 428 320 409 514 360 439 36 
322 8 358 15 448 424 9 388 498 407 
323 11 433 54 450 366 217 480 384 162 512 190 369 
324 6 14 74 430 464 6 461 
325 10 457 385 161 401 462 409 463 171 395 114 
326 8 345 312 336 501 126 475 261 419 
327 9 48 494 235 444 192 316 412 410 391 
328 11 285 187 473 301 196 124 255 21 240 214 390 
329 11 169 16 63 50 427 375 222 337 142 413 250 
330 11 417 126 419 261 336 165 372 504 475 326 345 
331 8 490 423 349 23 425 434 339 340 
332 9 361 488 176 53 109 201 447 341 470 
333 7 451 338 374 511 92 342 431 
334 11 192 98 48 327 444 386 316 235 271 494 412 
335 9 411 392 36 320 425 428 483 514 502 
336 9 417 126 312 326 419 345 261 330 475 
337 11 427 221 142 17 8 144 329 143 398 484 279 
338 8 374 333 451 511 342 92 456 431 
339 6 497 490 415 331 210 11 
340 10 434 23 349 425 423 331 11 335 411 490 
341 10 447 201 348 53 109 332 470 176 361 481 
342 11 92 465 80 374 496 338 431 333 451 136 135 
343 5 229 2 352 353 436 
344 5 402 485 468 491 34 
345 8 326 312 501 336 475 126 261 419 
346 11 367 429 464 129 6 59 14 123 191 102 74 
347 7 281 478 391 316 410 444 48 
348 9 201 341 447 481 470 53 109 176 332 
349 8 23 434 423 340 425 331 490 411 
350 11 199 218 72 185 505 88 115 368 208 276 400 
351 10 456 502 483 514 36 428 171 476 392 320 
352 10 2 436 343 157 440 229 438 70 493 110 
353 6 343 229 495 2 376 454 
354 7 162 370 45 366 508 318 382 
355 8 356 33 388 15 159 414 299 403 
356 8 355 414 250 33 422 403 435 375 
357 3 141 216 66 
358 11 322 15 498 9 388 448 407 424 21 437 255 
359 11 76 224 238 47 466 24 146 153 215 307 362 
360 11 439 28 151 26 79 321 394 317 320 263 476 
361 9 488 332 176 53 109 310 201 447 341 
362 10 215 24 307 197 224 453 489 359 76 487 
363 8 319 140 108 443 138 446 119 484 
364 11 294 203 131 486 313 87 282 283 276 167 111 
365 8 30 183 396 452 66 90 141 357 
366 10 450 369 433 162 508 323 54 382 354 45 
367 11 346 6 464 429 74 129 14 59 152 180 123 
368 11 208 185 115 400 408 449 406 350 199 72 405 
369 9 508 366 382 471 454 45 450 441 318 
370 6 354 455 45 318 506 471 
371 11 60 258 170 233 95 305 94 246 109 53 447 
372 8 330 499 261 419 126 417 475 165 
373 11 284 155 458 280 273 271 247 242 386 69 98 
374 9 338 333 451 342 92 511 431 456 465 
375 11 250 422 414 50 270 222 413 156 356 510 329 
376 9 495 143 435 403 259 353 8 274 493 
377 11 106 287 150 120 37 309 35 13 399 32 160 
378 9 219 169 222 413 50 511 431 451 16 
379 11 78 256 61 263 383 130 114 395 387 469 401 
380 10 166 389 117 103 260 65 43 237 239 267 
381 4 173 243 99 503 
382 8 471 454 45 508 318 441 369 455 
383 11 387 256 61 379 78 254 263 130 82 469 26 
384 9 480 54 267 433 162 323 450 217 354 
385 10 409 401 325 161 457 395 114 317 476 171 
386 11 242 247 271 98 4 280 458 273 334 67 192 
387 11 383 256 379 61 78 254 263 26 188 130 394 
388 10 15 498 358 299 322 445 355 9 204 121 
389 11 166 103 117 380 260 65 43 239 237 52 278 
390 11 124 437 21 240 473 9 255 301 407 196 57 
391 4 410 316 444 48 
392 11 36 320 514 502 483 428 335 411 476 317 351 
393 11 167 404 257 282 276 88 218 199 350 131 364 
394 11 188 26 28 439 360 309 151 263 13 321 79 
395 11 114 401 161 130 385 469 263 78 325 379 409 
396 4 183 452 365 30 
397 6 205 239 43 237 260 506 
398 11 144 484 17 221 142 315 427 279 140 148 337 
399 11 421 37 150 91 120 32 35 67 293 44 113 
400 11 115 55 505 85 72 368 449 185 208 405 304 
401 11 161 395 385 114 325 409 457 263 463 130 469 
402 6 344 485 468 34 491 461 
403 11 435 33 259 159 274 376 8 356 493 495 143 
404 11 257 393 167 88 282 218 199 276 350 268 30 
405 7 449 482 55 304 400 115 85 
406 8 179 408 467 93 208 368 185 104 
407 8 437 424 448 9 124 358 322 390 
408 11 185 268 93 368 406 208 467 199 218 88 350 
409 10 385 317 476 401 321 325 428 79 457 514 
410 4 391 316 444 48 
411 7 335 392 425 36 320 483 514 
412 8 235 494 327 48 444 192 316 293 
413 9 222 50 270 510 169 378 156 422 375 
414 9 250 422 375 356 156 270 510 50 355 
415 9 210 497 339 11 12 472 426 490 331 
416 11 477 491 116 310 34 213 468 272 485 402 344 
417 10 126 330 419 336 261 326 312 345 475 501 
418 5 503 506 243 99 455 
419 11 261 126 417 475 330 336 326 345 501 312 499 
420 11 146 307 489 24 311 463 215 362 469 82 134 
421 11 399 91 37 67 150 32 4 293 35 120 113 
422 10 375 414 250 270 156 50 510 413 222 356 
423 8 349 23 425 331 434 340 490 411 
424 5 448 407 437 322 9 
425 8 23 423 349 434 411 340 335 331 
426 11 160 11 13 12 415 210 472 302 309 106 340 
427 11 337 221 142 17 144 329 484 398 8 63 16 
428 11 476 514 320 317 502 36 79 392 321 351 483 
429 11 129 123 59 346 464 102 14 191 367 245 127 
430 5 453 191 197 14 324 
431 11 92 80 342 511 451 465 219 333 135 374 136 
432 10 480 217 513 267 384 54 460 323 172 433 
433 11 450 323 54 366 162 384 480 217 369 512 354 
434 10 340 23 349 425 423 331 335 411 490 11 
435 11 403 33 259 159 274 376 8 495 493 356 143 
436 10 157 440 352 438 2 110 343 229 70 175 
437 9 407 9 124 390 424 448 21 473 358 
438 7 440 157 436 352 229 2 343 
439 11 360 28 151 26 321 79 394 263 317 476 188 
440 9 157 436 438 352 2 229 343 110 175 
441 6 454 318 471 382 45 455 
442 11 251 73 77 303 241 290 145 158 10 248 56 
443 6 446 319 195 108 119 363 
444 7 316 48 410 391 327 494 235 
445 11 498 196 255 299 507 204 388 21 15 473 125 
446 7 443 195 319 119 108 500 363 
447 10 341 53 109 201 348 332 361 470 176 488 
448 6 424 407 322 437 9 358 
449 7 405 55 482 304 400 115 208 
450 10 433 323 366 54 162 369 384 512 508 480 
451 7 333 511 338 374 92 342 431 
452 4 396 183 365 30 
453 6 430 197 362 215 489 24 
454 7 441 471 382 318 45 508 455 
455 6 318 45 370 441 471 454 
456 9 351 483 502 514 171 36 392 374 428 
457 10 325 462 171 385 161 463 401 409 496 136 
458 11 280 273 247 242 271 373 386 69 284 155 4 
459 8 39 223 504 481 165 336 470 417 
460 11 172 492 217 432 190 206 480 54 323 512 433 
461 4 485 402 344 34 
462 10 171 457 496 136 325 465 80 135 342 385 
463 11 325 161 457 401 462 114 385 395 469 496 130 
464 11 14 59 191 346 429 367 129 6 324 123 430 
465 11 80 496 136 92 342 135 462 171 431 374 457 
466 11 153 500 119 108 195 138 47 224 76 238 487 
467 11 93 472 302 406 12 408 179 210 268 415 104 
468 8 344 402 485 491 34 310 477 416 
469 11 130 114 82 395 61 161 78 379 401 474 256 
470 7 201 481 176 348 332 341 53 
471 8 382 454 45 318 441 508 455 369 
472 10 12 210 302 467 415 93 426 11 497 339 
473 11 21 255 124 196 390 9 328 437 498 445 240 
474 11 82 134 22 469 130 61 311 256 78 254 379 
475 9 501 261 419 126 326 345 499 417 336 
476 11 317 428 514 320 502 79 321 36 409 392 351 
477 11 416 310 491 34 116 468 213 485 402 344 488 
478 8 281 347 48 316 391 334 444 410 
479 11 207 306 52 278 65 117 166 380 513 389 40 
480 10 384 54 217 432 323 267 433 450 162 513 
481 7 470 348 201 341 176 447 53 
482 7 304 405 449 55 85 400 115 
483 9 392 36 502 351 514 456 320 428 411 
484 11 144 398 142 140 221 17 427 363 315 337 148 
485 6 402 344 468 34 461 491 
486 11 203 294 313 364 111 131 87 283 182 276 282 
487 8 195 153 500 466 119 197 224 446 
488 8 361 332 176 53 310 109 201 470 
489 11 307 420 311 24 215 362 127 453 191 430 59 
490 6 331 339 423 349 497 23 
491 10 34 416 477 468 485 310 116 402 344 272 
492 11 172 206 460 68 86 432 217 269 40 252 315 
493 11 274 259 159 70 2 33 121 403 435 352 125 
494 8 235 412 327 444 48 316 192 410 
495 9 376 143 259 353 435 403 274 493 8 
496 10 465 136 462 80 171 135 342 92 457 374 
497 6 339 415 210 490 331 11 
498 11 358 15 388 445 9 255 21 196 322 473 299 
499 7 475 501 261 372 419 126 345 
500 11 153 119 466 108 195 138 47 487 224 446 238 
501 7 475 345 326 261 419 126 312 
502 10 514 36 428 320 476 392 351 483 317 456 
503 6 418 243 99 506 455 173 
504 10 165 330 417 223 336 126 459 419 261 39 
505 11 72 400 115 85 55 350 185 199 368 208 405 
506 6 418 503 370 455 99 243 
507 11 204 125 110 121 445 70 299 194 196 498 388 
508 9 382 369 471 45 454 318 366 441 162 
509 11 152 292 213 116 272 74 246 248 416 6 158 
510 7 270 156 413 422 222 50 414 
511 7 451 333 338 374 431 92 342 
512 9 190 279 450 323 433 366 54 369 217 
513 9 432 267 480 380 384 237 217 65 166 
514 11 502 36 428 320 476 392 317 483 351 79 321 
DEPOT_SECTION
   1
   -1
EOF
