NAME :  X-n749-kX-w74-c9.cctp
COMMENT : 	Adapted by Maziero, Usberti and Cavellucci from the Uchoa, Pecin, Pessoa, Poggi, Subramanian, and Vidal (2013)
TYPE :  CCTP
DIMENSION :    521
EDGE_WEIGHT_TYPE : 	EUC_2D	
CAPACITY : 	396
VERTICES_WITHIN_COVERAGE :  9
VERTICES_WITH_DEMAND : 	74
NODE_COORD_SECTION
1 643 512
2 707 407
3 394 355
4 140 470
5 364 215
6 493 857
7 117 466
8 462 38
9 551 479
10 545 460
11 423 274
12 440 602
13 525 357
14 574 994
15 387 377
16 583 424
17 16 481
18 615 427
19 511 799
20 110 518
21 223 506
22 163 520
23 834 419
24 442 482
25 42 547
26 478 421
27 372 108
28 320 252
29 731 372
30 341 234
31 787 331
32 433 254
33 555 397
34 640 350
35 565 185
36 320 196
37 64 374
38 283 411
39 46 582
40 328 453
41 779 448
42 602 152
43 466 934
44 280 317
45 403 425
46 482 80
47 504 575
48 649 348
49 388 331
50 518 731
51 550 364
52 745 421
53 384 205
54 236 226
55 602 498
56 670 80
57 380 177
58 135 333
59 594 841
60 189 250
61 682 470
62 515 19
63 311 39
64 398 363
65 217 615
66 530 879
67 410 679
68 382 240
69 146 456
70 543 339
71 316 436
72 397 382
73 507 783
74 436 314
75 88 469
76 158 431
77 722 341
78 470 876
79 82 446
80 220 551
81 534 495
82 502 5
83 411 463
84 338 218
85 282 593
86 457 514
87 321 215
88 642 783
89 265 503
90 113 541
91 523 805
92 722 444
93 310 484
94 519 392
95 240 338
96 603 451
97 759 337
98 297 386
99 402 351
100 472 108
101 580 538
102 695 410
103 104 462
104 404 98
105 114 450
106 756 305
107 86 489
108 557 516
109 44 553
110 618 456
111 404 261
112 460 908
113 633 383
114 331 210
115 570 378
116 514 367
117 175 505
118 586 552
119 386 95
120 734 396
121 93 530
122 791 501
123 417 932
124 389 341
125 479 232
126 378 185
127 447 23
128 665 479
129 527 14
130 517 904
131 441 419
132 325 83
133 766 356
134 337 208
135 62 529
136 620 439
137 426 246
138 772 362
139 486 62
140 418 385
141 650 348
142 271 262
143 411 558
144 646 356
145 696 414
146 373 318
147 424 669
148 37 391
149 527 551
150 467 76
151 47 399
152 519 673
153 177 563
154 694 337
155 123 536
156 451 780
157 379 160
158 545 767
159 109 240
160 512 821
161 398 332
162 604 453
163 446 505
164 662 382
165 98 478
166 619 86
167 440 331
168 313 75
169 378 124
170 345 109
171 140 505
172 369 214
173 471 938
174 295 494
175 406 535
176 507 9
177 337 217
178 557 465
179 694 200
180 143 453
181 488 429
182 68 566
183 594 723
184 397 360
185 671 843
186 801 435
187 142 482
188 6 644
189 515 950
190 367 377
191 147 488
192 339 119
193 108 87
194 605 490
195 575 507
196 532 463
197 115 540
198 202 497
199 48 487
200 5 557
201 98 491
202 468 325
203 128 283
204 542 852
205 327 183
206 689 497
207 643 790
208 87 460
209 595 425
210 358 159
211 719 414
212 577 932
213 487 810
214 456 549
215 419 419
216 220 574
217 396 468
218 527 214
219 458 24
220 527 678
221 91 444
222 634 503
223 355 117
224 149 516
225 121 467
226 365 233
227 564 673
228 643 335
229 368 64
230 448 908
231 470 869
232 305 267
233 469 868
234 582 349
235 727 340
236 735 436
237 460 476
238 461 906
239 498 36
240 304 429
241 479 327
242 604 443
243 558 409
244 371 88
245 513 866
246 388 135
247 277 459
248 412 274
249 537 411
250 603 794
251 371 214
252 98 529
253 476 2
254 404 102
255 415 273
256 578 488
257 404 330
258 512 538
259 654 46
260 14 285
261 501 824
262 526 585
263 664 331
264 560 452
265 398 275
266 388 344
267 148 546
268 419 366
269 37 552
270 510 758
271 154 358
272 588 23
273 317 496
274 610 553
275 101 531
276 597 86
277 779 374
278 118 357
279 458 252
280 496 396
281 235 313
282 725 432
283 492 69
284 358 258
285 289 187
286 313 208
287 297 425
288 443 516
289 543 458
290 797 465
291 513 45
292 564 201
293 435 16
294 537 509
295 364 62
296 709 500
297 539 440
298 179 201
299 492 865
300 429 5
301 667 984
302 265 491
303 541 338
304 399 351
305 100 480
306 327 163
307 173 106
308 327 276
309 386 214
310 79 687
311 516 484
312 773 468
313 244 603
314 45 401
315 390 262
316 489 973
317 114 522
318 293 326
319 393 348
320 177 517
321 643 781
322 514 33
323 662 863
324 254 350
325 402 378
326 710 395
327 388 325
328 256 400
329 207 297
330 800 371
331 574 924
332 509 86
333 455 472
334 31 603
335 120 491
336 141 450
337 468 101
338 268 677
339 85 472
340 387 214
341 426 270
342 381 324
343 457 865
344 562 354
345 567 453
346 403 427
347 523 918
348 389 370
349 453 486
350 573 379
351 191 580
352 423 683
353 319 275
354 612 413
355 459 44
356 683 490
357 786 466
358 596 138
359 473 859
360 381 210
361 127 314
362 716 359
363 384 243
364 93 482
365 760 471
366 194 604
367 768 315
368 421 623
369 55 365
370 508 407
371 399 120
372 729 403
373 197 490
374 492 445
375 146 443
376 384 384
377 617 237
378 609 513
379 449 444
380 808 393
381 670 376
382 777 492
383 146 551
384 360 508
385 94 660
386 473 382
387 434 322
388 170 460
389 354 262
390 301 175
391 717 388
392 123 484
393 843 415
394 69 466
395 796 452
396 413 237
397 821 294
398 396 325
399 272 191
400 419 258
401 391 760
402 515 18
403 637 988
404 876 412
405 327 110
406 90 512
407 630 373
408 680 354
409 224 510
410 564 151
411 528 173
412 474 967
413 135 481
414 453 24
415 516 867
416 562 814
417 418 933
418 511 480
419 551 776
420 725 450
421 469 558
422 101 446
423 43 517
424 567 415
425 399 115
426 99 504
427 209 156
428 570 935
429 664 488
430 479 56
431 649 209
432 387 178
433 80 463
434 360 169
435 298 260
436 287 721
437 382 315
438 659 867
439 322 258
440 205 652
441 616 354
442 218 21
443 529 714
444 828 384
445 630 396
446 374 408
447 477 75
448 43 364
449 404 366
450 526 74
451 83 360
452 459 934
453 196 555
454 682 409
455 409 376
456 476 39
457 531 448
458 566 402
459 133 461
460 469 68
461 302 430
462 380 411
463 89 524
464 544 311
465 429 219
466 539 887
467 498 861
468 451 15
469 445 659
470 400 240
471 298 186
472 250 655
473 534 558
474 456 479
475 506 804
476 296 419
477 466 505
478 388 190
479 577 164
480 417 375
481 784 347
482 435 53
483 393 173
484 520 751
485 644 335
486 453 44
487 215 464
488 416 198
489 491 848
490 261 548
491 334 468
492 558 308
493 535 942
494 446 325
495 624 371
496 271 71
497 364 389
498 468 103
499 217 249
500 550 410
501 96 395
502 543 380
503 30 452
504 357 65
505 358 152
506 577 491
507 718 433
508 232 501
509 346 235
510 49 567
511 765 305
512 529 87
513 130 452
514 490 841
515 592 865
516 283 390
517 323 281
518 533 53
519 400 325
520 150 462
521 395 247
DEMAND_SECTION
2 86
3 42
4 29
5 22
6 21
7 61
8 22
9 12
10 72
11 71
12 28
13 16
14 14
15 4
16 74
17 64
18 40
19 38
20 64
21 46
22 65
23 82
24 99
25 65
26 53
27 1
28 13
29 29
30 68
31 64
32 37
33 52
34 47
35 7
36 86
37 88
38 9
39 36
40 80
41 91
42 75
43 42
44 75
45 94
46 23
47 48
48 33
49 22
50 63
51 80
52 6
53 21
54 39
55 61
56 55
57 15
58 56
59 35
60 86
61 93
62 32
63 5
64 15
65 14
66 71
67 10
68 57
69 39
70 70
71 19
72 40
73 90
74 42
75 48
COVERAGE_SECTION
2 9 102 326 145 211 391 372 454 507 120 
3 9 184 304 319 64 99 266 124 449 348 
4 9 459 187 413 520 69 180 191 225 336 
5 9 172 251 226 360 53 309 340 84 177 
6 9 467 299 489 514 359 245 415 231 233 
7 8 225 103 105 459 392 513 165 305 
8 8 355 486 456 219 414 127 430 468 
9 9 178 10 289 81 196 256 264 506 345 
10 9 289 178 196 264 457 9 297 345 81 
11 9 341 255 248 400 32 111 265 137 315 
12 9 368 143 421 214 469 47 147 175 67 
13 9 116 70 303 51 502 94 344 280 33 
14 9 428 212 403 493 331 189 316 347 301 
15 9 348 376 72 325 64 184 190 449 455 
16 9 209 424 242 458 243 354 18 345 96 
17 4 503 199 423 394 
18 6 136 354 242 209 96 162 
19 6 475 91 73 160 213 261 
20 9 317 252 275 426 121 406 155 463 90 
21 9 409 508 198 373 89 487 80 302 320 
22 7 320 224 117 171 267 383 191 
23 9 393 444 186 380 404 395 290 330 41 
24 9 349 474 333 237 163 477 288 86 83 
25 8 109 269 510 135 423 182 39 200 
26 8 181 374 280 370 131 379 386 94 
27 9 169 119 223 244 170 425 371 246 254 
28 9 439 232 353 435 308 30 517 509 389 
29 9 362 391 120 326 372 77 235 133 2 
30 9 509 84 177 226 114 134 28 87 284 
31 9 481 367 97 133 138 511 106 330 277 
32 9 137 400 341 11 279 255 396 248 111 
33 9 243 458 500 502 424 249 115 350 51 
34 9 144 48 141 228 485 441 407 495 263 
35 7 292 479 410 411 218 42 358 
36 9 286 205 114 87 134 471 177 84 390 
37 7 369 448 451 151 148 314 501 
38 9 476 287 516 461 240 98 328 71 247 
39 7 510 334 182 109 269 25 200 
40 9 491 71 240 461 93 287 273 476 247 
41 9 395 357 312 290 186 365 52 382 236 
42 9 358 479 410 35 292 276 166 431 411 
43 8 173 452 112 238 230 412 316 417 
44 7 318 324 95 281 142 232 517 
45 7 346 215 462 446 131 83 72 
46 9 447 283 150 139 460 430 337 498 332 
47 6 262 149 473 258 421 214 
48 9 141 34 144 228 485 263 407 408 441 
49 9 327 124 161 342 398 266 519 257 437 
50 9 443 484 270 158 73 220 419 152 19 
51 9 344 502 115 13 70 350 303 33 234 
52 9 236 282 372 120 211 507 92 420 2 
53 9 360 309 340 251 478 172 126 5 432 
54 9 499 142 399 60 298 285 435 471 427 
55 8 194 378 256 506 195 222 110 162 
56 7 259 166 276 358 42 272 179 
57 9 432 126 483 478 157 434 53 210 360 
58 5 361 278 271 203 451 
59 4 515 416 250 204 
60 8 499 298 329 54 203 281 159 142 
61 4 128 356 429 206 
62 9 402 129 176 322 82 239 291 518 253 
63 8 168 132 496 504 295 229 405 244 
64 9 184 449 3 348 304 99 319 325 455 
65 9 366 313 440 216 351 472 80 453 153 
66 8 466 415 245 130 204 467 299 347 
67 9 352 147 469 368 12 401 152 156 220 
68 8 363 521 226 470 315 309 340 251 
69 7 180 520 336 375 459 4 513 
70 9 303 344 13 51 464 492 116 234 502 
71 8 240 461 40 287 476 491 38 247 
72 9 325 15 376 455 348 449 64 140 480 
73 9 19 475 270 91 213 484 160 158 261 
74 6 387 494 167 202 257 519 
75 9 339 208 433 165 364 305 103 394 107 
76 4 375 336 180 69 
77 8 235 362 154 29 97 408 133 391 
78 8 231 233 343 359 299 6 238 467 
79 6 221 208 433 422 75 394 
80 9 216 453 351 409 490 21 153 508 320 
81 5 294 311 9 418 108 
82 9 176 402 62 253 129 322 239 291 456 
83 9 217 24 346 45 379 215 333 349 474 
84 9 177 134 114 30 87 509 5 286 36 
85 8 313 490 216 65 472 80 338 366 
86 8 477 163 288 349 24 214 474 237 
87 9 114 286 177 84 134 36 30 509 205 
88 8 321 207 250 185 59 183 323 416 
89 9 302 174 508 21 409 490 247 93 273 
90 6 197 155 275 252 317 20 
91 5 19 475 160 73 261 
92 8 420 282 507 236 211 52 2 145 
93 9 273 174 491 40 247 302 71 89 240 
94 9 370 280 116 249 502 13 33 500 51 
95 5 324 281 44 329 318 
96 7 162 242 110 136 18 209 16 
97 9 133 367 481 138 31 106 235 511 77 
98 7 516 38 476 287 328 240 461 
99 8 304 3 319 184 64 449 124 266 
100 4 498 337 46 150 
101 7 118 195 108 274 378 55 506 
102 6 145 2 454 326 211 391 
103 9 7 105 422 75 165 208 225 305 339 
104 6 254 119 425 371 27 244 
105 6 422 7 103 513 225 459 
106 9 511 367 97 31 235 77 481 133 138 
107 8 364 201 165 305 339 75 426 406 
108 7 195 294 81 101 506 256 9 
109 7 25 269 510 182 39 135 423 
110 5 162 96 136 242 18 
111 9 315 248 265 400 255 521 470 11 341 
112 8 238 230 452 43 173 78 231 233 
113 9 407 445 495 164 144 34 441 354 48 
114 9 134 177 84 87 36 286 30 205 509 
115 8 350 33 51 458 344 502 234 243 
116 9 13 94 502 280 51 70 303 370 386 
117 6 320 22 373 198 224 191 
118 7 101 274 378 108 195 473 55 
119 6 244 104 27 254 425 371 
120 9 372 391 211 29 326 52 2 282 236 
121 5 252 463 275 406 20 
122 7 382 357 290 312 365 395 41 
123 6 417 230 452 43 112 238 
124 9 266 319 49 161 304 3 99 327 398 
125 2 279 32 
126 9 57 432 478 483 53 434 157 360 172 
127 9 414 468 219 293 8 486 355 300 482 
128 4 429 61 356 206 
129 9 62 402 176 322 82 291 239 518 253 
130 9 347 66 466 415 245 493 189 299 467 
131 7 215 379 26 45 346 140 181 
132 8 168 405 170 504 192 295 223 63 
133 9 138 97 481 277 31 330 29 367 235 
134 9 114 177 84 87 36 286 30 205 5 
135 3 423 25 463 
136 5 18 242 110 96 162 
137 9 32 400 396 341 111 465 470 11 255 
138 9 133 277 481 97 330 31 29 367 380 
139 9 283 430 447 46 460 150 456 239 291 
140 6 480 455 325 268 72 449 
141 9 48 144 34 485 228 263 408 407 381 
142 9 435 232 28 54 353 439 517 44 499 
143 9 175 214 12 288 421 86 163 368 384 
144 9 34 48 141 228 485 407 495 113 441 
145 6 102 2 454 211 326 507 
146 4 437 342 327 49 
147 9 352 67 469 368 12 152 401 220 143 
148 5 151 314 448 37 369 
149 5 473 258 47 262 294 
150 7 460 447 46 430 139 337 283 
151 5 314 148 37 369 448 
152 8 220 443 227 50 469 484 270 262 
153 9 453 351 383 267 216 366 22 80 320 
154 8 408 77 263 362 235 141 48 381 
155 7 197 90 317 20 275 252 267 
156 3 213 73 475 
157 8 57 483 432 210 434 505 126 246 
158 9 419 484 270 73 91 50 19 416 475 
159 9 203 361 298 60 58 260 499 329 278 
160 5 261 475 91 19 213 
161 8 257 398 519 49 327 124 266 319 
162 7 96 242 110 136 18 209 16 
163 9 288 86 349 477 24 474 237 333 214 
164 9 381 113 144 407 408 454 445 48 141 
165 9 305 364 75 201 339 107 103 208 7 
166 7 276 56 259 358 42 272 410 
167 4 494 387 74 202 
168 8 132 63 405 496 504 170 192 295 
169 8 246 27 371 425 223 119 254 505 
170 7 192 223 405 27 132 244 169 
171 8 224 191 187 335 413 22 392 317 
172 9 251 5 360 53 309 340 226 68 126 
173 8 43 452 412 112 238 230 316 189 
174 9 93 273 302 89 247 491 40 71 508 
175 9 143 288 163 214 384 86 24 421 477 
176 9 82 402 62 129 322 239 253 291 456 
177 9 84 114 134 87 30 509 286 5 36 
178 9 10 264 9 289 345 196 256 297 457 
179 5 431 377 42 358 56 
180 7 69 336 375 520 459 513 4 
181 9 26 374 370 280 379 457 94 131 386 
182 5 510 39 109 25 269 
183 7 227 158 443 419 250 50 321 
184 9 64 3 304 449 99 319 348 266 325 
185 7 323 438 207 88 321 59 515 
186 9 395 41 290 357 23 312 380 393 365 
187 9 413 191 4 392 520 171 459 335 69 
188 9 334 39 310 200 510 385 269 109 182 
189 9 493 347 316 412 130 173 43 428 452 
190 5 497 376 15 348 72 
191 8 187 413 171 4 392 520 335 224 
192 6 170 405 223 27 505 132 
193 8 307 427 442 298 159 496 60 54 
194 8 55 378 256 506 222 195 110 162 
195 9 506 256 108 55 101 194 378 9 294 
196 9 289 10 457 297 9 178 311 418 264 
197 7 90 155 275 317 252 20 121 
198 7 373 21 409 117 508 320 487 
199 5 394 423 17 107 503 
200 9 269 25 109 510 39 334 423 135 182 
201 9 364 305 107 165 426 335 406 339 75 
202 5 241 494 167 74 387 
203 8 361 159 58 60 278 271 329 451 
204 3 66 415 245 
205 8 36 306 114 134 390 286 471 87 
206 5 356 296 429 61 128 
207 8 88 321 250 185 59 323 438 183 
208 9 433 75 339 79 221 103 394 422 165 
209 9 16 18 242 354 96 136 162 424 458 
210 5 505 434 157 57 306 
211 9 2 372 282 507 326 120 145 102 391 
212 8 428 331 493 347 466 14 189 130 
213 6 261 475 19 160 514 73 
214 9 421 86 288 163 477 143 175 12 47 
215 7 45 346 131 140 379 462 72 
216 9 80 351 453 313 366 65 153 490 409 
217 9 83 346 45 24 215 384 379 333 462 
218 3 292 411 35 
219 9 414 127 468 8 355 486 456 293 253 
220 8 152 443 227 50 484 183 270 469 
221 7 79 422 208 103 433 105 75 
222 5 378 55 194 429 128 
223 6 170 192 27 169 405 244 
224 7 171 22 117 191 320 267 155 
225 8 7 459 392 513 103 105 4 413 
226 9 5 68 172 509 251 363 30 284 309 
227 6 220 152 443 183 50 484 
228 9 485 48 34 141 144 263 441 407 495 
229 5 295 504 244 119 27 
230 5 112 238 452 43 173 
231 8 233 78 359 343 299 6 467 489 
232 7 435 353 439 28 517 308 142 
233 8 231 78 359 343 299 6 467 489 
234 8 344 115 350 441 51 70 303 495 
235 8 77 362 29 97 154 133 106 367 
236 8 282 92 420 507 52 211 372 2 
237 8 474 333 349 24 477 163 379 86 
238 8 112 230 43 452 78 173 231 233 
239 9 322 291 456 62 402 176 430 139 82 
240 9 461 287 476 71 38 40 247 98 516 
241 5 202 494 167 74 387 
242 7 96 162 136 18 110 209 16 
243 9 500 424 458 33 249 16 115 502 350 
244 7 119 27 229 295 504 170 223 
245 9 415 467 66 299 6 489 204 466 514 
246 8 169 371 425 157 27 505 254 210 
247 9 302 461 174 287 240 93 476 71 89 
248 8 255 11 265 111 341 400 315 32 
249 9 500 243 33 94 297 370 424 458 502 
250 8 207 88 321 416 59 419 158 183 
251 9 172 5 360 309 53 340 226 68 478 
252 8 275 121 463 20 317 90 406 197 
253 9 82 219 468 176 414 127 456 8 239 
254 6 104 425 119 371 27 169 
255 9 248 11 341 111 400 265 32 315 137 
256 9 506 195 55 194 9 178 108 345 264 
257 6 161 519 398 49 327 124 
258 4 149 473 47 294 
259 7 56 166 272 276 358 42 518 
260 9 448 369 37 451 159 148 203 361 151 
261 7 160 213 514 475 489 19 91 
262 6 47 473 149 258 421 118 
263 8 485 228 141 48 408 34 144 154 
264 9 345 178 10 289 297 9 457 196 16 
265 6 248 111 315 255 11 400 
266 9 124 319 3 49 304 99 161 184 327 
267 7 383 155 22 224 153 197 90 
268 6 480 455 449 140 64 325 
269 8 25 109 510 39 200 135 182 423 
270 9 484 73 50 158 19 419 475 443 91 
271 2 58 278 
272 7 129 518 276 166 259 62 402 
273 9 93 174 491 40 384 89 302 247 71 
274 5 118 101 378 222 55 
275 8 252 121 463 20 90 317 197 406 
276 7 166 358 272 42 512 259 450 
277 9 138 330 133 481 380 97 31 29 120 
278 5 58 451 271 361 501 
279 6 32 125 137 341 400 11 
280 9 370 94 386 26 116 181 249 13 374 
281 6 95 329 324 44 318 142 
282 8 507 236 92 420 211 52 372 2 
283 9 139 46 447 430 460 332 150 291 239 
284 5 389 226 509 30 68 
285 9 471 390 399 36 286 205 87 306 114 
286 9 87 36 114 134 177 84 471 205 285 
287 9 476 461 240 38 71 516 98 247 40 
288 9 163 86 477 349 24 214 474 175 237 
289 9 10 196 178 457 264 297 9 345 311 
290 9 357 395 312 41 186 382 122 365 23 
291 9 322 239 518 62 402 139 283 450 129 
292 7 35 218 479 411 410 42 377 
293 9 300 127 468 414 219 486 8 355 482 
294 4 81 108 9 311 
295 6 229 504 244 119 132 27 
296 6 206 356 61 429 128 420 
297 9 457 289 10 196 264 249 178 345 500 
298 9 60 427 499 54 159 399 307 203 329 
299 9 467 6 489 359 245 231 233 415 514 
300 9 293 468 127 414 219 486 8 253 482 
301 6 403 14 212 428 331 438 
302 9 89 174 247 508 21 409 93 273 487 
303 9 70 13 344 464 51 492 116 234 502 
304 8 99 3 319 184 64 266 124 449 
305 9 165 364 201 75 107 339 103 7 335 
306 6 205 390 210 505 36 434 
307 7 427 193 298 442 496 399 54 
308 5 517 353 439 232 28 
309 9 340 360 53 251 172 5 478 68 226 
310 5 385 188 334 39 182 
311 5 418 81 196 294 9 
312 8 357 365 41 290 382 395 122 186 
313 9 65 216 85 366 472 80 351 490 440 
314 5 151 148 37 369 448 
315 7 111 265 521 363 68 470 248 
316 9 412 189 173 43 452 493 347 112 238 
317 9 20 275 155 252 197 90 121 426 463 
318 3 44 324 95 
319 9 266 3 304 124 99 184 64 161 49 
320 6 117 22 224 198 373 171 
321 8 88 207 250 185 183 59 323 416 
322 9 291 62 402 239 129 176 518 82 456 
323 7 438 185 515 59 207 88 321 
324 6 95 44 281 318 516 328 
325 9 72 455 449 15 348 480 64 140 184 
326 9 391 2 102 211 372 120 145 29 454 
327 9 49 342 398 161 437 519 124 146 257 
328 7 38 516 98 476 287 324 461 
329 7 281 499 60 95 324 142 44 
330 9 277 380 138 481 444 133 31 97 23 
331 8 212 428 493 347 466 130 515 66 
332 9 512 450 283 46 139 447 291 518 430 
333 9 237 474 349 24 379 163 477 86 83 
334 8 39 510 188 269 109 182 200 25 
335 9 392 413 201 305 171 187 225 7 426 
336 7 180 69 375 513 459 520 4 
337 4 498 100 46 150 
338 8 472 436 440 313 65 85 366 216 
339 9 75 433 208 364 165 107 305 394 103 
340 9 309 360 53 251 172 5 478 68 226 
341 9 11 255 400 248 32 111 137 265 396 
342 8 327 437 49 146 398 124 161 519 
343 6 233 231 78 359 299 6 
344 8 51 234 70 115 303 350 502 13 
345 9 264 178 10 289 9 297 16 96 196 
346 7 45 215 462 446 83 131 217 
347 9 130 493 189 466 66 428 331 415 245 
348 9 15 64 184 72 325 376 3 449 304 
349 9 474 24 237 333 163 477 86 288 379 
350 8 115 458 33 51 344 502 234 243 
351 9 153 366 453 216 80 65 383 267 313 
352 9 67 147 469 368 12 401 152 156 220 
353 6 517 308 232 439 28 435 
354 8 18 209 445 136 16 242 113 96 
355 7 486 8 456 219 414 430 127 
356 5 206 429 61 128 296 
357 9 290 312 395 41 365 382 186 122 236 
358 8 42 479 410 276 35 166 292 411 
359 9 231 233 78 343 6 299 489 467 514 
360 9 53 309 340 251 172 5 478 126 226 
361 6 58 203 278 271 451 159 
362 8 77 29 235 391 154 326 408 120 
363 8 68 521 470 315 226 111 309 340 
364 9 165 305 107 201 339 75 103 208 426 
365 8 312 357 382 41 290 395 420 122 
366 9 351 65 216 153 440 453 313 80 383 
367 9 511 106 97 31 481 133 138 235 77 
368 9 12 469 147 67 352 143 421 214 175 
369 7 448 37 451 148 151 314 501 
370 9 280 94 249 181 26 116 374 500 386 
371 7 425 246 254 169 104 119 27 
372 9 120 211 391 326 2 52 282 29 507 
373 5 198 117 21 487 320 
374 9 181 26 457 418 370 379 196 237 311 
375 7 336 180 69 76 513 520 459 
376 9 15 72 348 190 325 497 64 446 455 
377 4 431 292 35 479 
378 8 55 194 222 195 101 506 256 274 
379 9 131 333 237 474 26 24 215 83 181 
380 9 444 330 277 23 393 186 138 481 133 
381 9 164 408 144 141 48 454 113 34 407 
382 7 122 312 365 357 290 41 395 
383 7 267 155 153 197 90 22 224 
384 8 273 491 175 217 93 40 174 83 
385 5 310 334 188 39 182 
386 4 280 26 370 116 
387 4 74 167 494 257 
388 3 520 69 180 
389 4 284 509 308 30 
390 8 471 285 205 36 306 399 286 87 
391 9 326 120 372 2 29 211 362 102 145 
392 9 335 413 225 7 187 4 305 191 459 
393 9 23 404 444 380 186 395 330 290 41 
394 7 433 339 75 208 79 107 364 
395 9 290 41 357 186 312 365 382 122 23 
396 9 470 137 521 400 465 32 111 363 68 
397 9 31 367 511 481 106 97 330 133 138 
398 9 519 161 327 257 49 342 124 437 266 
399 8 285 471 390 286 36 54 87 205 
400 9 137 341 32 111 11 255 248 396 470 
401 3 156 67 352 
402 9 62 176 129 322 82 239 291 518 253 
403 7 301 14 212 428 331 493 438 
404 9 393 23 444 380 186 330 395 290 41 
405 6 192 170 132 223 168 27 
406 8 426 463 121 252 20 201 275 107 
407 9 495 113 144 445 441 34 48 141 164 
408 8 154 381 263 141 48 164 144 362 
409 9 21 508 198 373 80 89 302 487 320 
410 6 479 35 358 42 411 292 
411 3 35 218 410 
412 9 316 173 43 452 189 112 238 230 417 
413 9 187 4 392 191 335 225 459 7 520 
414 9 219 127 468 8 293 486 355 456 300 
415 9 245 66 467 299 6 204 466 489 130 
416 3 91 419 59 
417 6 123 230 452 43 112 238 
418 5 311 81 196 457 10 
419 8 158 91 416 484 73 270 19 475 
420 7 92 236 282 507 52 211 365 
421 8 214 47 86 258 288 12 477 143 
422 6 221 105 103 79 208 7 
423 4 135 25 199 109 
424 9 243 458 16 500 33 209 249 350 115 
425 7 371 254 104 169 246 119 27 
426 9 406 201 20 107 463 317 364 305 252 
427 7 298 307 399 54 285 499 390 
428 9 212 331 493 347 189 466 14 130 66 
429 4 128 356 61 206 
430 9 139 460 456 283 447 150 355 46 8 
431 6 377 179 42 292 479 35 
432 9 57 483 126 478 157 53 434 360 210 
433 9 208 75 339 394 79 221 165 364 103 
434 5 210 505 157 57 126 
435 7 232 28 439 353 142 308 517 
436 6 338 472 440 401 313 65 
437 7 146 342 327 49 398 519 161 
438 7 323 185 515 59 207 88 321 
439 8 28 353 232 308 517 435 30 389 
440 9 65 472 366 313 338 351 216 153 85 
441 8 495 34 407 144 228 48 113 234 
442 8 496 63 307 168 132 193 427 405 
443 9 50 220 484 152 270 227 158 183 419 
444 9 380 330 393 23 277 404 481 186 138 
445 8 113 407 354 495 18 164 144 136 
446 5 462 497 376 190 15 
447 8 46 150 460 139 283 430 337 498 
448 7 369 37 148 151 314 451 501 
449 9 64 184 455 325 3 99 268 304 348 
450 8 512 332 518 291 283 139 322 46 
451 5 37 369 278 501 448 
452 8 43 173 112 230 238 412 417 123 
453 9 153 80 351 216 320 22 267 366 383 
454 5 102 145 2 326 164 
455 9 325 480 449 72 140 268 64 184 348 
456 9 8 430 355 239 219 486 139 414 460 
457 9 297 196 289 10 264 178 345 9 249 
458 9 243 33 424 500 115 350 16 249 502 
459 8 513 4 180 225 69 336 7 520 
460 6 150 447 430 46 139 283 
461 9 240 287 476 71 38 40 247 98 516 
462 6 446 45 376 497 346 72 
463 6 121 252 406 275 20 426 
464 6 492 303 70 344 13 51 
465 9 396 488 137 32 470 400 340 309 279 
466 7 66 130 415 245 204 347 467 
467 9 6 299 489 245 415 514 359 231 233 
468 9 127 414 219 293 300 8 253 486 355 
469 9 147 352 67 368 12 152 220 443 47 
470 9 521 396 363 68 111 315 400 137 340 
471 9 285 390 36 399 286 205 87 306 114 
472 9 338 440 65 313 85 366 436 216 351 
473 7 149 262 258 47 108 294 101 
474 9 237 333 349 24 163 477 86 379 288 
475 6 19 91 160 213 73 261 
476 9 287 240 461 38 71 516 98 247 328 
477 8 86 163 349 288 474 237 24 333 
478 9 126 432 57 53 483 360 309 340 251 
479 7 410 35 42 358 292 411 218 
480 7 455 268 140 325 449 72 64 
481 9 31 138 133 97 277 330 367 511 106 
482 3 486 355 8 
483 8 432 57 478 126 157 53 434 488 
484 9 270 50 158 73 443 419 19 91 475 
485 9 228 48 141 34 263 144 441 407 408 
486 6 355 8 414 482 219 127 
487 4 373 198 508 21 
488 9 465 478 53 340 309 483 432 360 396 
489 9 514 6 467 299 359 261 245 231 233 
490 9 80 89 216 85 409 508 21 302 313 
491 9 40 93 273 71 174 384 240 461 287 
492 6 464 70 303 344 234 51 
493 9 189 347 428 130 212 331 316 466 66 
494 5 167 387 74 202 241 
495 8 407 113 441 34 445 144 48 141 
496 6 168 63 132 405 442 170 
497 4 190 376 446 15 
498 4 337 100 46 150 
499 8 60 54 329 142 298 281 399 435 
500 9 243 249 33 424 458 502 297 16 94 
501 2 451 37 
502 9 51 33 94 115 13 350 500 116 249 
503 3 17 199 394 
504 7 295 229 244 132 119 168 27 
505 5 210 434 157 57 306 
506 9 256 195 55 194 9 108 178 345 378 
507 8 282 92 236 420 211 2 145 52 
508 8 21 409 198 89 302 373 487 80 
509 9 30 84 226 177 284 5 134 389 114 
510 7 39 109 182 269 25 135 334 
511 9 106 367 97 31 481 133 235 77 138 
512 7 450 332 518 283 291 46 139 
513 6 459 336 180 69 105 225 
514 7 489 6 261 467 299 359 160 
515 6 59 204 466 416 331 66 
516 8 98 38 328 476 287 240 461 324 
517 5 308 353 232 439 28 
518 8 291 450 322 512 62 129 239 402 
519 8 398 257 161 327 49 124 342 437 
520 9 69 180 4 336 459 375 388 187 513 
521 8 470 363 68 315 111 396 400 265 
DEPOT_SECTION
   1
   -1
EOF
