NAME :  X-n701-kX-w140-c9.cctp
COMMENT : 	Adapted by Maziero, Usberti and Cavellucci from the Uchoa, Pecin, Pessoa, Poggi, Subramanian, and Vidal (2013)
TYPE :  CCTP
DIMENSION :    491
EDGE_WEIGHT_TYPE : 	EUC_2D	
CAPACITY : 	87
VERTICES_WITHIN_COVERAGE :  9
VERTICES_WITH_DEMAND : 	140
NODE_COORD_SECTION
1 0 0
2 878 606
3 35 593
4 320 125
5 189 244
6 274 784
7 900 310
8 742 640
9 800 448
10 57 755
11 522 327
12 528 268
13 461 328
14 325 726
15 788 496
16 626 660
17 720 744
18 3 417
19 32 306
20 65 233
21 827 442
22 347 566
23 545 389
24 452 670
25 236 564
26 439 425
27 69 17
28 468 416
29 103 137
30 689 261
31 300 603
32 378 187
33 790 584
34 336 860
35 386 199
36 522 461
37 356 214
38 947 18
39 431 1000
40 817 983
41 71 731
42 918 54
43 989 840
44 260 262
45 904 724
46 970 295
47 567 694
48 426 75
49 24 178
50 656 590
51 128 178
52 969 965
53 309 968
54 855 798
55 587 48
56 118 736
57 838 354
58 274 298
59 311 702
60 183 963
61 392 495
62 950 484
63 621 676
64 52 482
65 956 934
66 745 263
67 289 149
68 689 900
69 216 107
70 852 560
71 45 441
72 638 84
73 66 842
74 290 815
75 68 509
76 521 672
77 100 855
78 408 483
79 491 455
80 536 563
81 114 255
82 383 536
83 902 19
84 964 423
85 610 39
86 719 961
87 837 83
88 657 185
89 289 599
90 747 259
91 292 168
92 552 548
93 560 212
94 128 950
95 211 939
96 160 473
97 32 550
98 353 65
99 995 695
100 72 691
101 19 172
102 237 657
103 994 883
104 457 195
105 35 32
106 425 288
107 12 586
108 560 747
109 302 972
110 891 540
111 812 30
112 206 371
113 241 223
114 436 508
115 601 81
116 298 860
117 977 911
118 188 304
119 545 745
120 318 269
121 839 548
122 107 557
123 262 668
124 824 424
125 859 540
126 477 909
127 323 639
128 954 411
129 271 682
130 412 518
131 751 85
132 922 84
133 13 661
134 354 560
135 524 576
136 522 565
137 228 552
138 573 723
139 71 320
140 627 736
141 760 323
142 668 714
143 777 669
144 685 750
145 63 754
146 477 613
147 224 523
148 662 829
149 962 282
150 351 237
151 472 449
152 249 840
153 537 728
154 244 611
155 205 27
156 681 545
157 921 582
158 171 870
159 810 570
160 487 331
161 453 518
162 888 770
163 85 443
164 984 369
165 494 962
166 973 891
167 721 160
168 989 256
169 638 621
170 223 951
171 780 864
172 991 664
173 914 45
174 949 533
175 335 946
176 6 338
177 234 558
178 491 163
179 170 763
180 77 45
181 845 26
182 681 306
183 107 355
184 593 124
185 231 497
186 881 371
187 420 399
188 17 680
189 783 782
190 334 715
191 395 79
192 285 579
193 908 478
194 532 760
195 847 460
196 102 417
197 645 136
198 71 222
199 337 978
200 44 67
201 760 84
202 849 533
203 984 810
204 738 919
205 918 985
206 579 119
207 14 972
208 560 291
209 32 686
210 35 244
211 280 871
212 940 401
213 452 680
214 790 271
215 832 824
216 653 162
217 594 601
218 114 661
219 702 726
220 649 586
221 433 966
222 499 695
223 159 291
224 261 445
225 46 465
226 108 11
227 898 637
228 46 379
229 120 371
230 133 485
231 182 943
232 23 384
233 426 116
234 36 988
235 945 828
236 560 676
237 975 826
238 836 379
239 149 821
240 295 92
241 977 685
242 137 226
243 256 630
244 235 922
245 292 81
246 179 845
247 136 84
248 713 592
249 94 858
250 697 981
251 165 188
252 326 480
253 836 453
254 386 481
255 705 190
256 203 945
257 816 604
258 975 849
259 483 904
260 47 84
261 438 468
262 937 42
263 209 270
264 61 456
265 906 841
266 624 195
267 662 907
268 673 555
269 307 43
270 296 837
271 253 75
272 829 599
273 138 159
274 710 107
275 37 564
276 974 967
277 759 756
278 260 64
279 745 159
280 847 81
281 207 27
282 912 418
283 859 340
284 375 325
285 114 18
286 923 49
287 87 908
288 84 327
289 219 869
290 378 164
291 800 100
292 22 470
293 952 3
294 105 215
295 80 581
296 823 527
297 854 377
298 500 240
299 126 833
300 560 23
301 138 966
302 909 990
303 447 664
304 187 283
305 435 345
306 325 901
307 362 602
308 448 905
309 754 65
310 19 676
311 678 820
312 451 76
313 497 468
314 910 712
315 580 785
316 513 457
317 486 458
318 768 472
319 846 788
320 343 784
321 459 894
322 422 91
323 881 418
324 665 647
325 488 927
326 574 373
327 318 951
328 580 535
329 381 57
330 529 432
331 462 915
332 711 692
333 575 526
334 531 377
335 319 988
336 550 545
337 886 630
338 459 892
339 263 731
340 339 995
341 548 384
342 646 127
343 530 491
344 892 599
345 857 656
346 910 765
347 764 542
348 746 566
349 758 330
350 788 471
351 517 665
352 471 427
353 314 942
354 449 692
355 603 776
356 785 108
357 705 286
358 861 753
359 253 757
360 582 120
361 859 725
362 930 746
363 194 998
364 523 914
365 569 530
366 697 596
367 800 653
368 388 283
369 610 597
370 406 480
371 960 884
372 1000 655
373 891 715
374 375 465
375 881 810
376 476 502
377 314 80
378 372 452
379 796 503
380 980 890
381 821 409
382 528 455
383 714 162
384 436 399
385 441 504
386 677 307
387 979 797
388 691 762
389 322 213
390 600 75
391 458 506
392 368 879
393 782 605
394 700 177
395 553 57
396 535 162
397 779 427
398 584 169
399 485 490
400 538 432
401 423 126
402 649 580
403 561 303
404 316 878
405 476 920
406 966 709
407 482 907
408 426 613
409 319 189
410 696 579
411 561 392
412 549 403
413 498 309
414 697 697
415 509 466
416 276 695
417 383 737
418 566 572
419 854 859
420 855 780
421 534 381
422 782 608
423 911 584
424 794 421
425 930 603
426 465 430
427 925 589
428 903 700
429 86 841
430 549 796
431 447 81
432 839 490
433 542 792
434 313 985
435 760 439
436 552 70
437 851 771
438 583 543
439 897 704
440 929 716
441 542 495
442 261 63
443 434 996
444 788 856
445 506 537
446 462 553
447 302 731
448 532 555
449 534 722
450 548 215
451 352 885
452 415 527
453 896 713
454 540 259
455 839 438
456 365 542
457 481 887
458 502 470
459 319 886
460 439 0
461 927 975
462 864 824
463 550 29
464 542 469
465 667 751
466 364 868
467 790 67
468 491 754
469 320 938
470 389 659
471 333 868
472 762 894
473 834 595
474 430 114
475 522 548
476 812 478
477 509 877
478 540 734
479 473 879
480 520 472
481 965 697
482 484 966
483 632 71
484 864 521
485 878 724
486 246 855
487 669 545
488 591 551
489 803 761
490 889 884
491 517 469
DEMAND_SECTION
2 2
3 8
4 7
5 5
6 3
7 7
8 6
9 3
10 10
11 2
12 1
13 8
14 8
15 8
16 8
17 4
18 9
19 7
20 9
21 4
22 10
23 4
24 1
25 2
26 1
27 9
28 4
29 4
30 5
31 8
32 2
33 9
34 3
35 1
36 8
37 2
38 8
39 3
40 3
41 2
42 4
43 3
44 2
45 7
46 7
47 9
48 1
49 5
50 7
51 10
52 5
53 9
54 7
55 7
56 1
57 3
58 5
59 9
60 5
61 4
62 5
63 9
64 4
65 4
66 7
67 8
68 1
69 8
70 7
71 2
72 9
73 5
74 1
75 6
76 8
77 4
78 10
79 9
80 8
81 4
82 2
83 8
84 1
85 5
86 2
87 7
88 3
89 1
90 2
91 6
92 5
93 10
94 9
95 6
96 8
97 6
98 1
99 8
100 3
101 8
102 9
103 2
104 9
105 8
106 8
107 2
108 7
109 4
110 10
111 5
112 4
113 10
114 9
115 9
116 7
117 6
118 7
119 10
120 10
121 5
122 6
123 1
124 3
125 4
126 1
127 5
128 8
129 3
130 1
131 4
132 4
133 3
134 8
135 6
136 8
137 1
138 2
139 2
140 8
141 9
COVERAGE_SECTION
2 8 344 337 227 423 473 157 272 427 
3 9 107 275 97 295 133 122 310 188 75 
4 9 67 240 377 91 245 409 98 290 269 
5 9 263 304 242 113 223 118 251 44 81 
6 9 359 74 339 270 447 152 320 486 14 
7 9 283 186 149 46 57 297 238 212 164 
8 7 143 422 393 248 367 332 366 
9 9 350 21 424 397 476 124 253 318 455 
10 9 145 41 56 100 209 188 73 310 429 
11 8 413 160 403 334 208 421 12 13 
12 8 454 208 298 403 413 450 11 93 
13 9 160 305 413 106 11 384 187 334 284 
14 8 190 447 59 416 417 320 339 129 
15 8 379 350 476 318 296 9 432 347 
16 9 63 169 324 369 217 47 142 236 50 
17 9 219 388 144 277 414 332 465 142 189 
18 9 232 71 292 228 225 264 176 64 163 
19 9 139 176 288 210 228 232 20 183 198 
20 9 198 210 294 81 49 242 101 19 51 
21 9 455 253 124 195 9 381 424 476 350 
22 9 134 456 307 82 31 192 89 127 452 
23 8 341 421 412 411 334 326 400 330 
24 8 303 213 354 222 146 408 470 351 
25 9 177 137 147 154 192 89 185 243 31 
26 9 384 426 28 187 352 151 261 317 79 
27 9 180 105 226 285 200 260 247 29 155 
28 9 352 426 26 151 384 79 317 187 261 
29 9 273 51 247 260 294 251 49 101 198 
30 6 357 182 386 66 90 255 
31 9 89 192 127 243 154 22 307 134 25 
32 9 35 290 37 150 409 389 401 104 4 
33 9 393 159 422 257 272 473 348 347 121 
34 8 471 404 466 451 459 392 116 306 
35 9 32 37 290 150 389 409 104 401 368 
36 9 382 491 316 480 415 458 464 313 330 
37 9 150 35 389 32 409 290 120 368 91 
38 9 293 262 286 173 83 42 132 181 280 
39 4 443 221 482 165 
40 9 302 86 205 204 472 461 250 490 171 
41 9 145 10 100 56 209 188 310 218 133 
42 9 286 173 262 132 83 38 293 280 181 
43 9 258 237 203 103 387 235 380 166 371 
44 9 58 113 263 120 5 304 389 118 150 
45 8 314 453 373 439 428 440 485 362 
46 9 149 168 7 164 212 128 186 283 84 
47 9 236 138 449 153 478 76 108 119 63 
48 6 322 431 312 191 474 233 
49 9 101 198 210 20 29 294 260 51 200 
50 9 220 402 169 268 366 410 369 487 156 
51 9 273 251 294 29 242 198 81 20 5 
52 9 276 65 461 117 205 302 166 380 371 
53 9 109 434 327 335 353 199 469 175 340 
54 9 319 420 437 462 375 215 162 358 419 
55 9 85 390 395 115 300 436 463 483 72 
56 9 41 145 179 10 100 218 239 299 209 
57 8 238 283 297 186 381 124 7 323 
58 9 44 120 263 113 118 304 150 389 112 
59 9 190 14 447 416 129 339 123 127 359 
60 9 231 256 95 363 170 301 94 244 158 
61 9 254 78 370 130 374 452 82 114 378 
62 9 193 174 84 128 282 110 212 484 323 
63 9 16 324 47 169 140 142 236 138 414 
64 9 225 264 75 292 71 163 97 18 230 
65 9 117 52 276 166 371 380 461 103 205 
66 8 90 214 357 30 141 349 182 386 
67 9 91 4 409 240 245 389 377 271 69 
68 7 267 204 86 472 148 250 311 
69 9 271 278 442 240 245 155 281 247 67 
70 9 121 125 202 473 484 159 110 296 272 
71 9 264 225 292 163 64 18 232 196 228 
72 9 483 115 390 342 197 85 184 55 360 
73 9 429 249 77 299 287 239 10 145 158 
74 9 270 6 116 152 211 486 320 34 404 
75 9 64 225 264 97 292 122 275 163 230 
76 9 351 222 236 47 449 153 478 24 213 
77 9 249 429 299 73 287 239 158 246 94 
78 9 370 61 254 261 130 114 374 385 452 
79 9 317 313 458 151 415 316 491 36 352 
80 8 448 136 135 475 92 336 418 445 
81 9 242 294 20 198 223 5 51 139 288 
82 9 456 452 130 134 61 22 254 78 114 
83 9 173 286 42 262 38 293 181 132 280 
84 9 128 212 282 164 62 193 323 186 174 
85 9 55 390 483 115 300 72 395 463 436 
86 8 250 204 68 267 472 40 171 444 
87 9 280 291 467 181 356 111 201 132 309 
88 9 216 266 394 255 197 342 383 167 398 
89 9 31 192 243 154 127 25 22 177 307 
90 8 66 214 357 30 141 349 182 255 
91 9 67 409 4 389 113 240 37 290 245 
92 9 336 448 80 365 418 475 328 438 333 
93 9 450 398 454 396 12 266 298 208 178 
94 9 301 231 60 287 256 363 95 158 170 
95 9 256 170 231 244 60 363 289 301 158 
96 9 230 185 147 163 196 75 122 264 137 
97 9 275 107 3 75 295 64 122 292 225 
98 9 329 377 191 269 245 240 4 48 322 
99 5 241 481 172 406 372 
100 9 41 209 218 310 188 56 145 10 133 
101 9 49 198 210 20 29 260 294 200 51 
102 9 123 243 129 154 416 89 339 31 59 
103 9 380 166 117 371 258 43 237 65 203 
104 9 178 298 35 401 32 233 290 396 474 
105 9 200 27 180 260 226 285 247 29 101 
106 9 368 13 305 284 160 413 298 150 35 
107 9 3 275 97 295 133 310 188 75 122 
108 9 119 478 138 153 194 449 315 433 430 
109 9 53 434 335 327 353 199 469 175 340 
110 9 125 484 202 70 423 157 121 174 344 
111 9 181 467 87 280 309 291 201 131 356 
112 9 118 229 304 224 223 58 183 263 96 
113 9 44 5 263 91 304 58 389 251 409 
114 9 385 161 391 130 452 78 261 376 370 
115 9 390 483 55 72 85 360 184 206 436 
116 9 211 270 404 459 471 34 74 306 486 
117 9 166 380 65 371 103 52 276 258 43 
118 9 304 223 263 5 112 44 58 81 242 
119 9 478 108 153 194 449 138 433 430 315 
120 9 150 58 389 44 37 368 284 409 113 
121 9 70 202 125 296 159 484 473 272 110 
122 9 295 75 275 97 230 3 64 96 107 
123 9 129 102 416 243 59 154 339 127 89 
124 9 381 21 455 424 253 9 195 397 238 
125 9 202 484 70 121 110 296 432 159 473 
126 9 407 259 405 331 325 457 321 338 308 
127 9 31 89 307 59 129 123 243 470 192 
128 9 84 212 282 164 62 323 193 186 297 
129 9 416 123 102 59 339 243 447 127 14 
130 9 452 114 61 385 82 78 370 161 254 
131 9 201 309 356 467 274 291 279 167 111 
132 9 42 286 173 262 83 38 280 87 293 
133 9 310 188 209 100 3 107 41 275 218 
134 9 22 456 82 307 31 452 130 192 61 
135 8 136 80 448 475 92 336 418 445 
136 8 135 80 448 475 445 92 336 418 
137 9 177 25 147 185 154 192 89 243 31 
138 9 108 47 478 119 153 449 236 194 140 
139 9 288 19 183 228 176 229 81 232 210 
140 9 465 142 355 138 63 144 108 315 388 
141 4 349 214 66 90 
142 9 414 219 465 144 140 332 388 17 63 
143 6 367 8 422 393 332 257 
144 9 388 465 219 17 142 414 140 332 311 
145 9 10 41 56 100 209 188 73 310 429 
146 9 408 303 135 24 446 136 351 213 76 
147 9 185 137 177 25 96 192 224 154 230 
148 4 311 388 68 267 
149 9 46 168 7 164 283 186 212 128 84 
150 9 37 389 120 35 32 409 368 290 106 
151 9 317 79 426 352 313 28 458 261 26 
152 9 486 289 211 270 74 116 6 246 404 
153 9 449 478 119 108 194 138 47 222 468 
154 9 243 89 102 25 192 177 31 123 137 
155 8 281 278 442 271 69 247 285 226 
156 5 487 268 410 402 50 
157 9 427 423 425 344 2 110 174 337 227 
158 9 246 289 239 299 77 231 486 249 95 
159 9 33 257 272 473 121 70 296 393 422 
160 9 413 13 11 305 334 421 12 106 403 
161 7 391 385 114 376 446 452 130 
162 8 346 358 420 437 375 54 319 485 
163 9 264 196 71 225 64 230 75 292 228 
164 9 128 212 84 46 282 149 7 186 168 
165 9 482 325 405 126 364 407 331 259 221 
166 9 380 371 117 103 258 65 43 237 235 
167 9 383 279 394 255 274 216 88 197 131 
168 9 149 46 7 164 212 283 186 128 84 
169 9 50 220 324 369 16 402 217 63 366 
170 9 95 256 244 60 231 363 109 289 301 
171 9 444 472 215 204 419 189 462 68 54 
172 4 372 241 99 481 
173 9 42 286 262 83 132 38 293 181 280 
174 8 62 157 110 427 423 193 425 484 
175 5 469 327 353 199 53 
176 9 19 232 228 139 18 288 210 183 71 
177 9 25 137 147 154 192 185 89 243 31 
178 3 396 104 401 
179 9 56 239 246 299 359 339 41 6 145 
180 9 27 200 105 226 285 260 247 29 155 
181 9 111 280 83 87 467 173 42 286 291 
182 3 386 357 30 
183 9 229 288 139 196 228 223 232 19 163 
184 9 360 206 115 398 390 197 342 72 483 
185 9 147 137 224 177 25 96 252 192 230 
186 9 297 283 57 238 323 282 7 212 381 
187 9 384 26 28 426 305 352 261 151 378 
188 9 310 209 133 100 41 10 145 3 107 
189 8 489 277 319 215 437 420 17 54 
190 8 14 59 447 417 416 320 129 339 
191 9 329 322 48 98 233 474 431 401 312 
192 9 89 31 25 154 177 243 22 137 127 
193 9 62 282 484 110 195 323 174 432 253 
194 8 119 478 108 153 433 449 430 468 
195 9 253 455 21 432 476 124 9 323 381 
196 9 163 229 264 71 183 228 225 230 96 
197 9 342 216 88 72 184 266 360 483 206 
198 9 20 294 210 81 49 242 51 101 29 
199 6 340 335 434 53 175 327 
200 9 260 105 180 27 226 285 29 247 101 
201 9 131 309 467 356 291 274 111 279 87 
202 9 125 121 484 70 296 110 432 159 379 
203 5 387 237 43 258 235 
204 9 472 86 68 171 250 267 444 40 311 
205 9 302 461 52 276 65 117 40 490 166 
206 9 360 184 115 390 398 436 396 342 395 
207 9 234 287 94 301 249 73 77 429 60 
208 5 403 454 12 11 413 
209 9 188 310 133 100 41 10 145 218 3 
210 9 20 198 19 49 101 294 81 139 288 
211 9 116 404 270 486 459 152 471 306 34 
212 9 128 84 282 164 323 186 193 62 297 
213 7 24 354 303 222 470 351 76 
214 8 90 66 141 349 357 57 283 30 
215 9 462 54 319 419 420 375 444 437 189 
216 9 88 197 342 266 394 255 383 167 398 
217 9 369 418 169 488 220 402 438 50 16 
218 9 100 56 41 209 295 310 188 133 3 
219 9 17 144 414 332 142 388 465 277 140 
220 8 402 50 169 268 369 487 410 366 
221 5 443 39 482 331 165 
222 9 76 351 449 213 153 354 24 478 468 
223 9 304 118 263 5 81 242 183 288 229 
224 9 185 252 147 112 96 378 137 177 374 
225 9 264 64 71 292 163 75 18 196 232 
226 9 285 27 180 105 247 200 260 155 281 
227 3 337 2 344 
228 9 232 18 176 71 139 288 183 196 19 
229 9 183 196 288 139 228 163 112 223 118 
230 9 96 163 75 196 122 264 64 225 71 
231 9 60 256 95 170 301 94 363 244 158 
232 9 228 18 176 71 19 139 264 288 225 
233 7 474 401 322 48 431 312 191 
234 9 207 287 94 301 249 77 60 73 231 
235 6 237 258 265 203 43 387 
236 9 47 76 351 138 449 153 63 478 222 
237 6 203 43 258 387 235 103 
238 9 297 57 381 283 186 124 424 455 323 
239 9 299 246 158 77 179 249 429 289 73 
240 9 245 377 4 271 278 442 269 67 98 
241 5 481 99 172 406 372 
242 9 294 81 251 51 5 198 273 223 20 
243 9 154 102 123 89 31 129 192 127 416 
244 9 95 170 256 289 231 60 211 486 353 
245 9 240 377 278 442 271 269 4 98 67 
246 9 158 239 289 299 486 152 77 179 249 
247 9 29 285 180 273 226 69 155 260 281 
248 7 366 410 348 268 8 50 156 
249 9 77 429 73 299 287 239 158 246 94 
250 6 86 204 68 267 472 40 
251 9 51 273 242 5 294 29 81 113 263 
252 9 374 378 254 61 456 224 82 370 78 
253 9 195 21 455 124 476 9 432 381 350 
254 9 61 374 370 78 378 130 261 452 82 
255 9 394 383 167 88 279 216 30 90 197 
256 9 95 170 231 60 244 363 301 94 289 
257 8 272 473 33 393 422 159 367 70 
258 9 43 237 235 371 103 203 380 166 387 
259 9 407 126 405 457 325 331 321 338 479 
260 9 200 180 105 27 29 247 101 285 226 
261 9 78 370 385 151 114 26 391 426 317 
262 9 286 42 173 38 83 293 132 181 280 
263 9 304 5 118 44 223 113 58 242 251 
264 9 225 71 163 64 292 75 196 18 228 
265 6 375 235 462 490 419 54 
266 9 88 216 398 197 93 342 184 394 450 
267 4 68 204 148 86 
268 6 487 156 410 402 50 220 
269 8 377 245 240 442 98 278 271 329 
270 9 74 116 211 34 404 152 471 486 459 
271 8 278 442 245 240 69 377 269 281 
272 9 473 257 159 33 70 393 422 2 121 
273 9 51 251 29 294 242 247 198 69 5 
274 9 131 167 201 383 309 279 342 197 394 
275 9 97 3 107 295 75 122 64 292 225 
276 9 52 65 461 117 205 302 166 380 371 
277 7 189 17 489 219 388 144 332 
278 8 442 271 245 240 269 377 69 281 
279 9 167 383 394 255 274 356 131 201 291 
280 9 87 291 181 467 111 356 132 42 173 
281 8 155 278 442 271 69 247 285 226 
282 9 323 212 128 84 186 193 297 62 455 
283 9 57 297 186 238 7 381 323 124 282 
284 9 368 106 305 120 13 187 150 384 58 
285 9 226 27 180 247 105 200 155 281 260 
286 9 42 173 262 132 83 38 293 181 280 
287 9 249 77 94 429 73 301 299 158 234 
288 9 139 183 19 229 228 81 176 223 232 
289 9 486 152 246 158 244 211 95 256 116 
290 9 32 35 37 401 409 233 4 474 389 
291 9 356 467 87 201 131 280 309 111 279 
292 9 225 64 71 264 18 75 163 97 232 
293 9 38 262 83 286 173 42 132 181 280 
294 9 242 198 81 20 51 273 251 210 29 
295 9 122 275 3 97 107 75 218 64 133 
296 9 121 202 379 125 432 484 70 159 15 
297 9 238 57 186 283 381 323 124 455 21 
298 9 12 454 450 104 93 413 178 208 396 
299 9 239 77 249 429 246 158 73 179 287 
300 7 463 395 55 436 85 390 115 
301 9 94 60 231 363 256 287 95 170 158 
302 9 205 461 52 276 65 40 117 490 166 
303 8 24 213 354 408 470 146 222 351 
304 9 118 263 223 5 44 242 81 113 58 
305 9 13 160 384 187 106 284 413 28 368 
306 8 459 404 451 471 469 34 353 175 
307 9 22 134 127 456 31 470 408 82 89 
308 4 321 331 338 126 
309 9 131 201 467 356 291 274 111 87 279 
310 9 188 133 209 100 41 3 10 107 145 
311 5 148 388 144 465 68 
312 3 431 48 322 
313 9 458 415 79 317 316 491 480 399 36 
314 7 45 428 453 439 373 440 485 
315 6 355 430 433 108 119 194 
316 9 36 415 491 382 458 480 313 79 317 
317 9 79 313 151 458 415 316 399 491 352 
318 6 350 15 435 9 379 476 
319 9 420 54 437 358 215 462 375 162 489 
320 4 14 74 417 447 
321 7 338 308 331 479 126 457 259 
322 7 48 474 233 431 191 312 401 
323 9 282 186 455 297 195 124 253 21 238 
324 9 169 16 63 50 414 366 220 332 142 
325 9 405 126 407 259 331 165 364 482 457 
326 5 411 341 23 412 421 
327 8 353 469 175 53 109 199 434 335 
328 6 438 333 365 488 92 336 
329 9 191 98 48 322 431 377 312 233 269 
330 8 400 382 36 316 412 415 464 491 
331 8 405 126 308 321 407 338 259 325 
332 9 414 219 142 17 8 144 324 143 388 
333 6 365 328 438 488 336 92 
334 9 421 23 341 412 411 326 11 330 400 
335 7 434 199 340 53 109 327 175 
336 9 92 448 80 365 475 333 418 328 438 
337 4 227 2 344 345 
338 7 321 308 479 331 457 126 259 
339 9 359 416 447 129 6 59 14 123 190 
340 6 199 335 434 53 109 175 
341 7 23 421 411 334 412 326 400 
342 9 197 216 72 184 483 88 115 360 206 
343 7 441 480 464 491 36 415 458 
344 8 2 423 337 157 427 227 425 70 
345 4 337 227 2 367 
346 6 162 362 45 358 485 314 
347 5 348 33 379 15 159 
348 5 347 248 33 410 393 
349 2 141 214 
350 8 318 15 476 9 379 435 397 21 
351 9 76 222 236 47 449 24 146 153 213 
352 9 426 28 151 26 79 317 384 313 316 
353 7 469 327 175 53 109 306 199 
354 7 213 24 303 222 470 351 76 
355 7 315 140 108 430 138 433 119 
356 9 291 201 131 467 309 87 279 280 274 
357 6 30 182 386 66 90 141 
358 9 437 361 420 162 485 319 54 373 346 
359 9 339 6 447 416 74 129 14 59 152 
360 9 206 184 115 390 398 436 396 342 197 
361 7 485 358 373 453 439 45 437 
362 4 346 440 45 314 
363 9 60 256 170 231 95 301 94 244 109 
364 8 325 477 259 407 126 405 457 165 
365 7 333 328 438 336 92 488 418 
366 8 248 410 50 268 220 402 156 348 
367 7 143 422 393 257 345 8 272 
368 9 106 284 150 120 37 305 35 13 389 
369 8 217 169 220 402 50 488 418 438 
370 9 78 254 61 261 374 130 114 385 378 
371 8 166 380 117 103 258 65 43 235 
372 4 172 241 99 481 
373 8 453 439 45 485 314 428 361 440 
374 9 378 254 61 370 78 252 261 130 82 
375 8 462 54 265 420 162 319 437 215 
376 6 399 391 161 385 114 313 
377 9 240 245 269 98 4 278 442 271 329 
378 9 374 254 370 61 78 252 261 26 187 
379 9 15 476 350 296 318 432 347 9 202 
380 9 166 103 117 371 258 65 43 237 235 
381 9 124 424 21 238 455 9 253 297 397 
382 9 36 316 491 480 464 415 330 400 458 
383 9 167 394 255 279 274 88 216 197 342 
384 9 187 26 28 426 352 305 151 261 13 
385 8 114 391 161 130 376 452 261 78 
386 3 182 357 30 
387 4 203 237 43 235 
388 9 144 465 17 219 142 311 414 277 140 
389 9 409 37 150 91 120 32 35 67 290 
390 9 115 55 483 85 72 360 436 184 206 
391 7 161 385 376 114 399 261 446 
392 4 466 451 34 471 
393 9 422 33 257 159 272 367 8 348 473 
394 9 255 383 167 88 279 216 197 274 342 
395 6 436 463 55 300 390 115 
396 7 178 398 450 93 206 360 184 
397 5 424 435 9 124 350 
398 9 184 266 93 360 396 206 450 197 216 
399 7 376 313 458 391 317 415 79 
400 6 330 382 412 36 316 464 
401 7 233 474 322 48 431 191 312 
402 8 220 50 268 487 169 369 156 410 
403 5 208 11 12 454 413 
404 9 459 471 116 306 34 211 451 270 466 
405 9 126 325 407 331 259 321 308 338 457 
406 4 481 241 99 440 
407 9 259 126 405 457 325 331 321 338 479 
408 9 146 303 470 24 307 446 213 354 452 
409 9 389 91 37 67 150 32 4 290 35 
410 8 366 248 268 156 50 487 402 220 
411 6 341 23 412 326 421 334 
412 8 23 411 341 421 400 334 330 326 
413 9 160 11 13 12 403 208 454 298 305 
414 9 332 219 142 17 144 324 465 388 8 
415 9 458 491 316 313 480 36 79 382 317 
416 9 129 123 59 339 447 102 14 190 359 
417 2 190 14 
418 9 92 80 336 488 438 448 217 328 135 
419 8 462 215 490 265 375 54 444 319 
420 9 437 319 54 358 162 375 462 215 361 
421 8 334 23 341 412 411 326 330 400 
422 8 393 33 257 159 272 367 8 473 
423 8 157 427 344 425 2 110 337 227 
424 7 397 9 124 381 435 21 455 
425 7 427 157 423 344 227 2 337 
426 9 352 28 151 26 317 79 384 261 313 
427 7 157 423 425 344 2 227 337 
428 6 439 314 453 373 45 440 
429 9 249 73 77 299 239 287 145 158 10 
430 5 433 315 194 108 119 
431 4 312 48 322 474 
432 9 476 195 253 296 484 202 379 21 15 
433 6 430 194 315 119 108 478 
434 8 335 53 109 199 340 327 353 175 
435 4 397 318 424 9 
436 6 395 55 463 300 390 115 
437 9 420 319 358 54 162 361 375 489 485 
438 7 328 488 333 365 92 336 418 
439 7 428 453 373 314 45 485 440 
440 5 314 45 362 428 453 
441 6 343 464 480 491 36 382 
442 8 278 271 245 240 269 377 69 281 
443 5 39 221 482 165 331 
444 9 171 472 215 419 189 204 462 54 319 
445 5 475 136 448 80 135 
446 7 161 391 445 114 376 385 452 
447 9 14 59 190 339 416 359 129 6 320 
448 8 80 475 136 92 336 135 445 418 
449 9 153 478 119 108 194 138 47 222 76 
450 9 93 454 298 396 12 398 178 208 266 
451 6 392 466 471 34 306 459 
452 9 130 114 82 385 61 161 78 370 391 
453 8 373 439 45 314 428 485 440 361 
454 8 12 208 298 450 403 93 413 11 
455 9 21 253 124 195 381 9 323 424 476 
456 9 82 134 22 452 130 61 307 254 78 
457 7 479 259 407 126 321 338 477 
458 9 313 415 491 316 480 79 317 36 399 
459 9 404 306 471 34 116 451 211 466 392 
460 4 48 312 329 431 
461 9 205 302 52 276 65 117 166 371 490 
462 8 375 54 215 419 319 265 420 437 
463 6 300 395 436 55 85 390 
464 8 382 36 480 343 491 441 316 415 
465 9 144 388 142 140 219 17 414 355 311 
466 4 392 451 34 471 
467 9 201 291 309 356 111 131 87 280 181 
468 6 194 153 478 449 119 222 
469 6 353 327 175 53 306 109 
470 8 303 408 307 24 213 354 127 190 
471 8 34 404 459 451 466 306 116 392 
472 9 171 204 444 68 86 419 215 267 40 
473 9 272 257 159 70 2 33 121 393 422 
474 7 233 401 322 431 48 312 191 
475 7 448 136 445 80 135 336 92 
476 9 350 15 379 432 9 253 21 195 318 
477 6 457 479 259 364 407 126 
478 9 153 119 449 108 194 138 47 468 222 
479 6 457 338 321 259 407 126 
480 9 491 36 415 316 458 382 343 464 313 
481 4 406 241 99 440 
482 9 165 325 405 221 331 126 443 407 259 
483 9 72 390 115 85 55 342 184 197 360 
484 9 202 125 110 121 432 70 296 193 195 
485 8 373 361 453 45 439 314 358 428 
486 9 152 289 211 116 270 74 244 246 404 
487 6 268 156 402 410 220 50 
488 6 438 328 333 365 418 92 
489 7 189 277 437 319 420 358 54 
490 8 419 265 462 371 375 235 215 65 
491 9 480 36 415 316 458 382 313 464 343 
DEPOT_SECTION
   1
   -1
EOF
