NAME :  X-n716-kX-w143-c9.cctp
COMMENT : 	Adapted by Maziero, Usberti and Cavellucci from the Uchoa, Pecin, Pessoa, Poggi, Subramanian, and Vidal (2013)
TYPE :  CCTP
DIMENSION :    677
EDGE_WEIGHT_TYPE : 	EUC_2D	
CAPACITY : 	1007
VERTICES_WITHIN_COVERAGE :  9
VERTICES_WITH_DEMAND : 	143
NODE_COORD_SECTION
1 377 105
2 535 93
3 820 625
4 689 745
5 807 568
6 589 169
7 649 756
8 821 693
9 567 240
10 517 211
11 598 141
12 903 670
13 713 679
14 574 89
15 395 116
16 829 560
17 409 30
18 804 653
19 918 527
20 829 641
21 828 559
22 559 118
23 591 816
24 985 650
25 510 71
26 528 66
27 556 132
28 568 115
29 692 731
30 877 663
31 703 728
32 820 568
33 716 754
34 790 391
35 613 71
36 898 518
37 838 501
38 465 142
39 440 163
40 859 635
41 907 620
42 532 157
43 791 140
44 463 11
45 894 947
46 883 591
47 718 559
48 697 747
49 928 495
50 877 488
51 732 699
52 747 648
53 541 167
54 801 767
55 817 673
56 495 114
57 853 634
58 769 733
59 592 630
60 481 157
61 832 750
62 630 650
63 858 405
64 774 793
65 393 33
66 918 650
67 842 625
68 781 709
69 670 731
70 698 682
71 888 510
72 691 227
73 607 583
74 684 755
75 719 538
76 561 258
77 657 827
78 712 85
79 686 764
80 620 4
81 801 588
82 802 595
83 651 724
84 558 156
85 679 745
86 815 769
87 466 111
88 544 45
89 884 664
90 720 830
91 700 661
92 765 754
93 525 725
94 486 50
95 743 668
96 765 682
97 679 662
98 677 739
99 821 657
100 678 742
101 627 767
102 597 221
103 484 73
104 709 772
105 738 931
106 564 124
107 619 81
108 841 603
109 807 381
110 817 571
111 822 587
112 547 622
113 768 501
114 676 748
115 861 546
116 981 603
117 671 700
118 954 787
119 506 265
120 535 190
121 711 647
122 951 510
123 673 817
124 664 807
125 568 712
126 802 650
127 813 632
128 752 771
129 541 571
130 649 901
131 782 710
132 734 199
133 626 25
134 459 77
135 708 753
136 896 709
137 516 250
138 724 727
139 717 623
140 621 24
141 813 655
142 606 693
143 717 802
144 341 76
145 390 94
146 533 205
147 731 603
148 628 35
149 871 644
150 953 650
151 972 653
152 911 704
153 426 136
154 462 6
155 737 617
156 799 558
157 856 548
158 426 177
159 650 737
160 698 750
161 677 68
162 882 489
163 500 9
164 706 709
165 555 389
166 618 687
167 724 495
168 769 171
169 813 596
170 493 12
171 569 840
172 800 914
173 814 628
174 761 651
175 449 703
176 444 124
177 459 88
178 780 712
179 743 689
180 671 749
181 780 634
182 666 798
183 757 743
184 935 662
185 703 732
186 446 133
187 840 701
188 716 790
189 689 226
190 544 125
191 719 724
192 542 166
193 698 689
194 763 420
195 791 644
196 688 744
197 641 803
198 913 536
199 773 597
200 704 820
201 703 717
202 883 666
203 812 727
204 695 972
205 483 119
206 458 155
207 569 802
208 818 695
209 680 669
210 645 788
211 431 259
212 604 723
213 702 777
214 777 847
215 849 641
216 793 567
217 785 663
218 892 555
219 494 71
220 723 547
221 817 501
222 682 664
223 654 801
224 770 590
225 819 644
226 440 119
227 568 904
228 825 582
229 805 573
230 619 286
231 444 89
232 734 438
233 802 575
234 531 665
235 611 583
236 882 653
237 432 156
238 941 611
239 654 19
240 827 604
241 517 50
242 673 241
243 873 575
244 805 702
245 538 133
246 873 905
247 382 39
248 572 101
249 724 757
250 659 792
251 724 720
252 696 688
253 528 89
254 841 589
255 458 136
256 474 156
257 395 137
258 464 23
259 787 798
260 449 182
261 472 104
262 719 534
263 826 574
264 510 126
265 564 190
266 576 211
267 827 635
268 531 155
269 553 135
270 586 5
271 532 92
272 571 678
273 524 221
274 831 657
275 715 782
276 573 132
277 501 712
278 786 9
279 397 88
280 528 185
281 614 113
282 370 164
283 722 24
284 676 561
285 810 607
286 839 712
287 791 642
288 906 703
289 497 60
290 897 655
291 933 544
292 905 584
293 796 690
294 619 848
295 426 263
296 560 205
297 794 660
298 500 633
299 777 677
300 701 755
301 538 23
302 659 216
303 479 165
304 762 652
305 635 649
306 603 716
307 469 60
308 961 442
309 830 674
310 906 771
311 610 158
312 908 677
313 380 165
314 582 14
315 724 774
316 898 676
317 647 742
318 523 98
319 685 113
320 981 544
321 676 692
322 680 745
323 645 758
324 557 68
325 757 755
326 686 747
327 799 670
328 516 261
329 507 53
330 785 686
331 672 53
332 495 73
333 617 30
334 375 182
335 398 104
336 587 644
337 632 164
338 687 765
339 530 37
340 656 509
341 708 738
342 670 841
343 420 201
344 832 651
345 669 756
346 834 40
347 790 543
348 971 447
349 758 803
350 578 210
351 721 751
352 708 762
353 622 645
354 701 683
355 537 199
356 820 588
357 734 650
358 841 717
359 488 202
360 741 780
361 788 773
362 991 514
363 640 746
364 849 646
365 879 660
366 865 695
367 697 803
368 537 90
369 478 251
370 652 757
371 589 6
372 588 132
373 832 604
374 553 791
375 863 485
376 722 716
377 811 641
378 477 61
379 653 665
380 943 769
381 417 157
382 623 524
383 917 694
384 563 48
385 732 557
386 877 596
387 520 80
388 746 900
389 719 547
390 785 617
391 833 635
392 682 720
393 708 619
394 717 744
395 576 805
396 724 645
397 624 678
398 420 66
399 684 762
400 603 661
401 565 102
402 658 696
403 657 772
404 685 550
405 420 118
406 611 73
407 477 191
408 739 646
409 696 742
410 680 629
411 499 127
412 630 1
413 458 130
414 814 606
415 703 731
416 540 79
417 704 774
418 794 695
419 809 734
420 636 81
421 667 716
422 866 744
423 908 653
424 537 119
425 592 805
426 805 793
427 611 127
428 579 90
429 524 75
430 758 738
431 489 114
432 494 94
433 528 65
434 547 656
435 559 88
436 522 61
437 482 815
438 488 816
439 817 608
440 890 512
441 995 478
442 544 195
443 814 524
444 801 670
445 901 581
446 709 580
447 924 348
448 945 660
449 607 77
450 734 731
451 695 744
452 648 914
453 516 34
454 531 66
455 400 777
456 709 609
457 854 545
458 739 759
459 850 405
460 745 749
461 956 623
462 674 735
463 522 149
464 767 665
465 668 719
466 700 119
467 856 825
468 884 343
469 738 650
470 704 884
471 686 655
472 669 715
473 839 634
474 673 770
475 535 155
476 681 673
477 612 153
478 680 186
479 508 183
480 617 696
481 854 424
482 752 788
483 609 792
484 727 873
485 682 693
486 539 196
487 657 736
488 621 216
489 786 784
490 941 669
491 629 62
492 799 640
493 512 85
494 790 810
495 659 773
496 814 655
497 723 624
498 904 688
499 614 81
500 766 472
501 746 775
502 724 690
503 553 87
504 488 46
505 728 755
506 629 541
507 545 91
508 683 771
509 759 838
510 770 472
511 828 706
512 947 526
513 571 297
514 891 583
515 617 861
516 473 73
517 684 261
518 857 723
519 949 759
520 549 106
521 771 552
522 669 741
523 607 102
524 496 70
525 681 708
526 624 784
527 548 78
528 864 673
529 952 875
530 651 752
531 709 747
532 724 748
533 266 39
534 625 743
535 894 666
536 928 560
537 707 731
538 511 817
539 622 699
540 779 670
541 805 653
542 714 810
543 912 739
544 652 689
545 620 693
546 508 130
547 773 560
548 528 154
549 534 55
550 453 106
551 820 653
552 707 784
553 816 606
554 618 298
555 798 672
556 720 862
557 614 45
558 493 26
559 747 740
560 757 655
561 504 689
562 845 653
563 551 125
564 734 628
565 705 719
566 463 8
567 680 929
568 678 618
569 576 77
570 574 577
571 478 93
572 624 110
573 801 601
574 716 610
575 924 825
576 692 799
577 490 168
578 644 822
579 757 397
580 873 635
581 629 137
582 623 728
583 723 618
584 778 727
585 701 727
586 655 71
587 878 620
588 629 757
589 834 753
590 883 622
591 852 520
592 828 545
593 737 691
594 698 610
595 660 626
596 710 688
597 725 765
598 653 735
599 724 719
600 829 553
601 783 886
602 635 6
603 853 652
604 759 729
605 598 56
606 731 454
607 699 762
608 931 436
609 877 690
610 646 849
611 672 660
612 692 743
613 782 574
614 723 64
615 479 75
616 560 127
617 418 158
618 610 838
619 406 120
620 509 118
621 645 98
622 627 101
623 852 709
624 999 816
625 793 527
626 742 669
627 616 172
628 458 301
629 700 223
630 747 764
631 677 767
632 654 102
633 687 680
634 902 705
635 529 653
636 769 686
637 810 979
638 891 663
639 917 552
640 580 241
641 828 605
642 845 598
643 494 195
644 903 617
645 652 236
646 957 745
647 720 631
648 573 182
649 716 702
650 698 762
651 535 124
652 480 176
653 661 559
654 520 195
655 887 583
656 536 133
657 609 48
658 533 641
659 929 673
660 906 679
661 721 79
662 887 598
663 634 37
664 990 612
665 927 659
666 654 624
667 552 100
668 846 570
669 658 676
670 525 68
671 892 591
672 462 157
673 909 770
674 649 951
675 863 795
676 619 603
677 869 503
DEMAND_SECTION
2 47
3 21
4 19
5 37
6 40
7 79
8 60
9 88
10 84
11 75
12 12
13 42
14 21
15 91
16 6
17 57
18 7
19 66
20 7
21 99
22 75
23 4
24 85
25 10
26 29
27 6
28 20
29 7
30 50
31 26
32 29
33 99
34 45
35 57
36 14
37 33
38 2
39 38
40 43
41 64
42 85
43 84
44 46
45 53
46 45
47 48
48 48
49 85
50 60
51 2
52 17
53 12
54 99
55 43
56 40
57 29
58 13
59 29
60 26
61 66
62 45
63 34
64 33
65 6
66 72
67 34
68 16
69 36
70 69
71 10
72 10
73 12
74 97
75 87
76 24
77 57
78 17
79 86
80 76
81 81
82 30
83 10
84 36
85 28
86 41
87 53
88 7
89 40
90 46
91 28
92 28
93 62
94 51
95 30
96 98
97 53
98 5
99 15
100 27
101 37
102 68
103 11
104 14
105 71
106 97
107 49
108 50
109 43
110 65
111 19
112 42
113 88
114 96
115 57
116 65
117 36
118 28
119 50
120 38
121 84
122 8
123 69
124 29
125 86
126 99
127 29
128 78
129 79
130 23
131 68
132 50
133 26
134 26
135 57
136 10
137 84
138 64
139 35
140 27
141 3
142 18
143 63
144 100
COVERAGE_SECTION
2 9 271 368 253 507 318 416 667 503 520 
3 9 173 127 267 391 439 20 377 225 553 
4 9 196 326 612 451 48 409 322 85 160 
5 9 229 233 110 32 156 216 263 81 16 
6 9 648 311 627 477 11 265 84 372 276 
7 9 370 323 530 363 317 403 159 345 495 
8 9 208 511 244 55 187 309 293 286 418 
9 9 640 76 266 350 102 296 273 146 265 
10 9 273 654 146 355 486 120 280 643 479 
11 9 372 477 427 311 276 6 581 281 627 
12 9 316 312 660 535 638 290 423 498 89 
13 9 596 354 70 502 193 252 91 649 633 
14 9 428 248 569 435 401 503 667 28 324 
15 9 335 619 257 145 405 279 153 226 381 
16 9 21 600 32 263 592 110 668 228 5 
17 9 65 247 398 258 44 154 566 279 145 
18 9 541 126 141 496 297 377 492 195 551 
19 9 198 36 291 639 512 440 49 71 536 
20 9 267 391 225 344 473 551 274 3 99 
21 9 16 600 32 592 263 110 668 5 228 
22 9 106 28 616 563 27 520 190 401 269 
23 9 425 395 207 618 483 171 294 374 526 
24 9 151 150 664 461 448 116 490 184 238 
25 9 387 493 524 332 429 670 219 436 289 
26 9 433 454 670 436 429 549 387 416 25 
27 9 269 616 563 106 22 190 276 245 656 
28 9 22 106 401 616 248 276 563 27 520 
29 9 585 31 185 415 409 612 451 4 196 
30 9 365 89 202 236 638 528 535 149 290 
31 9 585 415 185 537 565 29 201 341 191 
32 9 110 263 16 21 5 228 229 600 111 
33 9 351 135 249 394 531 532 352 505 597 
34 9 109 579 194 459 63 481 232 510 500 
35 9 406 449 499 107 491 605 657 420 557 
36 9 440 71 19 198 162 677 50 218 49 
37 9 221 591 375 677 443 50 592 162 457 
38 9 255 413 206 672 256 186 60 303 176 
39 9 237 158 206 260 617 672 381 153 186 
40 9 57 215 580 149 364 603 67 473 562 
41 9 644 590 587 662 66 423 671 238 290 
42 8 268 475 548 53 192 463 656 245 
43 8 168 132 466 661 78 614 319 346 
44 9 566 154 258 170 558 163 504 94 307 
45 6 246 637 529 172 575 601 
46 8 386 662 655 671 514 243 445 292 
47 8 389 220 385 75 446 262 404 284 
48 9 160 451 409 612 4 196 300 326 531 
49 9 122 19 512 36 440 71 198 162 291 
50 9 162 375 677 71 440 36 37 591 49 
51 9 593 502 179 649 376 251 599 596 13 
52 9 408 469 560 357 174 304 95 626 396 
53 9 192 42 475 268 548 84 280 120 463 
54 9 86 361 489 426 259 419 61 589 64 
55 9 309 99 444 141 327 496 555 8 551 
56 9 431 205 411 620 264 432 546 261 571 
57 9 40 215 364 67 473 603 391 580 149 
58 9 584 604 430 183 92 559 178 325 131 
59 9 336 400 353 676 62 112 305 73 235 
60 9 256 303 577 652 672 38 206 255 407 
61 9 589 86 419 203 358 54 422 518 286 
62 9 305 353 379 397 400 666 595 669 166 
63 9 459 481 109 468 34 608 375 50 162 
64 9 259 489 349 482 494 361 128 426 501 
65 9 247 17 398 279 145 144 335 258 44 
66 9 423 665 184 290 12 659 312 448 535 
67 9 473 391 57 215 267 40 20 3 108 
68 9 131 178 584 418 330 293 244 636 58 
69 9 462 522 98 465 100 487 421 392 472 
70 9 354 252 193 633 596 13 476 485 91 
71 9 440 36 677 162 50 19 375 198 591 
72 8 189 629 242 302 517 645 478 132 
73 9 235 676 570 506 59 653 382 666 336 
74 9 399 326 79 338 4 85 114 322 196 
75 9 262 389 220 47 385 404 167 446 284 
76 9 9 640 513 328 137 266 350 102 273 
77 9 578 123 342 124 610 223 197 182 250 
78 9 661 614 466 161 319 331 586 632 283 
79 9 338 399 508 74 631 650 607 474 300 
80 9 412 602 140 133 333 371 148 270 663 
81 9 82 233 573 169 229 356 5 111 285 
82 9 573 81 169 285 414 553 356 233 439 
83 9 598 159 487 317 421 465 69 472 363 
84 9 192 53 269 475 27 42 268 276 616 
85 9 322 100 114 98 326 180 196 4 74 
86 9 54 61 589 426 361 489 419 259 203 
87 9 261 550 205 413 571 431 177 176 255 
88 9 549 339 384 301 454 26 324 433 241 
89 9 202 365 30 638 535 236 290 316 12 
90 9 200 542 143 556 367 188 509 576 484 
91 9 471 121 222 70 97 13 209 354 476 
92 9 325 183 430 58 128 460 630 559 458 
93 9 277 561 125 234 272 374 434 635 175 
94 9 504 378 289 307 329 219 524 103 332 
95 9 626 469 560 52 357 179 408 464 593 
96 9 636 299 464 540 330 179 95 626 217 
97 9 222 209 611 471 476 633 91 669 379 
98 9 100 462 85 322 522 114 69 180 196 
99 9 551 496 141 274 225 344 55 541 18 
100 9 85 98 322 114 462 326 522 180 196 
101 8 588 526 323 534 7 363 370 210 
102 9 350 266 488 640 9 296 265 648 76 
103 9 615 219 332 516 524 378 289 307 571 
104 9 417 213 352 275 552 607 315 650 597 
105 8 388 470 567 204 484 172 601 556 
106 9 616 22 28 27 276 563 269 190 401 
107 9 499 406 35 449 420 491 622 523 572 
108 9 642 373 641 240 254 67 111 439 553 
109 9 34 459 579 63 194 481 468 232 510 
110 9 32 263 5 229 228 16 21 233 111 
111 9 356 228 169 263 110 240 32 254 641 
112 9 658 434 635 59 234 336 298 129 570 
113 9 500 510 625 167 347 221 443 521 262 
114 9 85 180 322 100 98 326 522 74 345 
115 9 157 457 591 668 243 218 592 600 16 
116 9 664 461 238 24 151 150 320 448 536 
117 8 321 485 525 402 472 421 465 544 
118 9 380 519 646 575 673 310 624 543 529 
119 7 328 137 369 273 10 76 628 
120 9 486 280 355 442 146 654 53 192 10 
121 9 396 91 647 357 139 471 497 469 393 
122 9 512 49 19 291 362 320 198 36 441 
123 9 124 77 182 342 223 576 367 250 578 
124 9 182 223 123 250 77 197 578 210 576 
125 8 272 306 212 142 93 480 545 166 
126 9 18 541 492 141 195 297 377 496 287 
127 9 173 377 3 225 267 492 20 391 126 
128 9 501 630 360 325 482 458 92 460 183 
129 9 570 112 73 658 235 298 59 635 676 
130 9 452 567 674 515 610 470 294 342 77 
131 9 68 178 584 418 244 293 330 58 636 
132 8 629 168 72 189 478 242 302 517 
133 9 140 148 333 663 602 80 557 412 239 
134 9 177 516 231 307 615 378 103 571 261 
135 9 531 300 33 352 160 48 351 394 607 
136 9 634 288 152 498 383 609 660 316 312 
137 9 328 119 273 369 10 76 146 9 355 
138 9 191 251 599 376 450 537 394 341 31 
139 9 497 583 647 393 574 456 564 155 396 
140 9 133 333 148 663 80 557 602 412 657 
141 9 496 551 99 541 18 126 225 377 55 
142 8 480 166 545 539 306 397 212 400 
143 9 542 188 275 367 552 200 576 90 213 
144 9 145 247 279 335 15 65 619 398 257 
145 9 279 335 15 619 405 398 257 144 231 
146 9 355 486 120 442 654 10 273 280 296 
147 6 155 574 583 497 456 139 
148 9 663 133 333 140 557 657 491 602 239 
149 9 580 236 40 365 30 603 57 215 364 
150 9 448 151 184 490 461 665 24 659 66 
151 9 24 150 448 461 490 184 664 665 659 
152 8 288 634 383 136 498 660 312 316 
153 9 405 186 237 176 226 381 617 619 39 
154 9 566 44 258 170 558 163 504 94 307 
155 5 564 583 147 497 139 
156 9 216 5 229 233 347 110 32 613 547 
157 9 457 115 668 600 591 592 16 21 243 
158 8 39 617 237 381 260 343 206 153 
159 9 598 317 487 83 363 530 7 522 370 
160 9 48 300 451 409 612 4 135 531 196 
161 9 331 586 78 632 420 621 661 319 614 
162 9 50 375 677 71 440 36 591 37 49 
163 9 170 558 453 44 566 154 258 504 301 
164 8 201 565 649 376 31 585 191 251 
165 4 513 554 230 76 
166 9 545 480 397 142 539 400 306 544 62 
167 9 262 606 75 113 500 510 220 389 232 
168 8 43 132 466 629 478 72 189 319 
169 9 414 553 82 285 356 111 439 573 81 
170 9 163 558 44 566 258 154 453 504 94 
171 9 23 395 207 618 425 294 374 515 483 
172 6 601 388 105 637 214 246 
173 9 127 3 377 267 225 492 20 391 439 
174 9 304 560 52 464 408 469 95 181 540 
175 9 277 561 93 298 455 234 635 658 434 
176 9 226 186 413 255 550 153 405 87 38 
177 9 134 231 550 571 261 516 87 615 103 
178 9 68 131 584 418 58 330 244 293 604 
179 9 593 51 502 626 95 96 636 649 13 
180 9 114 345 522 85 100 322 98 74 462 
181 9 287 195 390 492 174 304 126 217 297 
182 9 124 250 223 123 210 197 495 576 403 
183 9 430 559 325 460 92 604 58 630 458 
184 9 490 665 448 659 66 150 423 312 12 
185 9 415 31 537 585 341 29 409 565 451 
186 9 176 255 413 226 153 38 206 237 550 
187 9 286 511 623 358 8 208 366 518 309 
188 9 275 552 143 315 104 213 417 542 367 
189 8 72 629 242 302 517 645 478 132 
190 9 563 424 651 245 656 269 27 616 22 
191 9 138 251 599 376 537 565 31 201 415 
192 9 53 42 475 268 548 84 280 120 463 
193 8 252 70 354 596 633 485 13 164 
194 9 579 232 34 606 500 510 109 113 167 
195 9 287 492 126 181 18 297 541 217 377 
196 9 4 326 612 451 322 409 48 85 100 
197 9 223 210 578 250 124 182 526 77 483 
198 8 19 639 291 36 218 536 440 512 
199 6 224 390 613 573 81 82 
200 9 542 367 90 143 576 123 188 552 275 
201 8 565 164 585 31 415 185 537 191 
202 9 89 30 365 638 535 236 290 316 12 
203 9 419 244 511 61 286 358 208 131 584 
204 9 567 674 105 452 130 388 470 484 556 
205 9 431 56 411 87 261 571 620 413 432 
206 9 672 38 256 255 39 60 303 186 413 
207 9 395 374 425 23 171 483 618 526 538 
208 9 8 244 511 55 187 293 309 418 286 
209 9 476 222 97 611 633 471 70 91 321 
210 9 250 197 223 403 495 526 182 124 101 
211 5 295 369 628 343 119 
212 6 306 582 534 142 480 539 
213 9 417 104 552 275 607 352 650 188 338 
214 7 509 494 601 349 259 64 484 
215 9 364 57 40 473 603 562 67 391 20 
216 9 156 233 229 613 5 547 81 110 347 
217 9 297 540 299 327 555 444 464 195 18 
218 7 639 198 243 445 514 655 115 
219 9 332 524 103 289 25 615 378 516 94 
220 9 389 75 47 385 262 446 404 521 284 
221 9 37 443 625 591 592 113 375 347 677 
222 9 97 209 476 471 611 633 91 70 354 
223 9 250 124 182 197 210 578 123 77 495 
224 7 199 613 547 81 390 82 216 
225 9 377 551 20 267 496 99 127 141 344 
226 9 176 186 550 405 413 153 255 87 231 
227 9 171 515 294 618 130 452 23 674 610 
228 9 111 263 356 110 32 254 169 16 229 
229 9 233 5 110 216 32 81 156 263 356 
230 8 554 513 640 645 76 9 102 242 
231 9 177 134 550 226 87 261 398 516 571 
232 8 606 194 500 579 510 167 113 34 
233 9 229 5 216 81 110 156 32 82 613 
234 9 635 434 658 561 272 298 112 277 93 
235 9 73 676 570 506 59 653 666 382 353 
236 9 365 30 89 202 638 149 290 535 580 
237 9 39 617 381 153 158 206 186 672 260 
238 9 461 41 644 116 150 66 292 448 664 
239 9 602 663 133 412 148 140 80 331 333 
240 9 641 373 439 553 414 108 169 285 356 
241 9 329 436 453 339 549 26 433 670 454 
242 9 189 645 72 517 302 629 478 488 230 
243 8 655 46 514 386 671 662 668 218 
244 9 418 208 293 8 511 131 68 203 330 
245 7 656 651 190 424 269 563 27 
246 5 45 172 467 529 601 
247 9 65 17 398 279 144 145 335 15 231 
248 9 401 14 428 28 435 667 22 106 503 
249 9 505 351 597 33 532 394 458 135 315 
250 9 182 223 210 124 495 403 197 474 123 
251 9 599 376 191 138 450 565 537 649 164 
252 8 193 70 354 633 596 485 13 321 
253 9 271 2 368 318 387 429 416 493 507 
254 9 642 108 228 373 111 668 240 263 356 
255 9 413 38 186 176 206 672 226 87 256 
256 9 60 303 672 206 38 577 652 255 413 
257 9 619 15 381 153 405 617 313 335 282 
258 9 44 566 154 558 170 504 94 307 163 
259 9 494 64 489 426 361 349 54 482 86 
260 8 39 158 206 672 407 237 652 303 
261 9 87 571 205 550 431 177 432 56 134 
262 9 75 389 220 47 385 404 167 446 284 
263 9 32 228 110 16 111 21 356 5 668 
264 7 546 620 411 56 431 651 463 
265 9 648 296 442 266 350 486 355 120 6 
266 9 350 296 102 265 648 9 640 442 486 
267 9 20 391 3 225 473 127 173 344 377 
268 8 42 548 475 463 53 192 245 656 
269 9 27 563 616 190 245 106 656 22 276 
270 4 371 314 80 140 
271 9 2 253 368 318 507 416 387 429 493 
272 9 434 125 400 142 336 234 166 480 635 
273 9 10 146 355 654 486 137 120 442 280 
274 9 344 99 551 562 20 309 496 141 225 
275 9 188 552 104 315 213 417 143 597 352 
276 9 106 616 372 27 28 22 269 563 11 
277 9 561 93 175 234 635 125 434 272 658 
278 9 346 283 614 661 78 331 161 43 239 
279 9 145 335 15 398 619 405 231 257 247 
280 9 120 654 486 355 442 479 146 53 192 
281 8 572 523 427 622 581 11 107 372 
282 9 313 334 257 381 617 15 158 619 343 
283 9 614 661 331 78 161 278 239 586 602 
284 9 404 653 446 47 389 75 220 262 506 
285 9 414 553 439 169 573 82 240 641 3 
286 9 358 187 511 623 518 8 208 203 366 
287 9 195 492 126 181 18 297 541 377 217 
288 9 634 152 136 383 498 660 312 316 609 
289 9 524 219 329 332 94 25 504 103 378 
290 9 638 423 535 236 12 89 202 365 316 
291 8 536 639 198 19 512 122 218 36 
292 7 445 514 671 655 46 662 386 
293 9 418 330 244 555 327 444 208 299 68 
294 9 515 618 610 578 23 77 197 171 342 
295 5 211 628 369 343 119 
296 9 265 266 350 442 486 355 648 146 120 
297 9 217 327 18 444 126 541 555 195 287 
298 9 658 635 234 112 434 561 129 277 272 
299 9 540 330 636 96 217 464 555 293 327 
300 9 160 135 607 650 48 352 531 451 409 
301 6 339 88 453 549 241 384 
302 8 645 242 189 72 478 488 629 517 
303 9 60 256 577 652 672 206 407 38 260 
304 9 174 560 464 52 408 469 95 181 217 
305 9 62 353 379 397 666 400 595 669 611 
306 7 212 142 582 480 539 545 166 
307 9 378 516 615 94 103 134 504 219 289 
308 9 348 608 441 49 122 362 512 162 19 
309 9 55 274 99 8 344 551 208 141 496 
310 9 673 543 380 519 422 675 118 575 646 
311 9 477 627 11 337 6 581 427 372 648 
312 9 660 12 316 498 535 383 659 638 423 
313 9 282 334 257 381 617 158 15 619 237 
314 4 270 371 333 80 
315 9 597 275 104 249 188 360 505 352 417 
316 9 12 660 312 535 498 638 89 202 290 
317 9 159 363 598 530 487 7 323 370 83 
318 8 253 271 2 368 493 387 429 507 
319 7 466 632 78 621 161 661 586 
320 9 362 512 122 291 536 116 639 19 441 
321 9 485 117 633 525 402 252 476 193 209 
322 9 85 100 114 326 98 196 4 180 74 
323 9 7 370 530 363 317 588 403 101 495 
324 9 527 503 416 435 384 569 88 454 507 
325 9 92 183 460 630 128 430 458 559 501 
326 9 4 196 322 85 612 74 100 451 114 
327 9 444 555 297 217 18 55 541 126 293 
328 8 119 137 369 273 76 10 9 146 
329 9 241 289 436 25 504 524 94 453 219 
330 9 293 299 418 636 540 555 96 327 68 
331 9 161 586 239 663 491 420 148 78 614 
332 9 219 524 103 289 25 615 432 493 378 
333 9 140 133 148 557 663 657 80 602 412 
334 9 313 282 257 343 381 617 158 237 39 
335 9 15 145 279 619 405 257 153 398 226 
336 9 59 400 353 272 434 62 112 305 397 
337 7 627 311 477 581 11 6 427 
338 9 79 399 508 74 631 650 607 474 300 
339 9 453 88 301 241 549 436 329 433 26 
340 7 382 506 404 653 284 262 75 
341 9 537 185 415 531 31 394 409 585 48 
342 9 77 123 610 578 124 200 182 223 367 
343 7 158 260 39 617 381 237 334 
344 9 274 20 551 99 562 225 391 267 364 
345 9 180 114 631 74 85 474 522 322 399 
346 9 278 43 283 614 661 78 168 466 161 
347 9 625 156 521 216 547 5 443 613 229 
348 9 308 441 608 49 122 362 512 19 162 
349 9 482 64 259 360 501 128 494 489 509 
350 9 266 296 102 265 648 640 9 442 486 
351 9 532 33 249 394 505 135 531 597 352 
352 9 135 607 104 300 650 33 417 531 160 
353 9 62 305 400 397 59 336 379 666 166 
354 9 70 193 252 596 13 633 485 91 476 
355 9 486 146 442 120 280 654 10 296 273 
356 9 111 228 169 263 110 240 553 81 82 
357 9 469 408 396 52 95 626 564 121 560 
358 9 286 623 187 511 518 8 203 208 366 
359 8 643 407 652 479 10 654 577 303 
360 9 501 128 482 630 315 458 597 275 188 
361 9 489 54 64 259 426 86 92 128 325 
362 9 320 441 122 512 291 49 348 19 308 
363 8 317 7 159 323 530 534 370 588 
364 9 215 603 562 57 40 473 344 391 20 
365 9 30 89 202 236 638 535 149 290 528 
366 9 609 623 528 187 518 286 358 30 136 
367 9 576 200 542 143 552 188 213 123 275 
368 9 2 271 507 253 416 318 503 527 667 
369 6 119 137 328 211 359 295 
370 9 7 530 323 317 363 403 345 495 159 
371 4 270 314 80 140 
372 9 11 276 427 106 28 616 22 27 281 
373 9 641 240 108 642 439 553 254 414 111 
374 9 207 395 425 23 538 171 483 438 526 
375 9 50 162 677 37 71 591 440 36 221 
376 9 251 599 191 138 649 164 565 201 450 
377 9 127 225 492 126 173 541 18 141 496 
378 9 307 516 94 103 615 504 219 289 524 
379 9 669 611 305 544 97 62 209 222 476 
380 8 519 118 646 673 310 543 575 152 
381 9 617 237 158 153 39 257 186 313 405 
382 7 506 340 653 235 73 284 404 
383 8 152 288 498 312 634 660 659 136 
384 7 88 324 549 569 527 301 339 
385 8 220 47 389 75 262 446 521 547 
386 9 46 662 655 671 514 243 587 590 445 
387 9 429 493 253 25 670 26 271 433 318 
388 8 105 484 601 470 556 172 214 509 
389 9 220 75 47 262 385 404 446 284 167 
390 8 181 199 573 287 285 492 82 195 
391 9 267 473 20 67 3 344 215 225 364 
392 8 525 465 472 29 69 421 462 98 
393 9 139 456 574 594 583 497 647 121 147 
394 9 351 532 531 33 341 135 249 505 537 
395 9 207 425 23 374 483 171 618 526 294 
396 9 357 121 408 469 647 564 497 52 139 
397 9 166 545 480 539 142 400 62 544 305 
398 9 279 231 17 134 145 65 335 177 247 
399 9 79 338 74 508 631 474 650 326 607 
400 9 336 353 397 62 166 142 59 305 272 
401 9 248 28 667 435 14 520 22 428 503 
402 9 544 117 321 669 421 472 485 465 525 
403 9 495 370 474 7 323 210 250 345 530 
404 9 284 653 47 389 75 220 262 446 385 
405 9 619 153 226 15 176 335 186 257 550 
406 9 35 449 499 107 491 605 657 420 557 
407 8 652 359 643 303 577 260 479 60 
408 9 469 357 52 396 564 560 95 174 626 
409 9 451 612 48 4 160 196 326 29 185 
410 8 568 595 594 666 471 393 611 97 
411 7 546 264 620 56 431 205 463 
412 9 602 80 133 140 239 333 148 663 371 
413 9 255 186 38 176 87 226 206 550 205 
414 9 553 285 439 169 240 573 641 82 373 
415 9 185 31 537 585 341 29 565 409 201 
416 9 527 368 507 2 271 503 253 429 454 
417 9 213 104 552 352 607 650 275 300 338 
418 9 293 244 330 68 131 178 555 208 299 
419 9 203 61 589 244 584 54 511 86 131 
420 9 107 621 491 586 499 622 35 406 632 
421 9 472 465 69 117 392 525 83 462 402 
422 9 518 589 61 358 623 286 136 543 310 
423 9 66 290 12 535 638 665 312 316 89 
424 7 651 190 245 656 563 520 22 
425 9 23 395 483 207 526 618 374 171 197 
426 8 259 489 494 54 86 361 64 349 
427 8 281 11 572 581 372 523 477 311 
428 9 14 248 569 401 435 503 28 667 523 
429 9 387 670 26 433 454 436 25 253 416 
430 9 183 604 559 58 92 325 460 584 450 
431 9 56 205 411 261 620 432 87 264 571 
432 9 571 56 493 332 431 103 219 261 524 
433 9 26 454 670 436 429 549 387 416 25 
434 9 234 635 658 272 112 336 59 298 561 
435 9 503 507 667 14 401 527 248 324 428 
436 9 433 26 670 454 241 549 429 25 329 
437 9 438 538 374 207 455 171 395 93 277 
438 9 437 538 374 207 171 395 455 93 23 
439 9 553 414 285 240 641 169 373 3 573 
440 9 71 36 677 162 50 19 198 375 591 
441 9 362 348 308 122 320 512 49 608 19 
442 9 486 355 120 146 280 296 265 654 53 
443 9 625 221 592 347 37 600 156 21 591 
444 9 327 555 297 55 18 217 541 141 126 
445 7 292 514 671 655 46 662 218 
446 8 47 456 574 147 594 385 389 220 
447 9 468 63 608 459 308 481 348 109 34 
448 8 184 490 150 665 659 151 66 423 
449 9 406 35 499 107 605 523 491 420 657 
450 9 138 251 559 599 191 376 532 394 460 
451 9 409 612 48 4 160 196 326 29 300 
452 9 130 567 674 515 470 610 294 204 342 
453 9 339 241 329 558 301 436 549 88 163 
454 9 26 433 670 436 429 549 416 387 241 
455 8 175 437 438 538 277 93 561 374 
456 8 574 393 594 139 583 497 147 647 
457 9 157 115 591 592 600 668 16 21 243 
458 9 630 460 505 249 597 501 128 325 532 
459 9 63 481 109 34 468 375 50 608 194 
460 9 559 458 183 325 630 430 505 92 450 
461 9 238 150 116 151 664 448 24 184 665 
462 9 98 69 100 522 85 322 114 180 196 
463 8 548 268 42 475 656 245 546 53 
464 9 540 304 560 174 299 96 217 636 95 
465 9 421 472 69 392 462 525 83 117 487 
466 8 319 78 661 632 161 621 614 586 
467 5 675 426 494 575 86 
468 9 447 63 459 109 481 608 34 308 348 
469 9 357 408 52 396 95 626 560 564 174 
470 9 484 556 388 567 342 90 105 130 200 
471 9 97 222 91 209 611 476 633 121 410 
472 9 421 465 392 525 117 69 83 462 402 
473 9 391 67 20 215 267 57 364 344 40 
474 9 631 508 79 399 495 338 345 403 74 
475 9 42 268 548 53 192 463 245 656 84 
476 9 209 222 633 97 611 70 471 321 485 
477 9 311 11 627 337 581 427 6 372 281 
478 8 302 189 72 629 337 242 132 645 
479 9 654 643 280 577 120 359 10 652 407 
480 8 545 539 166 142 397 306 212 582 
481 9 63 459 375 109 50 162 34 608 37 
482 9 360 501 349 128 64 630 315 458 325 
483 9 526 425 23 101 197 395 210 588 207 
484 8 556 470 388 90 509 214 601 200 
485 8 321 117 633 252 525 193 70 476 
486 9 355 442 120 146 280 654 296 265 10 
487 9 598 159 317 83 522 69 462 530 180 
488 9 102 645 302 350 627 266 640 337 6 
489 9 361 259 64 426 54 494 86 349 482 
490 8 184 448 659 665 150 66 312 151 
491 9 35 420 107 406 557 499 657 663 148 
492 9 287 195 126 377 18 541 127 173 181 
493 9 387 25 253 429 318 432 271 332 670 
494 8 259 64 426 489 349 361 214 509 
495 9 403 474 370 250 631 7 345 210 323 
496 9 141 551 99 541 18 225 126 377 274 
497 9 139 583 647 564 155 393 574 396 456 
498 9 660 312 316 383 288 152 634 12 136 
499 9 107 449 406 35 420 523 491 622 605 
500 9 510 113 606 232 167 194 221 625 443 
501 9 128 360 630 482 458 315 325 597 460 
502 9 51 593 596 649 13 179 354 164 193 
503 9 435 507 527 667 416 368 2 324 401 
504 9 94 289 378 329 558 307 524 219 103 
505 9 249 351 532 597 33 458 394 460 315 
506 7 382 653 340 235 73 284 404 
507 9 368 503 2 667 271 416 527 435 520 
508 9 338 631 79 399 474 74 650 607 213 
509 8 214 349 90 494 556 64 484 259 
510 9 500 113 606 232 167 194 221 625 443 
511 9 187 286 8 208 358 244 623 203 309 
512 9 122 291 19 198 49 320 536 639 362 
513 9 76 554 230 9 640 328 119 137 102 
514 8 655 671 445 46 292 662 386 243 
515 9 294 618 610 578 130 23 77 171 342 
516 9 615 103 378 307 134 177 219 571 332 
517 9 242 72 189 629 645 302 230 478 554 
518 9 623 358 286 422 187 366 511 61 589 
519 8 380 646 118 673 543 310 152 288 
520 9 667 22 401 507 424 2 503 563 190 
521 9 547 347 613 216 156 625 224 5 233 
522 9 98 180 462 100 69 114 85 322 487 
523 8 281 572 622 499 107 427 449 406 
524 9 219 332 289 103 25 615 329 378 94 
525 8 392 117 472 485 421 321 465 201 
526 9 101 483 210 197 588 323 223 403 250 
527 9 416 503 324 507 435 368 2 271 454 
528 9 30 202 365 609 89 366 603 236 562 
529 7 575 624 246 118 45 380 467 
530 9 7 370 323 317 363 159 487 598 345 
531 9 135 341 394 33 160 300 48 351 409 
532 9 351 394 505 249 33 531 135 597 341 
533 9 144 247 65 145 279 17 335 15 398 
534 6 363 582 588 317 101 323 
535 9 638 12 89 202 290 316 365 30 236 
536 7 639 291 198 292 19 445 218 
537 9 185 415 31 341 585 565 191 29 201 
538 9 438 437 374 207 171 395 23 425 93 
539 8 480 545 166 142 397 306 582 212 
540 9 299 217 464 330 96 297 555 636 327 
541 9 18 126 141 496 297 377 492 551 99 
542 9 143 200 367 188 90 576 552 275 213 
543 9 673 310 136 152 634 288 519 380 383 
544 9 402 669 117 321 379 397 485 421 472 
545 8 480 166 539 142 397 306 544 212 
546 7 264 411 620 56 463 431 205 
547 9 521 613 216 347 156 224 233 5 229 
548 8 268 42 475 463 53 192 656 245 
549 9 454 433 26 436 88 670 241 339 429 
550 9 87 226 177 231 261 176 413 186 571 
551 9 99 496 141 225 274 344 20 377 541 
552 9 275 213 417 188 104 315 143 367 576 
553 9 414 439 285 169 240 641 373 573 82 
554 8 230 513 640 76 645 517 9 242 
555 9 327 444 297 217 293 55 330 540 18 
556 8 484 470 90 200 388 509 542 342 
557 9 657 333 148 605 140 663 133 491 35 
558 9 170 163 504 453 94 258 329 44 241 
559 9 460 183 430 450 604 325 458 58 92 
560 9 174 304 52 464 95 408 469 626 357 
561 9 277 234 93 635 434 298 658 175 125 
562 9 364 603 215 344 274 20 473 57 391 
563 9 190 27 616 269 22 106 245 424 651 
564 8 155 497 647 583 139 408 396 357 
565 8 201 31 585 164 415 537 185 191 
566 9 154 44 258 170 558 163 504 94 307 
567 9 452 674 130 204 470 105 388 484 556 
568 8 410 595 594 666 393 456 471 139 
569 9 14 428 435 324 248 503 401 527 605 
570 9 73 129 235 112 676 59 506 336 382 
571 9 261 432 615 177 103 516 87 431 134 
572 8 622 281 523 427 621 581 107 420 
573 9 82 285 81 169 414 553 439 356 390 
574 7 456 583 393 139 497 147 594 
575 8 118 310 529 673 380 467 675 519 
576 9 367 552 200 213 143 542 123 182 188 
577 9 303 652 60 256 479 407 643 672 359 
578 9 77 197 223 124 610 123 342 182 210 
579 8 194 34 232 109 606 500 510 459 
580 9 149 40 587 590 57 236 215 364 365 
581 8 427 477 337 572 281 311 11 622 
582 6 534 212 306 363 83 159 
583 9 497 139 574 647 155 393 564 147 456 
584 9 58 178 131 68 604 430 183 92 419 
585 9 31 415 185 537 565 29 201 341 409 
586 9 420 161 331 491 621 632 107 663 622 
587 9 590 580 40 386 662 149 644 41 46 
588 7 101 534 323 363 7 317 370 
589 9 61 86 419 422 203 54 358 518 286 
590 9 587 580 644 41 662 149 40 386 46 
591 9 37 677 457 115 157 592 71 375 443 
592 9 600 21 16 32 443 457 110 157 263 
593 9 179 51 502 626 95 649 13 596 96 
594 9 456 393 574 568 139 410 583 497 647 
595 8 666 410 568 305 611 62 471 379 
596 9 13 354 193 70 252 502 649 164 633 
597 9 249 315 505 33 351 458 104 352 532 
598 9 159 487 317 83 69 363 522 530 7 
599 9 251 376 191 138 450 565 649 164 201 
600 9 21 16 592 32 263 110 668 457 5 
601 6 172 214 388 509 484 105 
602 9 412 80 133 140 239 148 333 663 557 
603 9 364 562 215 40 57 149 344 274 473 
604 9 430 58 183 559 584 460 450 92 325 
605 8 657 557 35 406 449 499 569 333 
606 8 232 500 167 510 194 113 579 262 
607 9 650 300 352 160 338 79 135 417 104 
608 9 308 348 49 162 50 122 441 481 63 
609 9 366 528 202 316 30 89 136 498 535 
610 9 77 342 294 578 515 618 123 124 197 
611 9 97 222 209 471 476 379 669 633 91 
612 9 451 4 196 409 48 326 160 29 322 
613 9 216 547 224 233 156 229 81 199 521 
614 9 661 78 283 161 331 466 319 586 632 
615 9 103 516 378 219 332 307 524 571 134 
616 9 106 27 22 563 269 28 276 190 245 
617 9 381 237 158 39 153 257 186 260 313 
618 9 294 515 23 425 578 610 171 483 197 
619 9 15 405 335 257 153 145 279 226 176 
620 7 264 546 411 56 431 318 205 
621 8 632 622 420 572 586 107 281 499 
622 8 572 281 621 523 107 420 499 632 
623 9 286 187 358 518 366 511 609 8 208 
624 9 118 380 529 519 575 646 673 310 543 
625 9 347 443 156 521 221 113 547 592 216 
626 9 95 469 179 357 560 52 408 593 464 
627 9 311 337 477 6 11 581 488 648 427 
628 6 211 295 369 119 328 137 
629 8 72 189 242 517 132 302 478 645 
630 9 128 458 501 325 460 360 92 505 597 
631 9 474 508 79 399 338 74 345 114 180 
632 8 621 622 420 572 586 319 107 161 
633 9 476 70 252 209 193 354 485 321 222 
634 9 288 136 152 498 383 660 312 316 609 
635 9 234 658 434 298 112 561 272 336 277 
636 9 96 299 330 540 464 68 179 131 293 
637 7 172 105 45 246 601 388 204 
638 9 535 89 202 290 365 236 12 30 316 
639 7 536 198 291 19 218 445 292 
640 9 9 76 102 266 350 296 488 265 513 
641 9 240 373 439 553 108 414 169 285 642 
642 9 108 254 373 641 240 111 228 67 356 
643 9 359 407 479 652 654 577 10 303 280 
644 9 41 590 587 662 671 46 292 386 580 
645 9 302 242 488 189 72 517 629 102 478 
646 8 519 380 118 543 673 310 152 383 
647 9 497 139 583 564 396 393 121 574 155 
648 9 265 6 296 350 266 84 442 53 192 
649 9 164 502 376 596 51 599 201 251 565 
650 9 607 300 352 338 79 160 135 417 399 
651 7 424 190 245 656 563 269 27 
652 9 303 577 407 60 256 643 672 359 479 
653 9 284 404 506 340 382 446 235 47 73 
654 9 280 10 120 146 355 479 486 442 273 
655 8 514 46 671 445 662 243 386 292 
656 7 245 651 190 424 269 563 27 
657 9 557 605 333 35 148 491 406 140 663 
658 9 635 434 112 234 298 272 336 561 59 
659 9 184 490 665 312 448 383 660 66 12 
660 9 312 12 316 498 535 383 638 288 659 
661 9 78 614 161 466 319 283 331 586 632 
662 9 46 671 386 655 514 445 292 587 590 
663 9 148 133 140 333 557 491 239 657 602 
664 9 116 461 24 151 238 150 448 320 184 
665 9 184 66 659 490 448 423 12 312 150 
666 8 595 568 410 305 62 353 611 379 
667 9 520 507 401 503 435 2 368 22 248 
668 9 16 254 263 21 157 228 600 32 457 
669 9 379 544 402 611 209 476 321 97 117 
670 9 26 433 454 429 436 387 25 549 416 
671 8 514 46 655 662 445 292 386 243 
672 9 206 256 38 60 303 255 39 652 413 
673 9 310 543 380 519 118 422 675 646 575 
674 9 452 567 130 204 470 105 227 515 610 
675 8 467 310 422 589 673 61 86 426 
676 8 235 73 59 666 353 595 62 305 
677 9 50 162 375 71 440 591 37 36 115 
DEPOT_SECTION
   1
   -1
EOF
