NAME :  X-n701-kX-w280-c9.cctp
COMMENT : 	Adapted by Maziero, Usberti and Cavellucci from the Uchoa, Pecin, Pessoa, Poggi, Subramanian, and Vidal (2013)
TYPE :  CCTP
DIMENSION :    603
EDGE_WEIGHT_TYPE : 	EUC_2D	
CAPACITY : 	87
VERTICES_WITHIN_COVERAGE :  9
VERTICES_WITH_DEMAND : 	280
NODE_COORD_SECTION
1 0 0
2 878 606
3 35 593
4 320 125
5 189 244
6 274 784
7 900 310
8 742 640
9 800 448
10 57 755
11 522 327
12 528 268
13 461 328
14 325 726
15 788 496
16 626 660
17 720 744
18 3 417
19 32 306
20 65 233
21 827 442
22 347 566
23 545 389
24 452 670
25 236 564
26 439 425
27 69 17
28 468 416
29 103 137
30 689 261
31 300 603
32 378 187
33 790 584
34 336 860
35 386 199
36 522 461
37 356 214
38 947 18
39 431 1000
40 817 983
41 71 731
42 918 54
43 989 840
44 260 262
45 904 724
46 970 295
47 567 694
48 426 75
49 24 178
50 656 590
51 128 178
52 969 965
53 309 968
54 855 798
55 587 48
56 118 736
57 838 354
58 274 298
59 311 702
60 183 963
61 392 495
62 950 484
63 621 676
64 52 482
65 956 934
66 745 263
67 289 149
68 689 900
69 216 107
70 852 560
71 45 441
72 638 84
73 66 842
74 290 815
75 68 509
76 521 672
77 100 855
78 408 483
79 491 455
80 536 563
81 114 255
82 383 536
83 902 19
84 964 423
85 610 39
86 719 961
87 837 83
88 657 185
89 289 599
90 747 259
91 292 168
92 552 548
93 560 212
94 128 950
95 211 939
96 160 473
97 32 550
98 353 65
99 995 695
100 72 691
101 19 172
102 237 657
103 994 883
104 457 195
105 35 32
106 425 288
107 12 586
108 560 747
109 302 972
110 891 540
111 812 30
112 206 371
113 241 223
114 436 508
115 601 81
116 298 860
117 977 911
118 188 304
119 545 745
120 318 269
121 839 548
122 107 557
123 262 668
124 824 424
125 859 540
126 477 909
127 323 639
128 954 411
129 271 682
130 412 518
131 751 85
132 922 84
133 13 661
134 354 560
135 524 576
136 522 565
137 228 552
138 573 723
139 71 320
140 627 736
141 760 323
142 668 714
143 777 669
144 685 750
145 654 333
146 63 754
147 477 613
148 224 523
149 662 829
150 515 78
151 962 282
152 351 237
153 737 451
154 605 442
155 472 449
156 249 840
157 537 728
158 244 611
159 205 27
160 681 545
161 921 582
162 171 870
163 810 570
164 487 331
165 451 822
166 453 518
167 888 770
168 85 443
169 895 651
170 984 369
171 494 962
172 973 891
173 721 160
174 989 256
175 638 621
176 223 951
177 602 835
178 516 523
179 780 864
180 991 664
181 914 45
182 949 533
183 335 946
184 6 338
185 234 558
186 491 163
187 170 763
188 77 45
189 845 26
190 681 306
191 107 355
192 593 124
193 231 497
194 881 371
195 420 399
196 17 680
197 581 906
198 783 782
199 334 715
200 395 79
201 285 579
202 908 478
203 532 760
204 847 460
205 438 733
206 102 417
207 645 136
208 71 222
209 337 978
210 44 67
211 760 84
212 849 533
213 984 810
214 738 919
215 918 985
216 533 824
217 579 119
218 14 972
219 609 859
220 560 291
221 32 686
222 35 244
223 280 871
224 940 401
225 452 680
226 790 271
227 832 824
228 765 381
229 653 162
230 594 601
231 114 661
232 702 726
233 649 586
234 594 299
235 433 966
236 499 695
237 159 291
238 261 445
239 46 465
240 479 816
241 108 11
242 898 637
243 667 524
244 46 379
245 120 371
246 133 485
247 958 649
248 182 943
249 23 384
250 426 116
251 36 988
252 945 828
253 350 956
254 560 676
255 975 826
256 972 624
257 836 379
258 149 821
259 295 92
260 977 685
261 917 843
262 137 226
263 477 858
264 256 630
265 235 922
266 292 81
267 449 829
268 179 845
269 136 84
270 713 592
271 94 858
272 697 981
273 165 188
274 326 480
275 750 434
276 836 453
277 574 982
278 386 481
279 705 190
280 203 945
281 816 604
282 975 849
283 483 904
284 47 84
285 503 851
286 438 468
287 937 42
288 629 845
289 209 270
290 61 456
291 906 841
292 624 195
293 662 907
294 673 555
295 307 43
296 296 837
297 253 75
298 829 599
299 138 159
300 710 107
301 37 564
302 974 967
303 759 756
304 580 848
305 260 64
306 596 890
307 745 159
308 847 81
309 207 27
310 912 418
311 859 340
312 425 770
313 375 325
314 114 18
315 923 49
316 87 908
317 84 327
318 219 869
319 378 164
320 800 100
321 22 470
322 952 3
323 105 215
324 80 581
325 728 532
326 823 527
327 625 890
328 854 377
329 500 240
330 126 833
331 560 23
332 138 966
333 909 990
334 447 664
335 187 283
336 435 345
337 460 767
338 325 901
339 362 602
340 448 905
341 485 74
342 754 65
343 19 676
344 583 926
345 678 820
346 451 76
347 497 468
348 910 712
349 364 919
350 580 785
351 513 457
352 860 683
353 486 458
354 768 472
355 490 89
356 936 775
357 663 367
358 800 702
359 846 788
360 343 784
361 477 523
362 459 894
363 422 91
364 612 340
365 881 418
366 665 647
367 488 927
368 574 373
369 318 951
370 580 535
371 381 57
372 578 904
373 529 432
374 424 941
375 564 835
376 462 915
377 604 438
378 711 692
379 575 526
380 585 331
381 1000 582
382 694 324
383 715 435
384 531 377
385 916 669
386 319 988
387 748 383
388 550 545
389 817 728
390 886 630
391 464 790
392 459 892
393 263 731
394 910 658
395 954 676
396 339 995
397 548 384
398 646 127
399 530 491
400 892 599
401 857 656
402 379 965
403 910 765
404 764 542
405 746 566
406 758 330
407 788 471
408 601 815
409 599 443
410 612 452
411 517 665
412 471 427
413 314 942
414 449 692
415 603 776
416 785 108
417 705 286
418 861 753
419 253 757
420 582 120
421 859 725
422 930 746
423 356 949
424 194 998
425 523 914
426 249 8
427 569 530
428 697 596
429 800 653
430 388 283
431 610 597
432 628 541
433 406 480
434 519 35
435 960 884
436 1000 655
437 891 715
438 375 465
439 653 335
440 881 810
441 476 502
442 512 6
443 314 80
444 372 452
445 796 503
446 980 890
447 821 409
448 459 846
449 528 455
450 714 162
451 436 399
452 441 504
453 677 307
454 979 797
455 691 762
456 322 213
457 600 75
458 458 506
459 368 879
460 782 605
461 700 177
462 553 57
463 361 931
464 535 162
465 779 427
466 580 467
467 584 169
468 711 433
469 485 490
470 968 639
471 538 432
472 423 126
473 649 580
474 741 403
475 714 575
476 630 532
477 937 664
478 561 303
479 316 878
480 476 920
481 503 81
482 368 922
483 966 709
484 482 907
485 426 613
486 619 443
487 319 189
488 696 579
489 561 392
490 759 434
491 549 403
492 498 309
493 697 697
494 509 466
495 276 695
496 383 737
497 566 572
498 854 859
499 855 780
500 449 817
501 534 381
502 514 94
503 782 608
504 911 584
505 794 421
506 930 603
507 465 430
508 925 589
509 903 700
510 86 841
511 936 814
512 549 796
513 953 696
514 447 81
515 933 643
516 956 648
517 936 782
518 839 490
519 542 792
520 313 985
521 760 439
522 552 70
523 851 771
524 926 659
525 583 543
526 677 320
527 901 671
528 408 731
529 897 704
530 929 716
531 542 495
532 489 528
533 469 846
534 261 63
535 434 996
536 788 856
537 978 757
538 623 345
539 543 811
540 653 493
541 506 537
542 496 106
543 462 553
544 302 731
545 610 449
546 532 555
547 534 722
548 548 215
549 352 885
550 415 527
551 353 967
552 896 713
553 540 259
554 839 438
555 365 542
556 481 887
557 502 470
558 319 886
559 439 0
560 927 975
561 864 824
562 462 863
563 630 506
564 367 989
565 550 29
566 542 469
567 667 751
568 364 868
569 790 67
570 491 754
571 320 938
572 389 659
573 576 450
574 333 868
575 762 894
576 834 595
577 430 114
578 807 652
579 522 548
580 585 319
581 418 848
582 812 478
583 638 504
584 509 877
585 732 547
586 540 734
587 738 408
588 417 762
589 473 879
590 520 472
591 593 467
592 965 697
593 515 504
594 484 966
595 632 71
596 864 521
597 878 724
598 246 855
599 669 545
600 591 551
601 803 761
602 889 884
603 517 469
DEMAND_SECTION
2 2
3 8
4 7
5 5
6 3
7 7
8 6
9 3
10 10
11 2
12 1
13 8
14 8
15 8
16 8
17 4
18 9
19 7
20 9
21 4
22 10
23 4
24 1
25 2
26 1
27 9
28 4
29 4
30 5
31 8
32 2
33 9
34 3
35 1
36 8
37 2
38 8
39 3
40 3
41 2
42 4
43 3
44 2
45 7
46 7
47 9
48 1
49 5
50 7
51 10
52 5
53 9
54 7
55 7
56 1
57 3
58 5
59 9
60 5
61 4
62 5
63 9
64 4
65 4
66 7
67 8
68 1
69 8
70 7
71 2
72 9
73 5
74 1
75 6
76 8
77 4
78 10
79 9
80 8
81 4
82 2
83 8
84 1
85 5
86 2
87 7
88 3
89 1
90 2
91 6
92 5
93 10
94 9
95 6
96 8
97 6
98 1
99 8
100 3
101 8
102 9
103 2
104 9
105 8
106 8
107 2
108 7
109 4
110 10
111 5
112 4
113 10
114 9
115 9
116 7
117 6
118 7
119 10
120 10
121 5
122 6
123 1
124 3
125 4
126 1
127 5
128 8
129 3
130 1
131 4
132 4
133 3
134 8
135 6
136 8
137 1
138 2
139 2
140 8
141 9
142 6
143 10
144 3
145 1
146 5
147 6
148 1
149 4
150 4
151 10
152 8
153 10
154 5
155 5
156 8
157 10
158 1
159 2
160 7
161 4
162 3
163 4
164 4
165 6
166 3
167 1
168 8
169 9
170 8
171 5
172 1
173 2
174 2
175 10
176 9
177 4
178 7
179 7
180 2
181 1
182 4
183 2
184 9
185 6
186 6
187 8
188 9
189 1
190 10
191 2
192 10
193 6
194 4
195 9
196 10
197 1
198 8
199 1
200 4
201 2
202 4
203 2
204 5
205 5
206 9
207 1
208 5
209 7
210 2
211 4
212 1
213 1
214 9
215 3
216 8
217 1
218 4
219 9
220 5
221 8
222 2
223 10
224 1
225 6
226 1
227 9
228 3
229 9
230 4
231 1
232 10
233 8
234 6
235 4
236 8
237 2
238 7
239 8
240 7
241 7
242 6
243 6
244 5
245 6
246 1
247 8
248 10
249 1
250 6
251 1
252 6
253 5
254 6
255 2
256 4
257 4
258 1
259 6
260 10
261 4
262 1
263 8
264 1
265 3
266 1
267 10
268 1
269 5
270 10
271 6
272 7
273 4
274 5
275 4
276 4
277 10
278 10
279 1
280 8
281 5
COVERAGE_SECTION
2 9 400 390 242 504 576 169 161 298 508 
3 9 107 301 97 324 133 122 343 196 75 
4 9 67 259 443 91 266 487 98 319 295 
5 9 289 335 262 113 237 118 273 44 81 
6 9 419 74 393 296 544 156 360 598 14 
7 9 311 194 151 46 57 328 257 224 170 
8 9 143 503 460 270 429 378 428 578 475 
9 9 407 21 505 465 582 124 276 354 554 
10 9 146 41 56 100 221 196 73 343 510 
11 9 492 164 478 384 220 501 12 13 380 
12 9 553 220 329 478 492 548 11 93 234 
13 9 164 336 492 106 11 451 195 384 313 
14 8 199 544 59 495 496 360 393 129 
15 8 445 407 582 354 326 9 518 404 
16 9 63 175 366 431 230 47 142 254 50 
17 9 232 455 144 303 493 378 567 142 198 
18 9 249 71 321 244 239 290 184 64 168 
19 9 139 184 317 222 244 249 20 191 208 
20 9 208 222 323 81 49 262 101 19 51 
21 9 554 276 124 204 9 447 505 582 407 
22 9 134 555 339 82 31 201 89 127 550 
23 8 397 501 491 489 384 368 471 373 
24 9 334 225 414 236 147 485 572 205 411 
25 9 185 137 148 158 201 89 193 264 31 
26 9 451 507 28 195 412 155 286 353 79 
27 9 188 105 241 314 210 284 269 29 159 
28 9 412 507 26 155 451 79 353 195 286 
29 9 299 51 269 284 323 273 49 101 208 
30 9 417 190 453 66 90 526 382 279 145 
31 9 89 201 127 264 158 22 339 134 25 
32 9 35 319 37 152 487 456 472 104 4 
33 9 460 163 503 281 298 576 405 404 121 
34 8 574 479 568 549 558 459 116 338 
35 9 32 37 319 152 456 487 104 472 430 
36 9 449 603 351 590 494 557 566 347 373 
37 9 152 35 456 32 487 319 120 430 91 
38 9 322 287 315 181 83 42 132 189 308 
39 8 535 235 374 402 594 564 171 551 
40 9 333 86 215 214 575 560 272 602 179 
41 9 146 10 100 56 221 196 343 231 133 
42 9 315 181 287 132 83 38 322 308 189 
43 9 282 255 213 103 454 252 446 172 435 
44 9 58 113 289 120 5 335 456 118 152 
45 8 348 552 437 529 509 530 597 422 
46 9 151 174 7 170 224 128 194 311 84 
47 9 254 138 547 157 586 76 108 119 63 
48 6 363 514 346 200 577 250 
49 9 101 208 222 20 29 323 284 51 210 
50 9 233 473 175 294 428 488 431 599 160 
51 9 299 273 323 29 262 208 81 20 5 
52 9 302 65 560 117 215 333 172 446 435 
53 9 109 520 369 386 413 209 571 183 396 
54 9 359 499 523 561 440 227 167 418 498 
55 9 85 457 462 115 331 522 565 595 72 
56 9 41 146 187 10 100 231 258 330 221 
57 9 257 311 328 194 447 124 7 365 228 
58 9 44 120 289 113 118 335 152 456 112 
59 9 199 14 544 495 129 393 123 127 419 
60 9 248 280 95 424 176 332 94 265 162 
61 9 278 78 433 130 438 550 82 114 444 
62 9 202 182 84 128 310 110 224 596 365 
63 9 16 366 47 175 140 142 254 138 493 
64 9 239 290 75 321 71 168 97 18 246 
65 9 117 52 302 172 435 446 560 103 215 
66 9 90 226 417 30 141 406 190 382 453 
67 9 91 4 487 259 266 456 443 297 69 
68 9 293 214 327 86 575 149 272 288 345 
69 9 297 305 534 259 266 159 309 269 67 
70 9 121 125 212 576 596 163 110 326 298 
71 9 290 239 321 168 64 18 249 206 244 
72 9 595 115 457 398 207 85 192 55 420 
73 9 510 271 77 330 316 258 10 146 162 
74 9 296 6 116 156 223 598 360 34 479 
75 9 64 239 290 97 321 122 301 168 246 
76 9 411 236 254 47 547 157 586 24 225 
77 9 271 510 330 73 316 258 162 268 94 
78 9 433 61 278 286 130 114 438 452 550 
79 9 353 347 557 155 494 351 603 36 412 
80 9 546 136 135 579 92 388 497 541 178 
81 9 262 323 20 208 237 5 51 139 317 
82 9 555 550 130 134 61 22 278 78 114 
83 9 181 315 42 287 38 322 189 132 308 
84 9 128 224 310 170 62 202 365 194 182 
85 9 55 457 595 115 331 72 462 565 522 
86 9 272 214 68 293 575 40 179 327 536 
87 9 308 320 569 189 416 111 211 132 342 
88 9 229 292 461 279 207 398 450 173 467 
89 9 31 201 264 158 127 25 22 185 339 
90 9 66 226 417 30 141 406 190 279 382 
91 9 67 487 4 456 113 259 37 319 266 
92 9 388 546 80 427 497 579 370 525 379 
93 9 548 467 553 464 12 292 329 220 186 
94 9 332 248 60 316 280 424 95 162 176 
95 9 280 176 248 265 60 424 318 332 162 
96 9 246 193 148 168 206 75 122 290 137 
97 9 301 107 3 75 324 64 122 321 239 
98 9 371 443 200 295 266 259 4 48 363 
99 7 260 592 180 483 436 513 395 
100 9 41 221 231 343 196 56 146 10 133 
101 9 49 208 222 20 29 284 323 210 51 
102 9 123 264 129 158 495 89 393 31 59 
103 9 446 172 117 435 282 43 255 65 213 
104 9 186 329 35 472 32 250 319 464 577 
105 9 210 27 188 284 241 314 269 29 101 
106 9 430 13 336 313 164 492 329 152 35 
107 9 3 301 97 324 133 343 196 75 122 
108 9 119 586 138 157 203 547 350 519 512 
109 9 53 520 386 369 413 209 571 183 396 
110 9 125 596 212 70 504 161 121 182 400 
111 9 189 569 87 308 342 320 211 131 416 
112 9 118 245 335 238 237 58 191 289 96 
113 9 44 5 289 91 335 58 456 273 487 
114 9 452 166 458 130 550 78 286 441 433 
115 9 457 595 55 72 85 420 192 217 522 
116 9 223 296 479 558 574 34 74 338 598 
117 9 172 446 65 435 103 52 302 282 43 
118 9 335 237 289 5 112 44 58 81 262 
119 9 586 108 157 203 547 138 519 512 350 
120 9 152 58 456 44 37 430 313 487 113 
121 9 70 212 125 326 163 596 576 298 110 
122 9 324 75 301 97 246 3 64 96 107 
123 9 129 102 495 264 59 158 393 127 89 
124 9 447 21 554 505 276 9 204 465 257 
125 9 212 596 70 121 110 326 518 163 576 
126 9 484 283 480 376 367 556 362 392 340 
127 9 31 89 339 59 129 123 264 572 201 
128 9 84 224 310 170 62 365 202 194 328 
129 9 495 123 102 59 393 264 544 127 14 
130 9 550 114 61 452 82 78 433 166 278 
131 9 211 342 416 569 300 320 307 173 111 
132 9 42 315 181 287 83 38 308 87 322 
133 9 343 196 221 100 3 107 41 301 231 
134 9 22 555 82 339 31 550 130 201 61 
135 9 136 80 546 579 92 388 497 541 178 
136 9 135 80 546 579 541 92 388 178 497 
137 9 185 25 148 193 158 201 89 264 31 
138 9 108 47 586 119 157 547 254 203 140 
139 9 317 19 191 244 184 245 81 249 222 
140 9 567 142 415 138 63 144 108 350 455 
141 7 406 228 226 387 66 90 382 
142 9 493 232 567 144 140 378 455 17 63 
143 9 429 578 358 8 503 460 378 389 281 
144 9 455 567 232 17 142 493 140 378 345 
145 8 439 526 538 357 453 190 382 364 
146 9 10 41 56 100 221 196 73 343 510 
147 9 485 334 135 24 543 136 411 225 76 
148 9 193 137 185 25 96 201 238 158 246 
149 9 345 288 177 219 408 327 455 68 293 
150 8 481 502 355 341 542 522 434 462 
151 9 46 174 7 170 311 194 224 128 84 
152 9 37 456 120 35 32 487 430 319 106 
153 5 275 521 383 490 468 
154 7 377 409 545 410 486 591 573 
155 9 353 79 507 412 347 28 557 286 26 
156 9 598 318 223 296 74 116 6 268 479 
157 9 547 586 119 108 203 138 47 236 570 
158 9 264 89 102 25 201 185 31 123 137 
159 9 309 426 305 534 297 69 269 314 241 
160 9 599 294 243 488 475 473 325 50 585 
161 9 508 504 506 400 2 110 182 390 242 
162 9 268 318 258 330 77 248 598 271 95 
163 9 33 281 298 576 121 70 326 460 503 
164 9 492 13 11 336 384 501 12 106 478 
165 9 500 267 448 240 533 391 562 581 263 
166 9 458 452 114 361 441 543 532 550 130 
167 9 403 418 499 523 440 54 359 597 356 
168 9 290 206 71 239 64 246 75 321 244 
169 8 242 394 527 390 385 524 401 515 
170 9 128 224 84 46 310 151 7 194 174 
171 9 594 367 480 126 425 484 376 283 235 
172 9 446 435 117 103 282 65 43 255 252 
173 9 450 307 461 279 300 229 88 207 131 
174 9 151 46 7 170 224 311 194 128 84 
175 9 50 233 366 431 16 473 230 63 428 
176 9 95 280 265 60 248 424 109 318 332 
177 9 408 219 304 288 375 306 350 415 149 
178 9 541 593 579 532 399 546 531 361 388 
179 9 536 575 227 214 498 198 561 68 54 
180 9 436 260 99 470 247 516 395 592 256 
181 9 42 315 287 83 132 38 322 189 308 
182 9 62 161 110 508 504 202 381 506 596 
183 9 571 253 369 413 423 551 463 209 53 
184 9 19 249 244 139 18 317 222 191 71 
185 9 25 137 148 158 201 193 89 264 31 
186 6 464 104 542 502 355 472 
187 9 56 258 268 330 419 393 41 6 146 
188 9 27 210 105 241 314 284 269 29 159 
189 9 111 308 83 87 569 181 42 315 320 
190 7 453 526 382 417 145 439 30 
191 9 245 317 139 206 244 237 249 19 168 
192 9 420 217 115 467 457 207 398 72 595 
193 9 148 137 238 185 25 96 274 201 246 
194 9 328 311 57 257 365 310 7 224 447 
195 9 451 26 28 507 336 412 286 155 444 
196 9 343 221 133 100 41 10 146 3 107 
197 9 372 344 306 327 219 304 425 375 177 
198 9 601 303 359 389 227 523 499 17 54 
199 9 14 59 544 496 495 360 129 393 528 
200 9 371 363 48 98 250 577 514 472 346 
201 9 89 31 25 158 185 264 22 137 127 
202 9 62 310 596 110 204 365 182 518 276 
203 9 119 586 108 157 519 547 512 570 539 
204 9 276 554 21 518 582 124 9 365 447 
205 9 528 588 312 337 414 225 496 570 391 
206 9 168 245 290 71 191 244 239 246 96 
207 9 398 229 88 72 192 292 420 595 217 
208 9 20 323 222 81 49 262 51 101 29 
209 9 396 551 386 520 253 53 183 564 369 
210 9 284 105 188 27 241 314 29 269 101 
211 9 131 342 569 416 320 300 111 307 87 
212 9 125 121 596 70 326 110 518 163 445 
213 9 454 255 43 282 252 511 537 517 356 
214 9 575 86 68 179 272 293 536 40 345 
215 9 333 560 52 302 65 117 40 602 172 
216 9 539 512 375 519 285 304 240 584 350 
217 9 420 192 115 457 467 522 464 398 462 
218 9 251 316 94 332 271 73 77 510 60 
219 9 288 177 304 306 327 408 375 197 372 
220 9 478 234 553 580 12 380 11 492 364 
221 9 196 343 133 100 41 10 146 231 3 
222 9 20 208 19 49 101 323 81 139 317 
223 9 116 479 296 598 558 156 574 338 34 
224 9 128 84 310 170 365 194 202 62 328 
225 9 24 414 334 236 205 572 411 528 76 
226 9 90 66 141 406 417 57 311 30 382 
227 9 561 54 359 498 499 440 536 523 198 
228 5 387 474 587 465 505 
229 9 88 207 398 292 461 279 450 173 467 
230 9 431 497 175 600 233 473 525 50 16 
231 9 100 56 41 221 324 343 196 133 3 
232 9 17 144 493 378 142 455 567 303 140 
233 9 473 50 175 294 431 599 488 428 432 
234 7 580 380 478 220 364 538 553 
235 7 374 535 39 594 402 376 171 
236 9 76 411 547 225 157 414 24 586 570 
237 9 335 118 289 5 81 262 191 317 245 
238 9 193 274 148 112 96 444 137 185 438 
239 9 290 64 71 321 168 75 18 206 249 
240 9 165 391 500 533 267 448 263 285 562 
241 9 314 27 188 105 269 210 284 159 309 
242 9 169 390 394 527 515 524 2 385 400 
243 8 599 160 294 540 583 476 563 432 
244 9 249 18 184 71 139 317 191 206 19 
245 9 191 206 317 139 244 168 112 237 118 
246 9 96 168 75 206 122 290 64 239 71 
247 9 516 470 477 515 395 256 524 180 260 
248 9 60 280 95 176 332 94 424 265 162 
249 9 244 18 184 71 19 139 290 317 239 
250 7 577 472 363 48 514 346 200 
251 9 218 316 94 332 271 77 60 73 248 
252 9 511 255 261 282 291 213 43 454 517 
253 9 423 551 183 209 463 402 369 571 564 
254 9 47 76 411 138 547 157 63 586 236 
255 9 213 43 282 454 252 511 517 103 261 
256 9 470 247 516 436 515 180 506 381 477 
257 9 328 57 447 311 194 124 505 554 365 
258 9 330 268 162 77 187 271 510 318 73 
259 9 266 443 4 297 305 534 295 67 98 
260 8 592 99 180 395 483 513 436 247 
261 9 291 252 511 440 602 561 282 435 255 
262 9 323 81 273 51 5 208 299 237 20 
263 9 533 562 589 448 285 556 584 392 267 
264 9 158 102 123 89 31 129 201 127 495 
265 9 95 176 280 318 248 60 223 598 413 
266 9 259 443 305 534 297 295 4 98 67 
267 8 165 500 448 533 240 562 581 263 
268 9 162 258 318 330 598 156 77 187 271 
269 9 29 314 188 299 241 69 159 284 309 
270 9 428 475 488 405 585 294 8 50 160 
271 9 77 510 73 330 316 258 162 268 94 
272 9 86 214 68 293 575 327 40 277 344 
273 9 51 299 262 5 323 29 81 113 289 
274 9 438 444 278 61 555 238 82 433 78 
275 8 490 521 153 587 465 474 383 468 
276 9 204 21 554 124 582 9 518 447 407 
277 9 344 197 372 171 425 594 306 367 327 
278 9 61 438 433 78 444 130 286 550 82 
279 9 461 450 173 88 307 229 30 90 207 
280 9 95 176 248 60 265 424 332 94 318 
281 9 298 576 33 460 503 163 578 429 70 
282 9 43 255 252 435 103 213 446 172 454 
283 9 484 126 480 556 367 376 362 392 589 
284 9 210 188 105 27 29 269 101 314 241 
285 9 263 584 533 216 589 240 556 562 448 
286 9 78 433 452 155 114 26 458 507 353 
287 9 315 42 181 38 83 322 132 189 308 
288 9 219 177 149 408 327 304 345 306 375 
289 9 335 5 118 44 237 113 58 262 273 
290 9 239 71 168 64 321 75 206 18 244 
291 9 261 440 511 252 561 602 498 517 54 
292 9 88 229 467 207 93 398 192 461 548 
293 9 68 327 306 288 219 214 149 86 197 
294 9 599 160 243 488 473 50 233 475 432 
295 9 443 266 259 534 98 305 297 426 371 
296 9 74 116 223 34 479 156 574 598 558 
297 9 305 534 266 259 69 443 295 309 426 
298 9 576 281 163 33 70 460 503 2 121 
299 9 51 273 29 323 262 269 208 69 5 
300 9 131 173 211 450 342 307 398 207 461 
301 9 97 3 107 324 75 122 64 321 239 
302 9 52 65 560 117 215 333 172 446 435 
303 9 198 17 601 232 389 358 455 144 378 
304 9 375 177 219 408 306 288 539 216 372 
305 9 534 297 266 259 295 443 426 69 309 
306 9 197 372 327 219 344 304 177 288 375 
307 9 173 450 461 279 300 416 131 211 320 
308 9 87 320 189 569 111 416 132 42 181 
309 9 159 426 305 534 297 69 269 314 241 
310 9 365 224 128 84 194 202 328 62 554 
311 9 57 328 194 257 7 447 365 124 310 
312 6 588 337 205 528 391 496 
313 9 430 106 336 120 13 195 152 451 58 
314 9 241 27 188 269 105 210 159 309 284 
315 9 42 181 287 132 83 38 322 189 308 
316 9 271 77 94 510 73 332 330 162 251 
317 9 139 191 19 245 244 81 184 237 249 
318 9 598 156 268 162 265 223 95 280 116 
319 9 32 35 37 472 487 250 4 577 456 
320 9 416 569 87 211 131 308 342 111 307 
321 9 239 64 71 290 18 75 168 97 249 
322 9 38 287 83 315 181 42 132 189 308 
323 9 262 208 81 20 51 299 273 222 29 
324 9 122 301 3 97 107 75 231 64 133 
325 5 585 404 405 475 160 
326 9 121 212 445 125 518 596 70 163 15 
327 9 306 219 293 288 197 372 344 177 304 
328 9 257 57 194 311 447 365 124 554 21 
329 9 12 553 548 104 93 492 186 220 464 
330 9 258 77 271 510 268 162 73 187 316 
331 9 565 462 55 434 522 442 85 457 115 
332 9 94 60 248 424 280 316 95 176 162 
333 9 215 560 52 302 65 40 117 602 172 
334 9 24 225 414 485 572 147 236 205 411 
335 9 118 289 237 5 44 262 81 113 58 
336 9 13 164 451 195 106 313 492 28 430 
337 9 391 570 312 205 588 500 240 165 267 
338 9 558 479 549 574 571 34 413 349 183 
339 9 22 134 127 555 31 572 485 82 89 
340 4 362 376 392 126 
341 5 355 481 150 346 542 
342 9 131 211 569 416 320 300 111 87 307 
343 9 196 133 221 100 41 3 10 107 146 
344 9 197 372 306 327 277 425 219 304 293 
345 9 149 288 455 144 567 177 408 219 68 
346 4 514 48 363 341 
347 9 557 494 79 353 351 603 590 469 36 
348 7 45 509 552 529 437 530 597 
349 7 482 463 423 549 183 253 459 
350 9 415 512 408 519 108 539 375 119 203 
351 9 36 494 603 449 557 590 347 79 353 
352 9 401 421 527 529 437 597 509 169 552 
353 9 79 347 155 557 494 351 469 603 412 
354 9 407 15 521 153 490 9 275 445 582 
355 5 481 341 542 502 150 
356 7 517 403 422 511 537 167 454 
357 2 439 145 
358 9 389 143 429 578 601 352 421 303 401 
359 9 499 54 523 418 227 561 440 167 601 
360 4 14 74 496 544 
361 9 532 441 166 458 541 469 543 178 452 
362 7 392 340 376 589 126 556 283 
363 7 48 577 250 514 200 346 472 
364 5 538 380 580 439 145 
365 9 310 194 554 328 204 124 276 21 257 
366 9 175 16 63 50 493 428 233 378 142 
367 9 480 126 484 283 376 171 425 594 556 
368 6 489 397 23 491 501 380 
369 9 413 571 183 53 109 253 209 520 386 
370 6 525 379 427 600 92 388 
371 9 200 98 48 363 514 443 346 250 295 
372 9 197 306 344 327 219 304 425 375 177 
373 8 471 449 36 351 491 494 566 603 
374 4 235 340 376 402 
375 9 304 539 216 177 408 512 519 219 350 
376 8 480 126 340 362 484 392 283 367 
377 7 154 409 545 410 486 573 591 
378 9 493 232 142 17 8 144 366 143 455 
379 6 427 370 525 600 388 92 
380 7 580 364 234 478 538 368 220 
381 9 256 470 182 436 506 508 161 247 516 
382 6 526 190 453 417 145 439 
383 2 468 153 
384 9 501 23 397 491 489 368 11 373 471 
385 6 394 524 527 477 169 515 
386 9 520 209 396 53 109 369 551 183 253 
387 3 228 474 587 
388 9 92 546 80 427 579 379 497 370 525 
389 9 358 601 421 418 523 597 352 198 303 
390 9 242 169 2 400 394 401 527 385 515 
391 9 337 240 500 165 267 312 570 588 448 
392 7 362 340 589 376 556 126 283 
393 9 419 495 544 129 6 59 14 123 199 
394 7 385 524 527 169 242 515 477 
395 6 513 477 592 260 247 516 
396 9 209 386 520 564 551 53 253 109 183 
397 7 23 501 489 384 491 368 471 
398 9 207 229 72 192 595 88 115 420 217 
399 9 531 593 590 566 603 36 494 178 557 
400 9 2 504 390 161 508 242 506 169 70 
401 9 352 169 390 242 527 578 394 2 429 
402 9 551 564 423 253 463 209 482 183 349 
403 8 167 356 422 517 45 418 597 348 
404 8 405 585 325 33 445 15 163 475 
405 8 585 404 475 325 270 33 488 460 
406 5 141 228 387 382 226 
407 9 354 15 582 9 445 521 465 490 21 
408 9 177 350 304 415 288 375 219 512 539 
409 8 154 377 545 410 486 573 591 466 
410 6 545 486 154 377 409 591 
411 9 76 236 254 47 547 24 147 157 225 
412 9 507 28 155 26 79 353 451 347 351 
413 9 571 369 183 53 109 253 338 209 423 
414 9 225 24 334 205 236 528 572 411 76 
415 9 350 408 140 108 512 177 138 519 119 
416 9 320 211 131 569 342 87 307 308 300 
417 9 30 190 453 382 526 66 90 141 145 
418 9 523 421 499 167 597 359 54 437 403 
419 9 393 6 544 495 74 129 14 59 156 
420 9 217 192 115 457 467 522 464 398 207 
421 9 597 418 437 552 352 389 529 45 523 
422 6 403 356 530 45 517 348 
423 9 253 551 463 183 402 482 349 209 369 
424 9 60 280 176 248 95 332 94 265 109 
425 9 367 584 283 484 126 480 556 171 372 
426 9 309 159 534 305 297 295 266 259 443 
427 7 379 370 525 388 92 600 497 
428 9 270 488 475 50 294 233 473 160 405 
429 9 578 143 503 358 460 281 401 8 298 
430 9 106 313 152 120 37 336 35 13 456 
431 9 230 175 233 473 50 600 497 432 525 
432 7 476 563 583 600 599 243 473 
433 9 78 278 61 286 438 130 114 452 444 
434 8 442 565 462 150 331 522 481 341 
435 9 172 446 117 103 282 65 43 252 261 
436 9 180 470 260 99 247 256 516 395 592 
437 8 552 529 45 597 348 509 421 530 
438 9 444 278 61 433 78 274 286 130 82 
439 8 145 526 538 357 453 190 364 382 
440 9 561 54 291 499 167 359 261 523 227 
441 9 469 458 361 166 532 452 593 114 347 
442 7 434 565 331 462 150 341 559 
443 9 259 266 295 98 4 305 534 297 371 
444 9 438 278 433 61 78 274 286 26 195 
445 9 15 582 407 326 354 518 404 9 212 
446 9 172 103 117 435 282 65 43 255 252 
447 9 124 505 21 257 554 9 276 328 465 
448 8 533 562 267 263 165 500 240 589 
449 9 36 351 603 590 566 494 373 471 557 
450 9 173 461 279 307 300 88 229 207 398 
451 9 195 26 28 507 412 336 155 286 13 
452 9 114 458 166 130 441 550 286 78 361 
453 7 190 526 382 145 417 439 30 
454 8 213 255 537 43 252 511 517 356 
455 9 144 567 17 232 142 345 493 303 140 
456 9 487 37 152 91 120 32 35 67 319 
457 9 115 55 595 85 72 420 522 192 217 
458 9 166 452 441 114 361 469 532 286 543 
459 4 568 549 34 574 
460 9 503 33 281 163 298 429 8 405 576 
461 9 279 450 173 88 307 229 207 300 398 
462 9 522 565 55 331 434 150 457 115 502 
463 8 482 349 423 253 183 551 402 571 
464 9 186 467 548 93 217 420 542 192 502 
465 9 505 490 521 9 275 124 407 474 587 
466 5 591 573 409 154 410 
467 9 192 292 93 420 464 217 548 207 229 
468 2 383 153 
469 9 441 347 557 458 353 593 361 494 79 
470 9 247 516 256 180 515 436 395 477 260 
471 6 373 449 491 36 351 566 
472 7 250 577 363 48 514 200 346 
473 9 233 50 294 599 175 431 432 160 488 
474 4 587 387 275 228 
475 9 270 488 428 405 585 160 325 294 599 
476 7 432 563 583 243 599 600 540 
477 7 524 395 515 385 516 247 394 
478 9 220 580 234 380 11 12 553 364 492 
479 9 558 574 116 338 34 223 549 296 568 
480 9 126 367 484 376 283 362 340 392 556 
481 5 150 355 502 341 542 
482 6 349 463 423 253 549 183 
483 6 592 513 260 99 395 530 
484 9 283 126 480 556 367 376 362 392 589 
485 9 147 334 572 24 339 543 225 414 550 
486 5 410 545 154 377 409 
487 9 456 91 37 67 152 32 4 319 35 
488 9 428 475 270 294 160 50 599 473 233 
489 6 397 23 491 368 501 384 
490 8 521 275 465 153 587 474 505 354 
491 8 23 489 397 501 471 384 373 368 
492 9 164 11 13 12 478 220 553 329 336 
493 9 378 232 142 17 144 366 567 455 8 
494 9 557 603 351 347 590 36 79 449 353 
495 9 129 123 59 393 544 102 14 199 419 
496 6 528 588 312 199 205 14 
497 9 92 80 388 600 525 546 230 370 135 
498 9 561 227 602 291 440 54 261 536 359 
499 9 523 359 54 418 167 440 561 227 421 
500 9 165 267 240 391 448 533 581 562 263 
501 8 384 23 397 491 489 368 373 471 
502 6 150 481 542 355 341 522 
503 9 460 33 281 163 298 429 8 578 576 
504 9 161 508 400 506 2 110 390 242 515 
505 9 465 9 124 447 490 521 21 275 554 
506 9 508 161 504 400 515 242 256 2 390 
507 9 412 28 155 26 353 79 451 286 347 
508 9 161 504 506 400 2 242 515 390 256 
509 7 529 348 552 437 45 527 530 
510 9 271 73 77 330 258 316 146 162 10 
511 9 252 517 261 356 291 255 454 213 282 
512 9 519 539 216 350 203 375 108 119 408 
513 6 592 483 395 260 530 477 
514 4 346 48 363 577 
515 8 524 477 516 247 394 385 470 242 
516 9 247 470 515 477 395 256 524 180 260 
517 8 356 403 511 422 454 252 167 537 
518 9 582 204 276 326 596 212 445 21 15 
519 9 512 539 216 203 350 119 108 375 586 
520 9 386 53 109 209 396 369 413 551 183 
521 9 490 275 465 153 354 505 587 9 474 
522 9 462 150 55 565 502 331 434 457 115 
523 9 499 359 418 54 167 421 440 601 597 
524 7 477 385 394 515 527 169 516 
525 7 370 600 379 427 92 388 497 
526 7 453 190 382 145 439 417 357 
527 6 385 394 169 524 509 529 
528 7 496 205 588 312 414 337 225 
529 8 509 552 437 348 45 597 527 530 
530 6 348 45 422 509 513 552 
531 8 399 566 593 590 603 178 36 449 
532 9 361 541 178 441 593 166 543 458 469 
533 9 448 263 562 267 165 240 589 285 500 
534 9 305 297 266 259 295 426 443 69 309 
535 9 39 235 374 594 402 564 171 376 551 
536 9 179 575 227 498 198 214 561 54 359 
537 6 454 356 422 483 517 213 
538 5 364 439 145 380 357 
539 9 216 512 519 375 350 203 304 285 408 
540 3 583 563 243 
541 9 178 532 579 136 361 546 593 80 135 
542 5 355 502 481 150 341 
543 9 361 166 532 458 541 114 441 452 550 
544 9 14 59 199 393 495 419 129 6 360 
545 6 410 154 486 377 409 591 
546 9 80 579 136 92 388 135 541 178 497 
547 9 157 586 119 108 203 138 47 236 76 
548 9 93 553 329 464 12 467 186 220 292 
549 7 459 568 574 34 338 558 349 
550 9 130 114 82 452 61 166 78 433 458 
551 9 253 423 209 402 564 183 396 463 369 
552 8 437 529 45 348 509 597 530 421 
553 9 12 220 329 548 478 93 492 234 11 
554 9 21 276 124 204 447 9 365 505 582 
555 9 82 134 22 550 130 61 339 278 78 
556 9 589 283 484 126 362 392 263 584 562 
557 9 347 494 603 351 590 79 353 36 469 
558 9 479 338 574 34 116 549 223 568 459 
559 6 442 48 346 371 514 341 
560 9 215 333 52 302 65 117 172 435 602 
561 9 440 54 227 498 359 291 499 523 261 
562 7 263 448 533 589 392 362 556 
563 5 583 476 540 432 243 
564 9 551 402 396 209 253 423 386 183 520 
565 9 331 462 434 522 55 442 150 85 457 
566 8 449 36 590 399 603 531 351 494 
567 9 144 455 142 140 232 17 493 415 345 
568 4 459 549 34 574 
569 9 211 320 342 416 111 131 87 308 189 
570 9 337 203 391 157 586 547 119 205 236 
571 9 413 369 183 53 253 338 109 423 463 
572 9 334 485 339 24 225 414 127 528 199 
573 5 466 409 591 154 377 
574 8 34 479 558 549 568 338 116 459 
575 9 179 214 536 68 86 498 227 293 40 
576 9 298 281 163 70 2 33 121 460 503 
577 7 250 472 363 514 48 346 200 
578 9 429 143 281 358 401 503 460 298 352 
579 9 546 136 541 80 178 135 388 92 532 
580 7 380 234 478 364 220 538 368 
581 1 267 
582 9 407 15 445 518 9 276 21 204 354 
583 5 563 540 476 243 432 
584 9 285 556 589 263 283 425 484 126 562 
585 7 325 405 404 475 488 270 160 
586 9 157 119 547 108 203 138 47 570 236 
587 4 474 387 275 490 
588 6 312 528 205 496 337 391 
589 9 556 392 562 263 362 283 484 126 533 
590 9 603 36 494 351 557 449 399 566 347 
591 6 466 410 573 409 545 154 
592 6 483 513 260 395 99 530 
593 9 178 399 531 590 469 541 532 603 557 
594 9 171 367 480 235 376 126 535 484 283 
595 9 72 457 115 85 55 398 192 207 420 
596 9 212 125 110 121 518 70 326 202 204 
597 9 437 421 552 45 529 348 418 509 352 
598 9 156 318 223 116 296 74 265 268 479 
599 9 294 160 243 473 432 476 488 233 50 
600 7 525 370 379 427 497 432 92 
601 9 198 389 303 523 359 499 358 418 54 
602 9 498 291 261 561 435 440 252 227 65 
603 9 590 36 494 351 557 449 347 566 399 
DEPOT_SECTION
   1
   -1
EOF
