NAME :  X-n749-kX-w74-c7.cctp
COMMENT : 	Adapted by Maziero, Usberti and Cavellucci from the Uchoa, Pecin, Pessoa, Poggi, Subramanian, and Vidal (2013)
TYPE :  CCTP
DIMENSION :    457
EDGE_WEIGHT_TYPE : 	EUC_2D	
CAPACITY : 	396
VERTICES_WITHIN_COVERAGE :  7
VERTICES_WITH_DEMAND : 	74
NODE_COORD_SECTION
1 643 512
2 707 407
3 394 355
4 140 470
5 364 215
6 493 857
7 117 466
8 462 38
9 551 479
10 545 460
11 423 274
12 440 602
13 525 357
14 574 994
15 387 377
16 583 424
17 16 481
18 615 427
19 511 799
20 110 518
21 223 506
22 163 520
23 834 419
24 442 482
25 42 547
26 478 421
27 372 108
28 320 252
29 731 372
30 341 234
31 787 331
32 433 254
33 555 397
34 640 350
35 565 185
36 320 196
37 64 374
38 283 411
39 46 582
40 328 453
41 779 448
42 602 152
43 466 934
44 280 317
45 403 425
46 482 80
47 504 575
48 649 348
49 388 331
50 518 731
51 550 364
52 745 421
53 384 205
54 236 226
55 602 498
56 670 80
57 380 177
58 135 333
59 594 841
60 189 250
61 682 470
62 515 19
63 311 39
64 398 363
65 217 615
66 530 879
67 410 679
68 382 240
69 146 456
70 543 339
71 316 436
72 397 382
73 507 783
74 436 314
75 88 469
76 722 341
77 470 876
78 220 551
79 534 495
80 502 5
81 411 463
82 338 218
83 282 593
84 457 514
85 321 215
86 642 783
87 265 503
88 523 805
89 722 444
90 310 484
91 519 392
92 240 338
93 603 451
94 759 337
95 297 386
96 402 351
97 472 108
98 695 410
99 104 462
100 114 450
101 756 305
102 86 489
103 44 553
104 460 908
105 633 383
106 331 210
107 570 378
108 514 367
109 175 505
110 386 95
111 734 396
112 417 932
113 389 341
114 378 185
115 447 23
116 665 479
117 527 14
118 517 904
119 441 419
120 766 356
121 337 208
122 620 439
123 426 246
124 772 362
125 486 62
126 418 385
127 650 348
128 271 262
129 411 558
130 646 356
131 696 414
132 373 318
133 424 669
134 37 391
135 527 551
136 467 76
137 47 399
138 519 673
139 177 563
140 123 536
141 379 160
142 545 767
143 109 240
144 512 821
145 398 332
146 604 453
147 446 505
148 98 478
149 619 86
150 440 331
151 313 75
152 378 124
153 345 109
154 140 505
155 369 214
156 471 938
157 295 494
158 406 535
159 507 9
160 337 217
161 557 465
162 694 200
163 143 453
164 488 429
165 68 566
166 397 360
167 671 843
168 801 435
169 142 482
170 6 644
171 515 950
172 367 377
173 147 488
174 339 119
175 605 490
176 575 507
177 532 463
178 202 497
179 48 487
180 5 557
181 468 325
182 128 283
183 542 852
184 327 183
185 689 497
186 643 790
187 87 460
188 595 425
189 719 414
190 577 932
191 487 810
192 419 419
193 220 574
194 396 468
195 458 24
196 527 678
197 634 503
198 355 117
199 149 516
200 121 467
201 365 233
202 564 673
203 643 335
204 448 908
205 470 869
206 305 267
207 469 868
208 582 349
209 727 340
210 735 436
211 460 476
212 461 906
213 498 36
214 304 429
215 479 327
216 604 443
217 558 409
218 371 88
219 513 866
220 388 135
221 412 274
222 537 411
223 603 794
224 371 214
225 98 529
226 415 273
227 578 488
228 404 330
229 512 538
230 654 46
231 14 285
232 526 585
233 664 331
234 560 452
235 388 344
236 148 546
237 419 366
238 37 552
239 510 758
240 154 358
241 317 496
242 101 531
243 597 86
244 779 374
245 118 357
246 458 252
247 496 396
248 235 313
249 725 432
250 492 69
251 358 258
252 289 187
253 313 208
254 297 425
255 443 516
256 543 458
257 797 465
258 513 45
259 564 201
260 435 16
261 709 500
262 539 440
263 179 201
264 492 865
265 429 5
266 667 984
267 265 491
268 541 338
269 399 351
270 100 480
271 386 214
272 79 687
273 773 468
274 244 603
275 45 401
276 390 262
277 489 973
278 114 522
279 293 326
280 393 348
281 177 517
282 643 781
283 514 33
284 662 863
285 254 350
286 402 378
287 710 395
288 388 325
289 256 400
290 207 297
291 800 371
292 509 86
293 455 472
294 31 603
295 141 450
296 468 101
297 268 677
298 85 472
299 387 214
300 426 270
301 381 324
302 562 354
303 567 453
304 403 427
305 523 918
306 389 370
307 453 486
308 573 379
309 191 580
310 423 683
311 319 275
312 612 413
313 459 44
314 683 490
315 786 466
316 596 138
317 473 859
318 381 210
319 127 314
320 716 359
321 384 243
322 93 482
323 760 471
324 194 604
325 768 315
326 421 623
327 55 365
328 508 407
329 399 120
330 729 403
331 197 490
332 492 445
333 146 443
334 384 384
335 617 237
336 609 513
337 449 444
338 808 393
339 670 376
340 777 492
341 360 508
342 94 660
343 473 382
344 434 322
345 170 460
346 301 175
347 717 388
348 123 484
349 843 415
350 69 466
351 796 452
352 413 237
353 821 294
354 396 325
355 272 191
356 419 258
357 391 760
358 515 18
359 637 988
360 876 412
361 90 512
362 630 373
363 680 354
364 224 510
365 564 151
366 528 173
367 474 967
368 135 481
369 453 24
370 516 867
371 418 933
372 551 776
373 725 450
374 469 558
375 43 517
376 567 415
377 99 504
378 209 156
379 570 935
380 664 488
381 649 209
382 387 178
383 80 463
384 360 169
385 298 260
386 382 315
387 659 867
388 322 258
389 205 652
390 616 354
391 218 21
392 529 714
393 828 384
394 630 396
395 477 75
396 43 364
397 404 366
398 83 360
399 459 934
400 196 555
401 682 409
402 409 376
403 476 39
404 531 448
405 566 402
406 133 461
407 469 68
408 302 430
409 380 411
410 544 311
411 429 219
412 539 887
413 498 861
414 451 15
415 445 659
416 400 240
417 298 186
418 250 655
419 534 558
420 456 479
421 506 804
422 296 419
423 388 190
424 577 164
425 417 375
426 784 347
427 393 173
428 520 751
429 644 335
430 453 44
431 416 198
432 491 848
433 261 548
434 334 468
435 558 308
436 446 325
437 624 371
438 271 71
439 468 103
440 217 249
441 550 410
442 543 380
443 30 452
444 577 491
445 718 433
446 232 501
447 346 235
448 49 567
449 765 305
450 130 452
451 490 841
452 592 865
453 283 390
454 533 53
455 400 325
456 150 462
457 395 247
DEMAND_SECTION
2 86
3 42
4 29
5 22
6 21
7 61
8 22
9 12
10 72
11 71
12 28
13 16
14 14
15 4
16 74
17 64
18 40
19 38
20 64
21 46
22 65
23 82
24 99
25 65
26 53
27 1
28 13
29 29
30 68
31 64
32 37
33 52
34 47
35 7
36 86
37 88
38 9
39 36
40 80
41 91
42 75
43 42
44 75
45 94
46 23
47 48
48 33
49 22
50 63
51 80
52 6
53 21
54 39
55 61
56 55
57 15
58 56
59 35
60 86
61 93
62 32
63 5
64 15
65 14
66 71
67 10
68 57
69 39
70 70
71 19
72 40
73 90
74 42
75 48
COVERAGE_SECTION
2 7 98 287 131 189 347 330 401 
3 7 166 269 280 64 96 235 113 
4 7 406 169 368 456 69 163 173 
5 7 155 224 201 318 53 271 299 
6 7 413 264 432 451 317 219 370 
7 6 200 99 100 406 348 450 
8 6 313 430 403 195 369 115 
9 7 161 10 256 79 177 227 234 
10 7 256 161 177 234 404 9 262 
11 5 300 226 221 356 32 
12 6 326 129 374 415 47 133 
13 7 108 70 268 51 442 91 302 
14 5 379 190 359 171 277 
15 7 306 334 72 286 64 166 172 
16 7 188 376 216 405 217 312 18 
17 3 443 179 375 
18 6 122 312 216 188 93 146 
19 5 421 88 73 144 191 
20 6 278 225 242 377 361 140 
21 6 364 446 178 331 87 78 
22 5 281 199 109 154 236 
23 7 349 393 168 338 360 351 257 
24 6 307 420 293 211 147 255 
25 6 103 238 448 375 165 39 
26 7 164 332 247 328 119 337 343 
27 6 152 110 198 218 153 329 
28 5 388 206 311 385 30 
29 7 320 347 111 287 330 76 209 
30 7 447 82 160 201 106 121 28 
31 7 426 325 94 120 124 449 101 
32 7 123 356 300 11 246 226 352 
33 7 217 405 441 442 376 222 107 
34 7 130 48 127 203 429 390 362 
35 6 259 424 365 366 42 316 
36 7 253 184 106 85 121 417 160 
37 6 327 396 398 137 134 275 
38 7 422 254 453 408 214 95 289 
39 7 448 294 165 103 238 25 180 
40 7 434 71 214 408 90 254 241 
41 7 351 315 273 257 168 323 52 
42 7 316 424 365 35 259 243 149 
43 6 156 399 104 212 204 367 
44 5 279 285 92 248 128 
45 5 304 192 409 119 81 
46 6 395 250 136 125 407 296 
47 5 232 135 419 229 374 
48 7 127 34 130 203 429 233 362 
49 7 288 113 145 301 354 235 455 
50 7 392 428 239 142 73 196 372 
51 7 302 442 107 13 70 308 268 
52 7 210 249 330 111 189 445 89 
53 7 318 271 299 224 423 155 114 
54 7 440 128 355 60 263 252 385 
55 6 175 336 227 444 176 197 
56 5 230 149 243 316 42 
57 7 382 114 427 423 141 384 53 
58 4 319 245 240 182 
59 3 452 223 183 
60 7 440 263 290 54 182 248 143 
61 4 116 314 380 185 
62 7 358 117 159 283 80 213 258 
63 2 151 438 
64 7 166 397 3 306 269 96 280 
65 7 324 274 389 193 309 418 78 
66 7 412 370 219 118 183 413 264 
67 7 310 133 415 326 12 357 138 
68 7 321 457 201 416 276 271 299 
69 7 163 456 295 333 406 4 450 
70 7 268 302 13 51 410 435 108 
71 7 214 408 40 254 422 434 38 
72 7 286 15 334 402 306 397 64 
73 7 19 421 239 88 191 428 144 
74 5 344 436 150 181 228 
75 7 298 187 383 148 322 270 99 
76 5 209 320 29 94 363 
77 5 205 207 317 264 6 
78 7 193 400 309 364 433 21 139 
79 1 9 
80 6 159 358 62 117 283 213 
81 7 194 24 304 45 337 192 293 
82 7 160 121 106 30 85 447 5 
83 6 274 433 193 65 418 78 
84 5 147 255 307 24 420 
85 7 106 253 160 82 121 36 30 
86 5 282 186 223 167 59 
87 6 267 157 446 21 364 433 
88 4 19 421 144 73 
89 6 373 249 445 210 189 52 
90 6 241 157 434 40 267 71 
91 7 328 247 108 222 442 13 33 
92 4 285 248 44 290 
93 4 146 216 122 18 
94 7 120 325 426 124 31 101 209 
95 5 453 38 422 254 289 
96 6 269 3 280 166 64 397 
97 3 439 296 46 
98 5 131 2 401 287 189 
99 6 7 100 75 148 187 200 
100 4 7 99 450 200 
101 7 449 325 94 31 209 76 426 
102 6 322 148 270 298 75 377 
103 5 25 238 448 165 39 
104 6 212 204 399 43 156 77 
105 6 362 394 437 130 34 390 
106 7 121 160 82 85 36 253 30 
107 6 308 33 51 405 302 442 
108 7 13 91 442 247 51 70 268 
109 4 281 22 331 178 
110 2 218 27 
111 7 330 347 189 29 287 52 2 
112 4 371 204 399 43 
113 7 235 280 49 145 269 3 96 
114 7 57 382 423 427 53 384 141 
115 7 369 414 195 260 8 430 313 
116 3 380 61 314 
117 7 62 358 159 283 80 258 213 
118 6 305 66 412 370 219 171 
119 5 192 337 26 45 304 
120 7 124 94 426 244 31 291 29 
121 7 106 160 82 85 36 253 30 
122 2 18 216 
123 6 32 356 352 300 411 416 
124 7 120 244 426 94 291 31 29 
125 6 250 395 46 407 136 403 
126 5 425 402 286 237 72 
127 7 48 130 34 429 203 233 363 
128 6 385 206 28 54 311 388 
129 6 158 12 255 374 84 147 
130 7 34 48 127 203 429 362 437 
131 5 98 2 401 189 287 
132 4 386 301 288 49 
133 7 310 67 415 326 12 138 357 
134 5 137 275 396 37 327 
135 4 419 229 47 232 
136 4 407 395 46 125 
137 5 275 134 37 327 396 
138 6 196 392 202 50 415 428 
139 6 400 309 236 193 324 22 
140 3 278 20 242 
141 4 57 427 382 384 
142 7 372 428 239 73 88 50 19 
143 7 182 319 263 60 58 231 440 
144 3 421 88 19 
145 7 228 354 455 49 288 113 235 
146 4 93 216 122 18 
147 6 255 84 307 24 420 211 
148 6 270 322 75 298 102 99 
149 5 243 56 230 316 42 
150 3 436 344 74 
151 3 63 438 153 
152 5 220 27 329 198 110 
153 4 174 198 27 218 
154 6 199 173 169 368 22 348 
155 7 224 5 318 53 271 299 201 
156 7 43 399 367 104 212 204 277 
157 6 90 241 267 87 434 40 
158 6 129 255 147 341 84 24 
159 6 80 358 62 117 283 213 
160 7 82 106 121 85 30 447 253 
161 7 10 234 9 256 303 177 227 
162 4 381 335 42 316 
163 6 69 295 333 456 406 450 
164 7 26 332 328 247 337 404 91 
165 3 448 39 103 
166 7 64 3 269 397 96 280 306 
167 6 284 387 186 86 282 59 
168 7 351 41 257 315 23 273 338 
169 7 368 173 4 348 456 154 406 
170 7 294 39 272 180 448 342 238 
171 6 305 277 367 118 156 43 
172 4 334 15 306 72 
173 6 169 368 154 4 348 456 
174 3 153 198 27 
175 6 55 336 227 444 197 176 
176 5 444 227 55 175 336 
177 6 256 10 404 262 9 161 
178 5 331 21 364 109 446 
179 3 350 375 17 
180 7 238 25 103 448 39 294 375 
181 5 215 436 150 74 344 
182 7 319 143 58 60 245 240 290 
183 1 66 
184 5 36 106 121 346 253 
185 5 314 261 380 61 116 
186 6 86 282 223 167 59 284 
187 5 383 75 298 99 350 
188 7 16 18 216 312 93 122 146 
189 7 2 330 249 445 287 111 131 
190 4 379 305 412 14 
191 4 421 19 144 451 
192 5 45 304 119 126 337 
193 7 78 309 400 274 324 65 139 
194 7 81 304 45 24 192 341 337 
195 7 369 115 414 8 313 430 403 
196 5 138 392 202 50 428 
197 3 336 55 175 
198 4 153 174 27 152 
199 6 154 22 109 173 281 236 
200 7 7 406 348 450 99 100 4 
201 7 5 68 155 447 224 321 30 
202 4 196 138 392 50 
203 7 429 48 34 127 130 233 390 
204 4 104 212 399 43 
205 6 207 77 317 264 6 413 
206 5 385 311 388 28 128 
207 6 205 77 317 264 6 413 
208 6 302 107 308 390 51 70 
209 5 76 320 29 94 120 
210 6 249 89 373 445 52 189 
211 6 420 293 307 24 147 337 
212 6 104 204 43 399 77 156 
213 6 283 258 403 62 358 159 
214 6 408 254 422 71 38 40 
215 5 181 436 150 74 344 
216 5 93 146 122 18 188 
217 7 441 376 405 33 222 16 107 
218 2 110 27 
219 7 370 413 66 264 6 432 183 
220 4 152 329 141 27 
221 5 226 11 300 356 276 
222 7 441 217 33 91 262 328 376 
223 6 186 86 282 59 372 142 
224 7 155 5 318 271 53 299 201 
225 3 242 20 278 
226 5 221 11 300 356 32 
227 6 444 176 55 175 9 161 
228 5 145 455 354 49 288 
229 3 135 419 47 
230 4 56 149 243 316 
231 7 396 327 37 398 143 134 182 
232 5 47 419 135 229 374 
233 7 429 203 127 48 363 34 130 
234 7 303 161 10 256 262 9 404 
235 7 113 280 3 49 269 96 145 
236 4 140 22 199 139 
237 5 425 402 397 126 64 
238 6 25 103 448 39 180 165 
239 7 428 73 50 142 19 372 421 
240 2 58 245 
241 7 90 157 434 40 341 87 267 
242 3 225 20 278 
243 3 149 316 42 
244 7 124 291 120 426 338 94 31 
245 3 58 398 240 
246 3 32 123 300 
247 7 328 91 343 26 108 164 222 
248 4 92 290 285 44 
249 6 445 210 89 373 189 52 
250 6 125 46 395 407 292 136 
251 3 201 447 30 
252 7 417 346 355 36 253 184 85 
253 7 85 36 106 121 160 82 417 
254 7 422 408 214 38 71 453 95 
255 5 147 84 307 24 420 
256 7 10 177 161 404 234 262 9 
257 6 315 351 273 41 168 340 
258 7 283 213 454 62 358 125 250 
259 5 35 424 366 365 42 
260 7 265 115 414 369 195 430 8 
261 4 185 314 61 380 
262 7 404 256 10 177 234 222 161 
263 6 60 378 440 54 143 355 
264 7 413 6 432 317 219 205 207 
265 7 260 414 115 369 195 430 8 
266 4 359 14 190 379 
267 6 87 157 446 21 364 90 
268 7 70 13 302 410 51 435 108 
269 7 96 3 280 166 64 235 113 
270 6 148 322 75 102 298 99 
271 7 299 318 53 224 155 5 423 
272 5 342 170 294 39 165 
273 6 315 323 41 257 340 351 
274 7 65 193 83 324 418 78 309 
275 4 137 134 37 327 
276 3 457 321 68 
277 6 367 171 156 43 399 305 
278 4 20 242 140 225 
279 2 44 285 
280 7 235 3 269 113 96 166 64 
281 5 109 22 199 178 331 
282 5 86 186 223 167 59 
283 7 258 62 358 213 117 159 454 
284 5 387 167 452 59 186 
285 5 92 44 248 279 453 
286 7 72 402 397 15 306 425 64 
287 7 347 2 98 189 330 111 131 
288 7 49 301 354 145 386 455 113 
289 5 38 453 95 422 254 
290 5 248 440 60 92 285 
291 7 244 338 124 426 393 120 31 
292 5 250 46 125 395 258 
293 6 211 420 307 24 337 147 
294 7 39 448 170 238 103 165 180 
295 5 163 69 333 450 406 
296 4 439 97 46 136 
297 6 418 389 274 65 83 324 
298 7 75 383 187 322 148 102 270 
299 7 271 318 53 224 155 5 423 
300 6 11 226 356 221 32 123 
301 6 288 386 49 132 354 113 
302 7 51 208 70 107 268 308 442 
303 7 234 161 10 256 9 262 16 
304 6 45 192 409 81 119 194 
305 5 118 171 412 66 379 
306 7 15 64 166 72 286 334 3 
307 6 420 24 211 293 147 84 
308 6 107 405 33 51 302 442 
309 6 139 324 400 193 78 65 
310 7 67 133 415 326 12 357 138 
311 3 206 388 28 
312 7 18 188 394 122 16 216 105 
313 5 430 8 403 195 369 
314 5 185 380 61 116 261 
315 7 257 273 351 41 323 340 168 
316 6 42 424 365 243 35 149 
317 6 205 207 77 6 264 432 
318 7 53 271 299 224 155 5 423 
319 5 58 182 245 240 398 
320 6 76 29 209 347 287 363 
321 5 68 457 416 276 201 
322 6 148 270 102 298 75 99 
323 6 273 315 340 41 257 351 
324 7 309 65 193 139 389 400 274 
325 7 449 101 94 31 426 120 124 
326 7 12 415 133 67 310 129 374 
327 6 396 37 398 134 137 275 
328 7 247 91 222 164 26 108 332 
329 4 220 152 110 27 
330 7 111 189 347 287 2 52 249 
331 3 178 109 21 
332 6 164 26 404 328 337 177 
333 4 295 163 69 450 
334 6 15 72 306 172 286 64 
335 3 381 259 35 
336 5 55 175 197 176 444 
337 7 119 293 211 420 26 24 192 
338 7 393 291 244 23 349 168 124 
339 6 363 130 127 48 401 105 
340 5 273 323 315 257 41 
341 6 241 434 158 194 90 40 
342 4 272 294 170 39 
343 4 247 26 328 108 
344 4 74 150 436 228 
345 2 456 69 
346 5 417 252 184 36 355 
347 7 287 111 330 2 29 189 320 
348 6 368 200 7 169 4 270 
349 7 23 360 393 338 168 351 291 
350 4 383 298 75 187 
351 7 257 41 315 168 273 323 340 
352 6 416 123 457 356 411 32 
353 7 31 325 449 426 101 94 291 
354 7 455 145 288 228 49 301 113 
355 7 252 417 346 253 36 54 85 
356 6 123 300 32 11 226 221 
357 1 67 
358 7 62 159 117 283 80 213 258 
359 4 266 14 190 379 
360 7 349 23 393 338 168 291 351 
361 3 377 225 20 
362 7 437 105 130 394 390 34 48 
363 5 339 233 127 48 130 
364 7 21 446 178 331 78 87 267 
365 6 424 35 316 42 366 259 
366 2 35 365 
367 7 277 156 43 399 171 104 212 
368 6 169 4 348 173 200 406 
369 7 195 115 414 8 260 430 313 
370 7 219 66 413 264 6 183 412 
371 4 112 204 399 43 
372 6 142 88 428 73 239 19 
373 5 89 210 249 445 52 
374 5 47 84 229 255 12 
375 2 25 179 
376 7 217 405 16 441 33 188 222 
377 5 361 20 102 278 322 
378 4 263 355 54 252 
379 5 190 305 171 412 14 
380 3 116 314 61 
381 4 335 162 42 259 
382 7 57 427 114 423 141 53 384 
383 5 187 75 298 350 148 
384 2 141 57 
385 5 206 28 388 311 128 
386 5 132 301 288 49 354 
387 5 284 167 452 59 186 
388 5 28 311 206 385 30 
389 7 65 418 324 274 297 309 193 
390 6 437 34 362 130 203 48 
391 3 438 63 151 
392 7 50 196 428 138 239 202 142 
393 7 338 291 349 23 244 360 426 
394 5 105 362 312 437 18 
395 5 46 136 407 125 250 
396 6 327 37 134 137 275 398 
397 7 64 166 402 286 3 96 237 
398 4 37 327 245 396 
399 6 43 156 104 204 212 367 
400 7 139 78 309 193 281 22 236 
401 3 98 131 2 
402 7 286 425 397 72 126 237 64 
403 6 8 313 213 195 430 125 
404 7 262 177 256 10 234 161 303 
405 7 217 33 376 441 107 308 16 
406 7 450 4 163 200 69 295 7 
407 5 136 395 46 125 250 
408 6 214 254 422 71 38 40 
409 2 45 334 
410 4 435 268 70 302 
411 7 352 431 123 32 416 356 299 
412 6 66 118 370 219 183 305 
413 7 6 264 432 219 370 451 317 
414 6 115 369 195 260 265 8 
415 7 133 310 67 326 12 138 196 
416 6 457 352 321 68 276 356 
417 7 252 346 36 355 253 184 85 
418 6 297 389 65 274 83 324 
419 4 135 232 229 47 
420 6 211 293 307 24 147 84 
421 5 19 88 144 191 73 
422 7 254 214 408 38 71 453 95 
423 7 114 382 57 53 427 318 271 
424 6 365 35 42 316 259 366 
425 6 402 237 126 286 397 72 
426 7 31 124 120 94 244 291 325 
427 7 382 57 423 114 141 53 384 
428 7 239 50 142 73 392 372 19 
429 7 203 48 127 34 233 130 390 
430 4 313 8 369 195 
431 7 411 423 53 299 271 427 382 
432 6 451 6 413 264 317 219 
433 7 78 87 193 83 364 446 21 
434 7 40 90 241 71 157 341 214 
435 5 410 70 268 302 208 
436 4 150 344 74 181 
437 6 362 105 390 34 394 130 
438 3 151 63 391 
439 3 296 97 46 
440 7 60 54 290 128 263 248 355 
441 7 217 222 33 376 405 442 262 
442 7 51 33 91 107 13 308 441 
443 2 17 179 
444 6 227 176 55 175 9 161 
445 6 249 89 210 373 189 2 
446 6 21 364 178 87 267 331 
447 7 30 82 201 160 251 5 121 
448 5 39 103 165 238 25 
449 7 101 325 94 31 426 120 209 
450 4 406 295 163 69 
451 5 432 6 413 264 317 
452 3 59 183 412 
453 7 95 38 289 422 254 214 408 
454 4 258 283 62 117 
455 6 354 228 145 288 49 113 
456 7 69 163 4 295 406 333 345 
457 5 416 321 68 276 352 
DEPOT_SECTION
   1
   -1
EOF
