NAME :  X-n716-kX-w286-c7.cctp
COMMENT : 	Adapted by Maziero, Usberti and Cavellucci from the Uchoa, Pecin, Pessoa, Poggi, Subramanian, and Vidal (2013)
TYPE :  CCTP
DIMENSION :    711
EDGE_WEIGHT_TYPE : 	EUC_2D	
CAPACITY : 	1007
VERTICES_WITHIN_COVERAGE :  7
VERTICES_WITH_DEMAND : 	286
NODE_COORD_SECTION
1 377 105
2 535 93
3 820 625
4 689 745
5 807 568
6 589 169
7 649 756
8 821 693
9 567 240
10 517 211
11 598 141
12 903 670
13 713 679
14 574 89
15 395 116
16 829 560
17 409 30
18 804 653
19 918 527
20 829 641
21 828 559
22 559 118
23 591 816
24 985 650
25 510 71
26 528 66
27 556 132
28 568 115
29 692 731
30 877 663
31 703 728
32 820 568
33 716 754
34 790 391
35 613 71
36 898 518
37 838 501
38 465 142
39 440 163
40 859 635
41 907 620
42 532 157
43 791 140
44 463 11
45 894 947
46 883 591
47 718 559
48 697 747
49 928 495
50 877 488
51 732 699
52 747 648
53 541 167
54 801 767
55 817 673
56 495 114
57 853 634
58 769 733
59 592 630
60 481 157
61 832 750
62 630 650
63 858 405
64 774 793
65 393 33
66 918 650
67 842 625
68 781 709
69 670 731
70 698 682
71 888 510
72 691 227
73 607 583
74 684 755
75 719 538
76 561 258
77 657 827
78 712 85
79 686 764
80 620 4
81 801 588
82 802 595
83 651 724
84 558 156
85 679 745
86 815 769
87 466 111
88 544 45
89 884 664
90 720 830
91 700 661
92 765 754
93 525 725
94 486 50
95 743 668
96 765 682
97 679 662
98 677 739
99 821 657
100 678 742
101 627 767
102 597 221
103 484 73
104 709 772
105 738 931
106 564 124
107 619 81
108 841 603
109 807 381
110 817 571
111 822 587
112 547 622
113 768 501
114 676 748
115 861 546
116 981 603
117 671 700
118 954 787
119 506 265
120 535 190
121 711 647
122 951 510
123 673 817
124 664 807
125 568 712
126 802 650
127 813 632
128 752 771
129 541 571
130 649 901
131 782 710
132 734 199
133 626 25
134 459 77
135 708 753
136 896 709
137 516 250
138 724 727
139 717 623
140 621 24
141 813 655
142 606 693
143 717 802
144 341 76
145 390 94
146 533 205
147 731 603
148 628 35
149 871 644
150 953 650
151 972 653
152 911 704
153 426 136
154 462 6
155 737 617
156 799 558
157 856 548
158 426 177
159 650 737
160 698 750
161 677 68
162 882 489
163 500 9
164 706 709
165 555 389
166 676 409
167 618 687
168 724 495
169 526 133
170 769 171
171 813 596
172 493 12
173 569 840
174 800 914
175 814 628
176 761 651
177 449 703
178 444 124
179 459 88
180 780 712
181 743 689
182 671 749
183 780 634
184 666 798
185 757 743
186 935 662
187 703 732
188 446 133
189 840 701
190 716 790
191 689 226
192 544 125
193 719 724
194 542 166
195 698 689
196 763 420
197 791 644
198 526 115
199 688 744
200 641 803
201 913 536
202 773 597
203 704 820
204 703 717
205 883 666
206 812 727
207 695 972
208 483 119
209 458 155
210 569 802
211 818 695
212 680 669
213 645 788
214 431 259
215 604 723
216 702 777
217 777 847
218 849 641
219 793 567
220 785 663
221 892 555
222 328 354
223 494 71
224 723 547
225 817 501
226 630 116
227 682 664
228 654 801
229 770 590
230 819 644
231 440 119
232 568 904
233 825 582
234 805 573
235 619 286
236 444 89
237 734 438
238 455 238
239 802 575
240 531 665
241 611 583
242 882 653
243 629 743
244 432 156
245 941 611
246 654 19
247 827 604
248 517 50
249 673 241
250 873 575
251 805 702
252 538 133
253 873 905
254 382 39
255 572 101
256 724 757
257 659 792
258 724 720
259 696 688
260 528 89
261 841 589
262 458 136
263 399 884
264 474 156
265 395 137
266 464 23
267 787 798
268 449 182
269 472 104
270 558 0
271 719 534
272 826 574
273 510 126
274 564 190
275 576 211
276 827 635
277 531 155
278 553 135
279 586 5
280 532 92
281 539 408
282 571 678
283 524 221
284 831 657
285 715 782
286 573 132
287 941 698
288 501 712
289 786 9
290 397 88
291 528 185
292 614 113
293 370 164
294 722 24
295 676 561
296 810 607
297 839 712
298 791 642
299 565 17
300 906 703
301 497 60
302 897 655
303 933 544
304 905 584
305 796 690
306 619 848
307 426 263
308 560 205
309 794 660
310 500 633
311 777 677
312 701 755
313 538 23
314 439 226
315 659 216
316 479 165
317 762 652
318 635 649
319 603 716
320 469 60
321 961 442
322 830 674
323 906 771
324 610 158
325 908 677
326 380 165
327 644 481
328 582 14
329 724 774
330 898 676
331 647 742
332 523 98
333 685 113
334 848 868
335 981 544
336 676 692
337 680 745
338 645 758
339 557 68
340 757 755
341 686 747
342 799 670
343 516 261
344 507 53
345 785 686
346 672 53
347 495 73
348 617 30
349 375 182
350 398 104
351 587 644
352 632 164
353 687 765
354 530 37
355 708 738
356 670 841
357 420 201
358 832 651
359 669 756
360 693 707
361 834 40
362 790 543
363 456 235
364 971 447
365 758 803
366 762 602
367 578 210
368 721 751
369 708 762
370 622 645
371 701 683
372 537 199
373 820 588
374 734 650
375 841 717
376 488 202
377 741 780
378 788 773
379 991 514
380 640 746
381 849 646
382 879 660
383 865 695
384 697 803
385 537 90
386 478 251
387 652 757
388 589 6
389 588 132
390 832 604
391 553 791
392 863 485
393 722 716
394 811 641
395 477 61
396 653 665
397 943 769
398 417 157
399 577 15
400 623 524
401 917 694
402 894 565
403 563 48
404 732 557
405 877 596
406 520 80
407 746 900
408 719 547
409 785 617
410 833 635
411 682 720
412 708 619
413 717 744
414 576 805
415 724 645
416 624 678
417 420 66
418 684 762
419 603 661
420 565 102
421 658 696
422 657 772
423 685 550
424 420 118
425 611 73
426 477 191
427 739 646
428 696 742
429 499 127
430 630 1
431 458 130
432 814 606
433 703 731
434 540 79
435 704 774
436 794 695
437 809 734
438 636 81
439 667 716
440 866 744
441 908 653
442 537 119
443 592 805
444 805 793
445 615 727
446 611 127
447 579 90
448 854 854
449 524 75
450 758 738
451 489 114
452 494 94
453 737 606
454 528 65
455 547 656
456 559 88
457 522 61
458 482 815
459 488 816
460 817 608
461 890 512
462 678 165
463 995 478
464 544 195
465 757 607
466 814 524
467 801 670
468 901 581
469 709 580
470 924 348
471 945 660
472 607 77
473 734 731
474 695 744
475 648 914
476 516 34
477 531 66
478 400 777
479 709 609
480 854 545
481 739 759
482 850 405
483 745 749
484 956 623
485 674 735
486 522 149
487 767 665
488 668 719
489 700 119
490 884 343
491 738 650
492 704 884
493 686 655
494 669 715
495 613 404
496 839 634
497 673 770
498 458 198
499 535 155
500 681 673
501 612 153
502 680 186
503 508 183
504 617 696
505 854 424
506 752 788
507 609 792
508 815 832
509 727 873
510 682 693
511 539 196
512 657 736
513 621 216
514 747 614
515 786 784
516 941 669
517 629 62
518 799 640
519 512 85
520 790 810
521 659 773
522 814 655
523 723 624
524 904 688
525 614 81
526 766 472
527 622 737
528 746 775
529 724 690
530 553 87
531 488 46
532 728 755
533 629 541
534 545 91
535 683 771
536 759 838
537 770 472
538 828 706
539 947 526
540 571 297
541 891 583
542 617 861
543 909 572
544 473 73
545 684 261
546 857 723
547 949 759
548 549 106
549 771 552
550 776 859
551 669 741
552 607 102
553 496 70
554 681 708
555 624 784
556 548 78
557 864 673
558 952 875
559 651 752
560 709 747
561 724 748
562 266 39
563 625 743
564 894 666
565 928 560
566 707 731
567 511 817
568 622 699
569 779 670
570 805 653
571 714 810
572 912 739
573 652 689
574 620 693
575 508 130
576 773 560
577 528 154
578 653 486
579 534 55
580 453 106
581 820 653
582 707 784
583 816 606
584 618 298
585 798 672
586 720 862
587 614 45
588 493 26
589 747 740
590 757 655
591 504 689
592 845 653
593 551 125
594 734 628
595 705 719
596 463 8
597 680 929
598 576 77
599 574 577
600 478 93
601 624 110
602 801 601
603 716 610
604 924 825
605 692 799
606 490 168
607 644 822
608 569 6
609 757 397
610 873 635
611 629 137
612 623 728
613 723 618
614 778 727
615 701 727
616 655 71
617 878 620
618 629 757
619 834 753
620 883 622
621 582 30
622 852 520
623 828 545
624 737 691
625 698 610
626 660 626
627 710 688
628 725 765
629 653 735
630 724 719
631 829 553
632 783 886
633 635 6
634 853 652
635 759 729
636 598 56
637 731 454
638 699 762
639 931 436
640 877 690
641 646 849
642 672 660
643 692 743
644 733 600
645 782 574
646 723 64
647 479 75
648 560 127
649 418 158
650 610 838
651 406 120
652 509 118
653 645 98
654 627 101
655 852 709
656 999 816
657 793 527
658 742 669
659 616 172
660 458 301
661 700 223
662 747 764
663 677 767
664 654 102
665 687 680
666 902 705
667 529 653
668 769 686
669 810 979
670 891 663
671 836 883
672 917 552
673 580 241
674 828 605
675 650 340
676 845 598
677 494 195
678 903 617
679 652 236
680 957 745
681 720 631
682 573 182
683 716 702
684 698 762
685 535 124
686 480 176
687 661 559
688 520 195
689 887 583
690 536 133
691 609 48
692 533 641
693 929 673
694 906 679
695 721 79
696 887 598
697 634 37
698 990 612
699 927 659
700 654 624
701 552 100
702 846 570
703 658 676
704 525 68
705 892 591
706 462 157
707 909 770
708 649 951
709 863 795
710 619 603
711 869 503
DEMAND_SECTION
2 47
3 21
4 19
5 37
6 40
7 79
8 60
9 88
10 84
11 75
12 12
13 42
14 21
15 91
16 6
17 57
18 7
19 66
20 7
21 99
22 75
23 4
24 85
25 10
26 29
27 6
28 20
29 7
30 50
31 26
32 29
33 99
34 45
35 57
36 14
37 33
38 2
39 38
40 43
41 64
42 85
43 84
44 46
45 53
46 45
47 48
48 48
49 85
50 60
51 2
52 17
53 12
54 99
55 43
56 40
57 29
58 13
59 29
60 26
61 66
62 45
63 34
64 33
65 6
66 72
67 34
68 16
69 36
70 69
71 10
72 10
73 12
74 97
75 87
76 24
77 57
78 17
79 86
80 76
81 81
82 30
83 10
84 36
85 28
86 41
87 53
88 7
89 40
90 46
91 28
92 28
93 62
94 51
95 30
96 98
97 53
98 5
99 15
100 27
101 37
102 68
103 11
104 14
105 71
106 97
107 49
108 50
109 43
110 65
111 19
112 42
113 88
114 96
115 57
116 65
117 36
118 28
119 50
120 38
121 84
122 8
123 69
124 29
125 86
126 99
127 29
128 78
129 79
130 23
131 68
132 50
133 26
134 26
135 57
136 10
137 84
138 64
139 35
140 27
141 3
142 18
143 63
144 100
145 45
146 35
147 7
148 7
149 29
150 90
151 49
152 86
153 100
154 75
155 18
156 32
157 29
158 15
159 47
160 26
161 27
162 4
163 57
164 88
165 94
166 73
167 64
168 49
169 89
170 76
171 13
172 57
173 27
174 4
175 34
176 2
177 93
178 27
179 26
180 67
181 95
182 54
183 67
184 5
185 31
186 26
187 40
188 40
189 81
190 27
191 100
192 96
193 35
194 26
195 48
196 45
197 31
198 36
199 46
200 85
201 29
202 11
203 46
204 44
205 5
206 51
207 47
208 2
209 72
210 48
211 81
212 47
213 26
214 48
215 18
216 47
217 15
218 39
219 1
220 57
221 34
222 65
223 3
224 40
225 46
226 66
227 7
228 23
229 29
230 44
231 21
232 72
233 44
234 46
235 1
236 91
237 29
238 86
239 18
240 53
241 24
242 78
243 36
244 50
245 13
246 1
247 19
248 66
249 95
250 92
251 67
252 85
253 77
254 56
255 71
256 11
257 99
258 4
259 100
260 26
261 78
262 24
263 2
264 61
265 73
266 62
267 43
268 1
269 89
270 39
271 63
272 8
273 89
274 94
275 57
276 79
277 46
278 41
279 85
280 15
281 10
282 64
283 2
284 27
285 1
286 28
287 21
COVERAGE_SECTION
2 7 280 385 260 534 332 434 701 
3 7 175 127 276 410 460 20 394 
4 7 199 341 643 474 48 428 337 
5 7 234 239 110 32 156 219 272 
6 7 682 324 659 501 11 274 84 
7 7 387 338 559 380 331 422 159 
8 7 211 538 251 55 189 322 305 
9 7 673 76 275 367 102 308 283 
10 7 283 688 146 372 511 120 291 
11 7 389 501 446 324 286 6 611 
12 7 330 325 694 564 670 302 441 
13 7 627 371 70 529 195 259 91 
14 7 447 255 598 456 420 530 701 
15 7 350 651 265 145 424 290 153 
16 7 21 631 32 272 623 110 702 
17 7 65 254 417 266 44 154 596 
18 7 570 126 141 522 309 394 518 
19 7 201 36 303 672 539 461 49 
20 7 276 410 230 358 496 581 284 
21 7 16 631 32 623 272 110 702 
22 7 106 28 648 593 27 548 192 
23 7 443 414 210 650 507 173 306 
24 7 151 150 698 484 471 116 516 
25 7 406 519 553 347 449 704 223 
26 7 454 477 704 457 449 579 406 
27 7 278 648 593 106 22 192 286 
28 7 22 106 420 648 255 286 593 
29 7 615 31 187 433 428 643 474 
30 7 382 89 205 242 670 557 564 
31 7 615 433 187 566 595 29 204 
32 7 110 272 16 21 5 233 234 
33 7 368 135 256 413 560 561 369 
34 7 109 609 196 482 63 505 237 
35 7 425 472 525 107 517 636 691 
36 7 461 71 19 201 162 711 50 
37 7 225 622 392 711 466 50 623 
38 7 262 431 209 706 264 188 60 
39 7 244 158 209 268 649 706 398 
40 7 57 218 610 149 381 634 67 
41 7 678 620 617 696 66 441 705 
42 7 277 499 577 53 194 486 690 
43 7 170 132 489 695 78 646 333 
44 7 596 154 266 172 588 163 531 
45 7 253 671 669 334 558 174 448 
46 7 405 696 689 705 541 250 468 
47 7 408 224 404 75 469 271 423 
48 7 160 474 428 643 4 199 312 
49 7 122 19 539 36 461 71 201 
50 7 162 392 711 71 461 36 37 
51 7 624 529 181 683 393 258 630 
52 7 427 491 590 374 176 317 95 
53 7 194 42 499 277 577 84 291 
54 7 86 378 515 444 267 437 61 
55 7 322 99 467 141 342 522 585 
56 7 451 208 429 652 273 452 575 
57 7 40 218 381 67 496 634 410 
58 7 614 635 450 185 92 589 180 
59 7 351 419 370 710 62 112 318 
60 7 264 316 606 686 706 38 209 
61 7 619 86 437 206 375 54 440 
62 7 318 370 396 416 419 700 626 
63 7 482 505 109 490 34 639 392 
64 7 267 515 365 506 520 378 128 
65 7 254 17 417 290 145 144 350 
66 7 441 699 186 302 12 693 325 
67 7 496 410 57 218 276 40 20 
68 7 131 180 614 436 345 305 251 
69 7 485 551 98 488 100 512 439 
70 7 371 259 195 665 627 13 500 
71 7 461 36 711 162 50 19 392 
72 7 191 661 249 315 545 679 502 
73 7 241 710 599 533 59 687 400 
74 7 418 341 79 353 4 85 114 
75 7 271 408 224 47 404 423 168 
76 7 9 673 540 343 137 275 367 
77 7 607 123 356 124 641 228 200 
78 7 695 646 489 161 333 346 616 
79 7 353 418 535 74 663 684 638 
80 7 430 633 140 133 348 388 148 
81 7 82 239 602 171 234 373 5 
82 7 602 81 171 296 432 583 373 
83 7 629 159 512 331 439 488 69 
84 7 194 53 278 499 27 42 277 
85 7 337 100 114 98 341 182 199 
86 7 54 61 619 444 378 515 437 
87 7 269 580 208 431 600 451 179 
88 7 579 354 403 313 477 26 339 
89 7 205 382 30 670 564 242 302 
90 7 203 571 143 586 384 190 536 
91 7 493 121 227 70 97 13 212 
92 7 340 185 450 58 128 483 662 
93 7 288 591 125 240 282 391 455 
94 7 531 395 301 320 344 223 553 
95 7 658 491 590 52 374 181 427 
96 7 668 311 487 569 345 181 95 
97 7 227 212 642 493 500 665 91 
98 7 100 485 85 337 551 114 69 
99 7 581 522 141 284 230 358 55 
100 7 85 98 337 114 485 341 551 
101 7 618 555 338 243 563 7 380 
102 7 367 275 513 673 9 308 274 
103 7 647 223 347 544 553 395 301 
104 7 435 216 369 285 582 638 329 
105 7 407 492 597 207 509 174 632 
106 7 648 22 28 27 286 593 278 
107 7 525 425 35 472 438 517 654 
108 7 676 390 674 247 261 67 111 
109 7 34 482 609 63 196 505 490 
110 7 32 272 5 234 233 16 21 
111 7 373 233 171 272 110 247 32 
112 7 692 455 667 59 240 351 310 
113 7 526 537 657 168 362 225 466 
114 7 85 182 337 100 98 341 551 
115 7 157 480 622 702 250 221 623 
116 7 698 484 245 24 151 150 335 
117 7 336 510 554 421 494 439 488 
118 7 397 547 680 604 707 323 656 
119 7 343 137 386 283 10 76 238 
120 7 511 291 372 464 146 688 53 
121 7 415 91 681 374 139 493 523 
122 7 539 49 19 303 379 335 201 
123 7 124 77 184 356 228 605 384 
124 7 184 228 123 257 77 200 607 
125 7 282 319 215 142 93 445 504 
126 7 18 570 518 141 197 309 394 
127 7 175 394 3 230 276 518 20 
128 7 528 662 377 340 506 481 92 
129 7 599 112 73 692 241 310 59 
130 7 475 597 708 542 641 492 306 
131 7 68 180 614 436 251 305 345 
132 7 661 170 72 191 502 462 249 
133 7 140 148 348 697 633 80 587 
134 7 179 544 236 320 647 395 103 
135 7 560 312 33 369 160 48 368 
136 7 666 300 152 524 401 640 694 
137 7 343 119 283 386 10 76 146 
138 7 193 258 630 393 473 566 413 
139 7 523 613 681 412 603 479 594 
140 7 133 348 148 697 80 587 633 
141 7 522 581 99 570 18 126 230 
142 7 504 167 574 568 319 416 215 
143 7 571 190 285 384 582 203 605 
144 7 145 254 290 350 15 65 651 
145 7 290 350 15 651 424 417 265 
146 7 372 511 120 464 688 10 283 
147 7 644 453 155 603 613 514 523 
148 7 697 133 348 140 587 691 517 
149 7 610 242 40 382 30 634 57 
150 7 471 151 186 516 484 699 24 
151 7 24 150 471 484 516 186 698 
152 7 300 666 401 136 524 694 325 
153 7 424 188 244 178 231 398 649 
154 7 596 44 266 172 588 163 531 
155 7 514 453 594 613 147 523 644 
156 7 219 5 234 239 362 110 32 
157 7 480 115 702 631 622 623 16 
158 7 39 649 244 398 268 357 498 
159 7 629 331 512 83 380 559 7 
160 7 48 312 474 428 643 4 135 
161 7 346 616 78 664 438 653 695 
162 7 50 392 711 71 461 36 622 
163 7 172 588 476 44 596 154 266 
164 7 204 595 683 360 393 31 615 
165 7 281 495 540 675 584 235 166 
166 7 495 237 637 675 327 578 609 
167 7 574 504 416 142 568 419 319 
168 7 271 637 75 113 526 537 224 
169 7 690 252 685 486 273 198 442 
170 7 43 132 489 661 502 462 72 
171 7 432 583 82 296 373 111 460 
172 7 163 588 44 596 266 154 476 
173 7 23 414 210 650 443 306 391 
174 7 632 671 407 550 105 334 669 
175 7 127 3 394 276 230 518 20 
176 7 317 590 52 487 427 491 95 
177 7 288 591 93 310 478 240 667 
178 7 231 188 431 262 580 153 424 
179 7 134 236 580 600 269 544 87 
180 7 68 131 614 436 58 345 251 
181 7 624 51 529 658 95 96 668 
182 7 114 359 551 85 100 337 98 
183 7 298 197 409 518 176 317 126 
184 7 124 257 228 123 213 200 521 
185 7 450 589 340 483 92 635 58 
186 7 516 699 471 693 66 150 441 
187 7 433 31 566 615 355 29 428 
188 7 178 262 431 231 153 38 209 
189 7 297 538 655 375 8 211 383 
190 7 285 582 143 329 104 216 435 
191 7 72 661 249 315 545 679 502 
192 7 593 442 685 252 690 278 27 
193 7 138 258 630 393 566 595 31 
194 7 53 42 499 277 577 84 291 
195 7 259 70 371 627 665 510 13 
196 7 609 237 34 637 526 537 109 
197 7 298 518 126 183 18 309 570 
198 7 442 685 332 652 169 273 192 
199 7 4 341 643 474 337 428 48 
200 7 228 213 607 257 124 184 555 
201 7 19 672 303 36 221 565 461 
202 7 229 366 465 409 645 602 81 
203 7 571 384 90 143 605 123 190 
204 7 595 164 615 31 360 433 187 
205 7 89 30 382 670 564 242 302 
206 7 437 251 538 61 297 375 211 
207 7 597 708 105 475 130 407 492 
208 7 451 56 429 87 269 600 652 
209 7 706 38 264 262 39 60 316 
210 7 414 391 443 23 173 507 650 
211 7 8 251 538 55 189 305 322 
212 7 500 227 97 642 665 493 70 
213 7 257 200 228 422 521 555 184 
214 7 307 238 314 363 386 660 357 
215 7 319 445 612 527 563 142 504 
216 7 435 104 582 285 638 369 684 
217 7 550 536 520 632 508 365 267 
218 7 381 57 40 496 634 592 67 
219 7 156 239 234 645 5 576 81 
220 7 309 569 311 342 585 467 487 
221 7 402 543 672 201 250 468 541 
222 7 307 214 660 314 238 363 349 
223 7 347 553 103 301 25 647 395 
224 7 408 75 47 404 271 469 423 
225 7 37 466 657 622 623 113 392 
226 7 601 654 292 611 446 653 552 
227 7 97 212 500 493 642 665 91 
228 7 257 124 184 200 213 607 123 
229 7 202 366 645 465 576 81 409 
230 7 394 581 20 276 522 99 127 
231 7 178 188 580 424 431 153 262 
232 7 173 542 306 650 130 475 23 
233 7 111 272 373 110 32 261 171 
234 7 239 5 110 219 32 81 156 
235 7 584 540 673 679 675 76 9 
236 7 179 134 580 231 87 269 417 
237 7 637 196 526 609 537 168 166 
238 7 363 314 386 214 307 498 376 
239 7 234 5 219 81 110 156 32 
240 7 667 455 692 591 282 310 112 
241 7 73 710 599 533 59 687 700 
242 7 382 30 89 205 670 149 302 
243 7 563 527 380 618 612 331 445 
244 7 39 649 398 153 158 209 188 
245 7 484 41 678 116 150 66 304 
246 7 633 697 133 430 148 140 80 
247 7 674 390 460 583 432 108 171 
248 7 344 457 476 354 579 26 454 
249 7 191 679 72 545 315 661 502 
250 7 689 46 541 405 402 705 696 
251 7 436 211 305 8 538 131 68 
252 7 690 685 192 169 442 278 593 
253 6 671 334 45 448 174 558 
254 7 65 17 417 290 144 145 350 
255 7 420 14 447 28 456 701 22 
256 7 532 368 628 33 561 413 481 
257 7 184 228 213 124 521 422 200 
258 7 630 393 193 138 473 595 566 
259 7 195 70 371 665 627 510 13 
260 7 280 2 385 332 406 449 434 
261 7 676 108 233 390 111 702 247 
262 7 431 38 188 178 209 706 231 
263 7 478 458 459 567 232 173 391 
264 7 60 316 706 209 38 606 686 
265 7 651 15 398 153 424 649 326 
266 7 44 596 154 588 172 531 94 
267 7 520 64 515 444 378 365 54 
268 7 498 39 158 209 706 426 244 
269 7 87 600 208 580 451 179 452 
270 7 608 299 399 279 328 313 388 
271 7 75 408 224 47 404 423 168 
272 7 32 233 110 16 111 21 373 
273 7 575 652 429 169 56 198 451 
274 7 682 308 464 275 367 511 372 
275 7 367 308 102 274 682 9 673 
276 7 20 410 3 230 496 127 175 
277 7 42 577 499 486 53 194 169 
278 7 27 593 648 192 252 106 690 
279 7 388 328 399 608 299 621 270 
280 7 2 260 385 332 534 434 406 
281 7 165 495 540 327 675 660 584 
282 7 455 125 419 142 351 240 167 
283 7 10 146 372 688 511 137 120 
284 7 358 99 581 592 20 322 522 
285 7 190 582 104 329 216 435 143 
286 7 106 648 389 27 28 22 278 
287 7 401 693 516 152 300 186 471 
288 7 591 93 177 240 667 125 455 
289 7 361 294 646 695 78 346 161 
290 7 145 350 15 417 651 424 236 
291 7 120 688 511 372 464 503 146 
292 7 601 552 446 226 654 611 11 
293 7 326 349 265 398 649 15 158 
294 7 646 695 346 78 161 289 246 
295 7 423 687 469 47 408 75 224 
296 7 432 583 460 171 602 82 247 
297 7 375 189 538 655 546 8 211 
298 7 197 518 126 183 18 309 570 
299 7 399 608 328 270 621 279 388 
300 7 666 152 136 401 524 694 325 
301 7 553 223 344 347 94 25 531 
302 7 670 441 564 242 12 89 205 
303 7 565 672 201 19 539 543 122 
304 7 468 543 541 705 689 402 46 
305 7 436 345 251 585 342 467 211 
306 7 542 650 641 607 23 77 200 
307 7 214 238 314 363 660 386 357 
308 7 274 275 367 464 511 372 682 
309 7 220 342 18 467 126 570 585 
310 7 692 667 240 112 455 591 129 
311 7 569 345 668 96 220 487 585 
312 7 160 135 638 684 48 369 560 
313 7 354 88 476 299 270 579 248 
314 7 363 238 357 214 498 307 268 
315 7 679 249 191 72 502 513 661 
316 7 60 264 606 686 706 209 426 
317 7 176 590 487 52 427 491 95 
318 7 62 370 396 416 700 419 626 
319 7 215 445 142 612 504 568 527 
320 7 395 544 647 94 103 134 531 
321 7 364 639 463 49 122 379 539 
322 7 55 284 99 8 358 581 211 
323 7 707 572 397 547 440 709 118 
324 7 501 659 11 352 6 611 446 
325 7 694 12 330 524 564 401 693 
326 7 293 349 265 398 649 158 15 
327 6 578 400 533 166 423 687 
328 7 399 279 388 608 621 299 270 
329 7 628 285 104 256 190 377 532 
330 7 12 694 325 564 524 670 89 
331 7 159 380 629 559 512 7 338 
332 7 260 280 2 385 198 519 406 
333 7 489 664 78 653 161 695 462 
334 6 448 671 253 508 174 632 
335 7 379 539 122 303 565 116 672 
336 7 510 117 665 554 421 259 500 
337 7 85 100 114 341 98 199 4 
338 7 7 387 559 380 331 618 422 
339 7 556 530 434 456 403 598 88 
340 7 92 185 483 662 128 450 481 
341 7 4 199 337 85 643 74 100 
342 7 467 585 309 220 18 55 570 
343 7 119 137 386 283 76 10 9 
344 7 248 301 457 25 531 553 94 
345 7 305 311 436 668 569 585 96 
346 7 161 616 246 697 517 438 148 
347 7 223 553 103 301 25 647 452 
348 7 140 133 148 587 697 691 80 
349 7 326 293 265 357 398 649 158 
350 7 15 145 290 651 424 265 153 
351 7 59 419 370 282 455 62 112 
352 7 659 324 501 611 11 6 446 
353 7 79 418 535 74 663 684 638 
354 7 476 88 313 248 579 457 344 
355 7 566 187 433 560 31 413 428 
356 7 77 123 641 607 124 203 184 
357 7 158 314 268 498 39 649 398 
358 7 284 20 581 99 592 230 410 
359 7 182 114 663 74 85 497 551 
360 7 554 164 204 411 595 510 195 
361 7 289 43 294 646 695 78 170 
362 7 657 156 549 219 576 5 466 
363 7 238 314 386 214 498 307 376 
364 7 321 463 639 49 122 379 539 
365 7 506 64 267 377 528 128 520 
366 7 465 202 229 514 453 409 155 
367 7 275 308 102 274 682 673 9 
368 7 561 33 256 413 532 135 560 
369 7 135 638 104 312 684 33 435 
370 7 62 318 419 416 59 351 396 
371 7 70 195 259 627 13 665 510 
372 7 511 146 464 120 291 688 10 
373 7 111 233 171 272 110 247 583 
374 7 491 427 415 52 95 658 594 
375 7 297 655 189 538 546 8 206 
376 7 677 426 686 503 10 498 688 
377 7 528 128 506 662 329 481 628 
378 7 515 54 64 267 444 86 92 
379 7 335 463 122 539 303 49 364 
380 7 331 243 7 159 338 559 563 
381 7 218 634 592 57 40 496 358 
382 7 30 89 205 242 670 564 149 
383 7 640 655 557 189 546 297 375 
384 7 605 203 571 143 582 190 216 
385 7 2 280 534 260 434 332 530 
386 7 238 363 119 137 343 314 214 
387 7 7 559 338 331 380 422 359 
388 7 279 328 399 608 621 299 80 
389 7 11 286 446 106 28 648 22 
390 7 674 247 108 676 460 583 261 
391 7 210 414 443 23 567 173 507 
392 7 50 162 711 37 71 622 461 
393 7 258 630 193 138 683 164 595 
394 7 127 230 518 126 175 570 18 
395 7 320 544 94 103 647 531 223 
396 7 703 642 318 573 97 62 212 
397 7 547 118 680 707 323 572 604 
398 7 649 244 158 153 39 265 188 
399 7 328 299 608 279 388 621 270 
400 6 533 327 578 687 241 73 
401 7 152 300 524 325 666 694 287 
402 7 221 468 543 541 689 304 250 
403 7 88 339 621 579 299 598 556 
404 7 224 47 408 75 271 469 549 
405 7 46 696 689 705 541 250 617 
406 7 449 519 260 25 704 26 280 
407 7 105 509 632 492 586 550 174 
408 7 224 75 47 271 404 423 469 
409 7 183 202 602 298 296 366 518 
410 7 276 496 20 67 3 358 218 
411 7 554 488 494 29 69 439 360 
412 7 139 479 603 625 613 523 681 
413 7 368 561 560 33 355 135 256 
414 7 210 443 23 391 507 173 650 
415 7 374 121 427 491 681 594 523 
416 7 167 574 504 568 142 419 62 
417 7 290 236 17 134 145 65 350 
418 7 79 353 74 535 663 497 684 
419 7 351 370 416 62 167 142 59 
420 7 255 28 701 456 14 548 22 
421 7 573 117 336 703 439 494 510 
422 7 521 387 497 7 338 213 257 
423 7 295 687 47 408 75 224 271 
424 7 651 153 231 15 178 350 188 
425 7 35 472 525 107 517 636 691 
426 7 686 376 677 498 316 606 268 
427 7 491 374 52 415 594 590 95 
428 7 474 643 48 4 160 199 341 
429 7 575 273 652 56 451 208 169 
430 7 633 80 133 140 246 348 148 
431 7 262 188 38 178 87 231 209 
432 7 583 296 460 171 247 602 674 
433 7 187 31 566 615 355 29 595 
434 7 556 385 534 2 280 530 260 
435 7 216 104 582 369 638 684 285 
436 7 305 251 345 68 131 180 585 
437 7 206 61 619 251 614 54 538 
438 7 107 653 517 616 525 654 35 
439 7 494 488 69 117 411 554 83 
440 7 546 619 61 375 655 297 136 
441 7 66 302 12 564 670 699 325 
442 7 685 192 198 252 690 593 169 
443 7 23 414 507 210 555 650 391 
444 7 267 515 520 54 86 378 64 
445 7 612 215 527 319 563 243 568 
446 7 292 11 601 611 226 389 552 
447 7 14 255 598 420 456 530 28 
448 6 334 671 508 253 709 604 
449 7 406 704 26 454 477 457 25 
450 7 185 635 589 58 92 340 483 
451 7 56 208 429 269 652 452 87 
452 7 600 56 519 347 451 103 223 
453 7 147 644 155 514 613 465 603 
454 7 26 477 704 457 449 579 406 
455 7 240 667 692 282 112 351 59 
456 7 530 534 701 14 420 556 255 
457 7 454 26 704 477 248 579 449 
458 7 459 567 391 210 478 173 414 
459 7 458 567 391 210 173 414 478 
460 7 583 432 296 247 674 171 390 
461 7 71 36 711 162 50 19 201 
462 7 502 352 489 333 315 611 191 
463 7 379 364 321 122 335 539 49 
464 7 511 372 120 146 291 308 274 
465 7 366 514 202 453 229 155 644 
466 7 657 225 623 362 37 631 156 
467 7 342 585 309 55 18 220 570 
468 7 304 541 543 705 689 402 46 
469 7 47 479 603 644 147 625 404 
470 7 490 63 639 482 321 505 364 
471 7 186 516 150 699 693 151 66 
472 7 425 35 525 107 636 552 517 
473 7 138 258 589 630 193 393 561 
474 7 428 643 48 4 160 199 341 
475 7 130 597 708 542 492 641 306 
476 7 354 248 344 588 313 457 579 
477 7 26 454 704 457 449 579 434 
478 7 177 458 459 263 567 288 93 
479 7 603 412 625 139 613 523 147 
480 7 157 115 622 623 631 702 16 
481 7 662 483 532 256 628 528 128 
482 7 63 505 109 34 490 392 50 
483 7 589 481 185 340 662 450 532 
484 7 245 150 116 151 698 471 24 
485 7 98 69 100 551 85 337 114 
486 7 577 277 42 499 169 690 252 
487 7 569 317 590 176 311 96 220 
488 7 439 494 69 411 485 554 83 
489 7 333 78 695 664 462 161 653 
490 7 470 63 482 109 505 639 34 
491 7 374 427 52 415 95 658 590 
492 7 509 586 407 597 356 90 105 
493 7 97 227 91 212 642 500 665 
494 7 439 488 411 554 117 69 83 
495 7 165 166 281 675 327 578 584 
496 7 410 67 20 218 276 57 381 
497 7 663 535 79 418 521 353 359 
498 7 268 426 376 686 314 677 363 
499 7 42 277 577 53 194 486 252 
500 7 212 227 665 97 642 70 493 
501 7 324 11 659 352 611 446 6 
502 7 462 315 191 72 661 352 249 
503 7 688 677 291 606 120 376 10 
504 7 574 568 167 142 416 319 215 
505 7 63 482 392 109 50 162 34 
506 7 377 528 365 128 64 662 329 
507 7 555 443 23 101 200 414 213 
508 6 520 444 217 267 448 550 
509 7 586 492 407 90 536 550 217 
510 7 336 117 665 259 554 195 360 
511 7 372 464 120 146 291 688 308 
512 7 629 159 331 83 551 69 485 
513 7 102 679 315 367 659 275 673 
514 7 155 465 453 147 366 594 644 
515 7 378 267 64 444 54 520 86 
516 7 186 471 693 699 150 287 66 
517 7 35 438 107 425 587 525 691 
518 7 298 197 126 394 18 570 127 
519 7 406 25 260 449 332 452 280 
520 7 267 64 444 515 365 508 378 
521 7 422 497 387 257 663 7 359 
522 7 141 581 99 570 18 230 126 
523 7 139 613 681 594 155 412 603 
524 7 694 325 330 401 300 152 666 
525 7 107 472 425 35 438 552 517 
526 7 537 113 637 237 168 196 225 
527 7 563 243 612 445 380 618 215 
528 7 128 377 662 506 481 329 340 
529 7 51 624 627 683 13 181 371 
530 7 456 534 556 701 434 385 2 
531 7 94 301 395 344 588 320 553 
532 7 256 368 561 628 33 481 413 
533 6 400 687 241 73 295 423 
534 7 385 530 2 701 280 434 556 
535 7 353 663 79 418 497 74 684 
536 7 217 550 365 90 520 586 64 
537 7 526 113 637 237 168 196 225 
538 7 189 297 8 211 375 251 655 
539 7 122 303 19 201 49 335 565 
540 7 76 584 235 9 673 343 119 
541 7 689 705 468 46 304 696 402 
542 7 306 650 641 607 130 23 77 
543 7 468 304 402 541 565 672 221 
544 7 647 103 395 320 134 179 223 
545 7 249 72 191 661 679 315 235 
546 7 655 375 297 440 189 383 538 
547 7 397 680 118 707 572 323 287 
548 7 701 22 420 534 442 2 530 
549 7 576 362 645 219 156 657 229 
550 7 217 536 632 508 407 509 520 
551 7 98 182 485 100 69 114 85 
552 7 292 601 654 525 107 446 472 
553 7 223 347 301 103 25 647 344 
554 7 360 411 117 494 510 439 336 
555 7 101 507 213 200 618 338 228 
556 7 434 530 339 534 456 385 2 
557 7 30 205 382 640 89 383 634 
558 7 604 656 253 118 45 448 334 
559 7 7 387 338 331 380 159 512 
560 7 135 355 413 33 160 312 48 
561 7 368 413 532 256 33 560 135 
562 7 144 254 65 145 290 17 350 
563 7 243 527 380 612 618 445 331 
564 7 670 12 89 205 302 330 382 
565 7 672 303 543 201 304 19 402 
566 7 187 433 31 355 615 595 193 
567 7 459 458 391 210 173 414 23 
568 7 504 574 167 142 416 319 445 
569 7 311 220 487 345 96 309 585 
570 7 18 126 141 522 309 394 518 
571 7 143 203 384 190 90 605 582 
572 7 707 323 136 152 666 300 547 
573 7 421 703 117 336 396 416 510 
574 7 504 167 568 142 416 319 573 
575 7 273 429 652 169 56 198 486 
576 7 549 645 219 362 156 229 239 
577 7 277 42 499 486 53 194 169 
578 6 327 400 533 168 423 687 
579 7 477 454 26 457 88 704 248 
580 7 87 231 179 236 269 178 431 
581 7 99 522 141 230 284 358 20 
582 7 285 216 435 190 104 329 143 
583 7 432 460 296 171 247 674 390 
584 7 235 540 675 673 76 679 545 
585 7 342 467 309 220 305 55 345 
586 7 509 492 90 203 407 536 571 
587 7 691 348 148 636 140 697 133 
588 7 172 163 531 476 94 266 344 
589 7 483 185 450 473 635 340 481 
590 7 176 317 52 487 95 427 491 
591 7 288 240 93 667 455 310 692 
592 7 381 634 218 358 284 20 496 
593 7 192 27 648 278 22 106 252 
594 7 155 523 681 613 139 427 514 
595 7 204 31 615 164 433 566 187 
596 7 154 44 266 172 588 163 531 
597 7 475 708 130 207 492 105 407 
598 7 14 447 456 339 255 530 420 
599 7 73 129 241 112 710 59 533 
600 7 269 452 647 179 103 544 87 
601 7 226 654 292 552 446 653 611 
602 7 82 296 81 171 432 583 460 
603 7 479 613 412 139 523 147 625 
604 6 118 323 558 707 397 709 
605 7 384 582 203 216 143 571 123 
606 7 316 686 60 264 503 426 677 
607 7 77 200 228 124 641 123 356 
608 7 299 399 270 328 279 388 621 
609 7 196 34 237 109 637 526 537 
610 7 149 40 617 620 57 242 218 
611 7 226 446 501 352 601 292 324 
612 7 445 527 563 243 215 319 380 
613 7 523 139 603 681 155 412 594 
614 7 58 180 131 68 635 450 185 
615 7 31 433 187 566 595 29 204 
616 7 438 161 346 517 653 664 107 
617 7 620 610 40 405 696 149 678 
618 7 101 243 563 338 380 7 527 
619 7 61 86 437 440 206 54 375 
620 7 617 610 678 41 696 149 40 
621 7 328 399 299 279 388 403 608 
622 7 37 711 480 115 157 623 71 
623 7 631 21 16 32 466 480 110 
624 7 181 51 529 658 95 683 13 
625 5 479 412 603 139 613 
626 4 700 318 642 62 
627 7 13 371 195 70 259 529 683 
628 7 256 329 532 33 368 481 104 
629 7 159 512 331 83 69 380 551 
630 7 258 393 193 138 473 595 683 
631 7 21 16 623 32 272 110 702 
632 7 550 174 217 407 671 536 509 
633 7 430 80 133 140 246 148 348 
634 7 381 592 218 40 57 149 358 
635 7 450 58 185 589 614 483 473 
636 7 691 587 35 425 472 525 598 
637 7 237 526 168 537 196 113 609 
638 7 684 312 369 160 353 79 135 
639 7 321 364 49 162 50 122 463 
640 7 383 557 205 330 30 89 136 
641 7 77 356 306 607 542 650 123 
642 7 97 227 212 493 500 396 703 
643 7 474 4 199 428 48 341 160 
644 7 147 453 155 514 603 613 465 
645 7 219 576 229 239 156 234 81 
646 7 695 78 294 161 346 489 333 
647 7 103 544 395 223 347 320 553 
648 7 106 27 22 593 278 28 286 
649 7 398 244 158 39 153 265 188 
650 7 306 542 23 443 607 641 173 
651 7 15 424 350 265 153 145 290 
652 7 273 575 429 56 198 451 169 
653 7 664 654 438 226 601 616 107 
654 7 601 226 292 653 552 107 438 
655 7 297 189 375 546 383 538 640 
656 7 118 397 558 547 604 680 707 
657 7 362 466 156 549 225 113 576 
658 7 95 491 181 374 590 52 427 
659 7 324 352 501 6 11 611 513 
660 7 214 307 386 119 238 363 343 
661 7 72 191 249 545 132 315 502 
662 7 128 481 528 340 483 377 92 
663 7 497 535 79 418 353 74 359 
664 7 653 654 226 438 601 616 333 
665 7 500 70 259 212 195 371 510 
666 7 300 136 152 524 401 694 325 
667 7 240 692 455 310 112 591 282 
668 7 96 311 345 569 487 68 181 
669 7 174 105 45 253 632 671 407 
670 7 564 89 205 302 382 242 12 
671 6 334 448 253 174 632 508 
672 7 565 201 303 543 19 221 402 
673 7 9 76 102 275 367 308 513 
674 7 247 390 460 583 108 432 171 
675 7 584 235 166 495 545 540 249 
676 7 108 261 390 674 247 111 233 
677 7 376 426 503 686 688 606 10 
678 7 41 620 617 696 705 46 304 
679 7 315 249 513 191 72 545 661 
680 7 547 397 118 572 287 707 323 
681 7 523 139 613 594 415 412 121 
682 7 274 6 308 367 275 84 464 
683 7 164 529 393 627 51 630 204 
684 7 638 312 369 353 79 160 135 
685 7 442 192 252 690 169 198 593 
686 7 316 606 426 60 264 677 706 
687 6 295 423 533 400 469 241 
688 7 291 10 120 146 372 503 511 
689 7 541 46 705 468 696 250 405 
690 7 252 685 169 192 442 278 593 
691 7 587 636 348 35 148 517 425 
692 7 667 455 112 240 310 282 351 
693 7 186 516 699 325 471 401 694 
694 7 325 12 330 524 564 401 670 
695 7 78 646 161 489 333 294 346 
696 7 46 705 405 689 541 468 304 
697 7 148 133 140 348 587 517 246 
698 7 116 484 24 151 245 150 471 
699 7 186 66 693 516 471 441 12 
700 4 626 318 62 370 
701 7 548 534 420 530 456 2 385 
702 7 16 261 272 21 157 233 631 
703 7 396 573 421 642 212 500 336 
704 7 26 454 477 449 457 406 25 
705 7 541 46 689 696 468 304 405 
706 7 209 264 38 60 316 262 39 
707 7 323 572 397 547 118 440 709 
708 7 475 597 130 207 492 105 232 
709 6 323 440 619 707 61 86 
710 7 241 73 59 700 370 626 62 
711 7 50 162 392 71 461 622 37 
DEPOT_SECTION
   1
   -1
EOF
