NAME :  X-n733-kX-w146-c7.cctp
COMMENT : 	Adapted by Maziero, Usberti and Cavellucci from the Uchoa, Pecin, Pessoa, Poggi, Subramanian, and Vidal (2013)
TYPE :  CCTP
DIMENSION :    623
EDGE_WEIGHT_TYPE : 	EUC_2D	
CAPACITY : 	25
VERTICES_WITHIN_COVERAGE :  7
VERTICES_WITH_DEMAND : 	146
NODE_COORD_SECTION
1 500 500
2 143 12
3 206 907
4 895 855
5 640 970
6 865 716
7 993 356
8 618 966
9 963 539
10 50 979
11 241 998
12 32 206
13 288 926
14 299 507
15 336 180
16 589 726
17 665 488
18 36 521
19 112 895
20 814 442
21 843 474
22 17 258
23 360 273
24 814 537
25 775 524
26 825 471
27 321 87
28 773 958
29 119 166
30 368 928
31 193 250
32 452 919
33 736 322
34 386 911
35 624 313
36 694 398
37 186 803
38 948 721
39 216 973
40 915 641
41 238 810
42 946 172
43 23 561
44 613 657
45 359 434
46 604 96
47 56 554
48 862 723
49 222 161
50 974 838
51 775 67
52 815 880
53 204 362
54 435 760
55 593 358
56 203 435
57 882 803
58 194 739
59 380 323
60 836 461
61 537 136
62 789 669
63 956 1000
64 98 295
65 656 410
66 580 959
67 594 64
68 459 43
69 425 559
70 262 31
71 522 339
72 960 74
73 237 910
74 353 828
75 420 281
76 721 524
77 185 679
78 703 303
79 923 491
80 444 792
81 567 476
82 987 930
83 113 210
84 907 45
85 383 799
86 209 192
87 34 820
88 464 717
89 837 536
90 202 94
91 177 341
92 551 3
93 835 467
94 128 655
95 988 937
96 179 369
97 487 765
98 975 406
99 365 411
100 440 41
101 607 487
102 57 898
103 161 707
104 0 517
105 210 88
106 524 195
107 682 409
108 608 55
109 16 909
110 846 379
111 183 242
112 586 182
113 948 682
114 324 44
115 380 573
116 339 188
117 629 32
118 589 805
119 934 907
120 848 633
121 890 973
122 98 787
123 964 391
124 171 837
125 261 409
126 637 133
127 541 313
128 946 388
129 479 636
130 818 503
131 188 602
132 887 643
133 981 839
134 585 570
135 383 325
136 288 219
137 407 596
138 707 525
139 56 193
140 523 502
141 102 374
142 282 573
143 90 56
144 538 143
145 614 30
146 237 435
147 823 405
148 363 560
149 192 314
150 826 849
151 292 364
152 131 65
153 990 723
154 944 209
155 68 210
156 564 354
157 865 378
158 646 604
159 313 888
160 49 95
161 797 864
162 93 297
163 74 429
164 152 66
165 796 886
166 716 113
167 693 324
168 263 134
169 893 184
170 549 927
171 976 350
172 692 957
173 227 408
174 323 894
175 169 573
176 982 365
177 292 960
178 552 181
179 505 588
180 119 372
181 506 122
182 160 569
183 208 381
184 530 266
185 947 928
186 857 644
187 990 518
188 178 652
189 834 331
190 577 316
191 607 398
192 471 599
193 111 69
194 149 735
195 38 10
196 841 876
197 870 781
198 789 38
199 238 478
200 182 984
201 272 20
202 231 683
203 142 8
204 611 385
205 950 575
206 823 394
207 676 27
208 823 573
209 850 625
210 923 848
211 552 189
212 468 743
213 522 560
214 756 931
215 55 920
216 47 187
217 136 376
218 838 595
219 833 785
220 367 992
221 938 833
222 856 363
223 184 380
224 751 956
225 831 424
226 927 752
227 479 537
228 288 947
229 175 63
230 603 634
231 90 763
232 557 925
233 3 914
234 269 277
235 360 979
236 958 203
237 854 930
238 59 285
239 697 384
240 999 813
241 332 70
242 399 474
243 102 310
244 913 612
245 429 919
246 567 461
247 969 530
248 173 949
249 440 702
250 141 839
251 641 740
252 361 430
253 365 318
254 621 920
255 337 330
256 50 481
257 347 468
258 387 470
259 642 51
260 568 101
261 95 19
262 463 673
263 864 522
264 792 430
265 607 489
266 541 477
267 830 978
268 859 434
269 485 690
270 944 765
271 990 934
272 186 358
273 494 823
274 563 350
275 396 727
276 272 211
277 625 64
278 58 830
279 190 270
280 989 645
281 179 252
282 437 360
283 93 576
284 521 190
285 607 277
286 949 574
287 713 437
288 282 382
289 113 15
290 459 368
291 858 925
292 235 360
293 916 377
294 817 710
295 213 486
296 350 900
297 262 829
298 109 521
299 960 308
300 207 862
301 282 555
302 970 106
303 75 217
304 88 275
305 249 910
306 622 92
307 794 539
308 190 261
309 239 9
310 232 154
311 53 42
312 951 789
313 26 748
314 222 65
315 170 643
316 889 86
317 473 21
318 937 197
319 399 590
320 983 139
321 225 375
322 44 366
323 344 764
324 882 90
325 720 250
326 570 238
327 514 534
328 868 870
329 291 431
330 871 381
331 71 526
332 24 626
333 464 212
334 617 137
335 869 818
336 219 453
337 871 952
338 647 941
339 354 911
340 787 715
341 703 108
342 715 611
343 217 201
344 778 655
345 636 539
346 231 139
347 896 875
348 149 310
349 490 146
350 30 507
351 629 789
352 170 132
353 862 16
354 965 567
355 358 377
356 585 856
357 296 401
358 247 913
359 247 435
360 728 971
361 821 717
362 127 290
363 552 702
364 59 842
365 354 427
366 811 541
367 646 634
368 200 595
369 65 882
370 190 682
371 892 397
372 911 972
373 924 847
374 175 582
375 120 413
376 251 281
377 496 123
378 868 438
379 252 427
380 489 227
381 176 25
382 824 82
383 281 949
384 594 400
385 551 492
386 587 545
387 10 280
388 412 385
389 118 205
390 397 649
391 677 390
392 13 41
393 253 630
394 19 187
395 266 971
396 976 790
397 298 612
398 87 602
399 670 316
400 761 466
401 237 724
402 91 189
403 229 296
404 980 970
405 663 691
406 581 178
407 16 299
408 1 430
409 972 560
410 93 782
411 298 972
412 556 678
413 624 36
414 488 752
415 409 568
416 104 641
417 32 545
418 881 445
419 477 892
420 48 558
421 528 812
422 316 928
423 46 518
424 288 114
425 160 636
426 267 514
427 829 404
428 956 308
429 368 523
430 987 3
431 170 703
432 938 925
433 742 338
434 116 155
435 456 252
436 451 777
437 973 57
438 225 138
439 85 372
440 567 505
441 518 310
442 917 341
443 776 30
444 529 433
445 955 382
446 62 317
447 102 781
448 584 849
449 471 40
450 966 476
451 524 326
452 20 822
453 209 361
454 896 507
455 470 876
456 450 114
457 324 779
458 104 241
459 57 522
460 923 27
461 712 427
462 470 964
463 54 752
464 693 963
465 311 479
466 271 194
467 964 724
468 176 808
469 384 936
470 371 981
471 846 857
472 945 504
473 791 719
474 509 607
475 95 639
476 751 372
477 75 958
478 270 637
479 62 898
480 994 91
481 80 955
482 744 327
483 162 587
484 458 595
485 372 168
486 330 379
487 66 190
488 197 229
489 413 716
490 184 835
491 151 81
492 591 356
493 616 852
494 35 1
495 996 23
496 845 854
497 850 475
498 693 951
499 880 672
500 495 614
501 936 622
502 544 21
503 289 72
504 906 45
505 412 160
506 769 573
507 709 340
508 268 211
509 640 263
510 604 137
511 305 190
512 305 835
513 66 597
514 566 121
515 867 589
516 413 711
517 580 374
518 729 641
519 409 283
520 386 329
521 249 424
522 528 22
523 55 599
524 476 8
525 255 769
526 537 489
527 296 575
528 578 236
529 489 958
530 262 795
531 191 708
532 978 896
533 394 834
534 645 6
535 106 659
536 156 888
537 962 119
538 674 251
539 615 425
540 733 282
541 151 182
542 613 431
543 586 480
544 160 725
545 154 682
546 90 574
547 935 608
548 760 475
549 177 967
550 297 396
551 269 829
552 550 370
553 397 539
554 389 199
555 498 893
556 226 358
557 504 637
558 966 481
559 364 615
560 597 134
561 139 824
562 246 744
563 192 857
564 70 999
565 91 436
566 375 330
567 90 117
568 295 420
569 140 382
570 390 352
571 945 422
572 160 621
573 645 42
574 379 971
575 951 753
576 350 340
577 4 293
578 17 762
579 710 511
580 610 493
581 242 988
582 214 834
583 13 547
584 164 342
585 659 346
586 809 539
587 930 196
588 974 862
589 11 303
590 643 667
591 409 926
592 584 675
593 137 732
594 442 514
595 626 494
596 14 859
597 790 425
598 160 720
599 501 66
600 789 555
601 893 652
602 995 293
603 855 486
604 586 489
605 604 475
606 153 435
607 76 380
608 728 97
609 186 15
610 175 942
611 232 991
612 408 267
613 798 568
614 104 139
615 540 509
616 611 568
617 540 277
618 544 996
619 829 952
620 276 452
621 370 965
622 72 268
623 555 758
DEMAND_SECTION
2 5
3 3
4 1
5 1
6 5
7 9
8 9
9 3
10 2
11 3
12 4
13 1
14 2
15 4
16 1
17 10
18 9
19 3
20 3
21 3
22 2
23 3
24 1
25 1
26 4
27 5
28 8
29 4
30 7
31 5
32 10
33 3
34 5
35 1
36 10
37 5
38 2
39 1
40 4
41 5
42 4
43 10
44 6
45 4
46 8
47 3
48 6
49 1
50 2
51 2
52 2
53 1
54 7
55 6
56 5
57 4
58 5
59 2
60 3
61 5
62 1
63 5
64 3
65 3
66 10
67 10
68 1
69 5
70 2
71 6
72 3
73 9
74 6
75 9
76 7
77 2
78 9
79 7
80 8
81 3
82 3
83 5
84 10
85 6
86 4
87 9
88 1
89 2
90 6
91 10
92 8
93 6
94 4
95 1
96 8
97 3
98 8
99 7
100 6
101 4
102 1
103 8
104 3
105 9
106 8
107 7
108 10
109 8
110 2
111 10
112 5
113 2
114 4
115 1
116 9
117 1
118 6
119 6
120 8
121 9
122 8
123 7
124 6
125 1
126 10
127 10
128 1
129 9
130 2
131 3
132 10
133 2
134 3
135 1
136 3
137 3
138 2
139 5
140 7
141 2
142 1
143 7
144 4
145 6
146 5
147 1
COVERAGE_SECTION
2 7 203 289 381 609 261 152 164 
3 7 73 358 305 300 610 563 248 
4 7 347 210 373 328 335 221 471 
5 7 8 338 254 464 172 498 66 
6 6 48 361 499 294 197 601 
7 7 176 171 123 445 98 128 299 
8 7 5 338 66 254 232 172 464 
9 7 247 409 354 187 205 286 472 
10 4 564 477 481 215 
11 7 581 611 39 395 200 383 411 
12 7 394 216 139 155 487 303 22 
13 7 228 383 422 177 305 358 159 
14 6 465 426 301 620 257 142 
15 7 116 511 485 554 136 466 276 
16 7 363 623 592 251 412 44 351 
17 7 595 579 580 138 101 265 345 
18 7 423 350 459 417 331 583 104 
19 6 536 369 479 102 215 250 
20 7 225 264 60 597 26 93 147 
21 7 497 93 60 603 26 130 20 
22 6 387 577 407 589 238 12 
23 7 253 612 519 59 135 566 75 
24 7 366 586 307 89 600 130 613 
25 7 307 600 586 366 24 130 506 
26 7 93 60 21 497 20 130 603 
27 7 241 503 114 424 168 70 201 
28 7 224 214 360 619 267 165 464 
29 7 434 614 402 541 389 83 567 
30 7 469 339 34 296 621 591 574 
31 7 308 111 281 279 488 343 403 
32 7 245 419 591 455 462 555 529 
33 7 482 433 507 78 540 167 476 
34 7 30 469 591 339 296 245 621 
35 7 285 399 190 585 509 492 55 
36 7 239 107 391 461 65 287 507 
37 7 468 490 124 582 561 41 563 
38 6 467 575 226 113 153 270 
39 7 611 581 11 200 549 248 395 
40 6 601 132 501 244 547 499 
41 6 530 297 582 551 525 37 
42 6 318 587 236 154 320 169 
43 7 583 417 420 47 18 423 104 
44 7 230 590 592 367 405 412 158 
45 7 252 365 99 257 258 242 355 
46 7 306 67 260 277 560 108 510 
47 7 420 417 331 459 43 423 18 
48 6 6 361 294 499 197 219 
49 7 310 438 346 86 343 168 466 
50 7 133 588 240 221 396 373 210 
51 4 198 443 382 608 
52 7 165 161 196 150 471 496 328 
53 7 453 272 183 556 321 96 223 
54 7 436 80 212 489 275 88 97 
55 7 492 517 156 274 204 191 384 
56 7 336 146 173 359 521 379 606 
57 7 335 197 219 4 210 373 496 
58 6 531 544 598 431 194 103 
59 7 135 520 566 253 570 576 255 
60 7 93 21 26 497 20 603 268 
61 7 144 514 181 377 178 260 349 
62 7 344 340 294 473 361 518 120 
63 7 404 372 95 121 185 271 82 
64 7 162 243 304 362 622 238 446 
65 7 107 391 36 539 542 239 191 
66 7 8 232 170 618 254 5 338 
67 7 108 277 46 145 306 413 260 
68 7 449 100 317 524 599 456 522 
69 7 415 553 319 137 115 594 484 
70 7 201 309 503 314 114 105 609 
71 7 451 441 127 274 552 156 190 
72 7 437 302 480 537 84 460 504 
73 7 358 305 3 13 300 383 228 
74 5 533 85 512 457 323 
75 7 519 612 435 135 59 520 23 
76 7 138 579 25 548 17 506 400 
77 7 370 188 431 531 545 103 315 
78 7 167 399 507 540 33 482 433 
79 7 472 454 558 450 247 9 418 
80 7 436 54 97 212 273 414 85 
81 7 246 543 385 604 266 440 526 
82 7 271 95 532 185 404 432 119 
83 7 389 402 458 303 29 155 541 
84 6 504 460 316 324 353 72 
85 7 533 74 323 80 457 54 436 
86 7 343 49 488 310 111 438 346 
87 7 452 278 364 596 578 369 410 
88 7 212 249 269 414 262 489 516 
89 7 24 366 586 263 130 208 307 
90 7 105 314 229 352 438 491 346 
91 7 584 272 96 149 53 453 223 
92 7 502 522 145 67 524 108 317 
93 7 60 21 26 497 603 20 130 
94 7 535 416 425 475 545 315 572 
95 7 271 82 404 185 532 432 119 
96 7 223 272 53 91 183 453 584 
97 7 414 212 436 80 54 88 273 
98 7 123 445 128 571 176 7 171 
99 6 252 365 45 355 486 388 
100 7 68 449 317 524 599 456 522 
101 7 265 580 605 595 604 543 81 
102 7 479 369 215 109 19 233 364 
103 7 431 598 544 545 194 531 593 
104 7 350 583 18 417 423 43 459 
105 7 90 314 229 438 346 352 491 
106 7 284 211 178 380 144 406 61 
107 7 36 391 65 239 461 287 585 
108 7 67 277 413 145 117 259 573 
109 7 233 215 102 479 596 369 477 
110 7 157 222 330 206 427 147 225 
111 7 281 31 488 308 279 343 86 
112 7 406 178 211 510 560 334 528 
113 7 38 467 40 280 153 501 601 
114 7 241 27 503 201 70 424 309 
115 7 148 319 415 137 553 559 69 
116 7 15 511 485 554 136 466 276 
117 7 413 145 573 259 108 534 277 
118 6 351 448 356 493 623 421 
119 7 432 185 532 347 82 210 588 
120 7 209 186 218 132 515 601 499 
121 7 372 337 237 291 267 619 432 
122 7 410 447 231 561 463 278 250 
123 7 445 128 98 176 571 171 7 
124 7 490 468 563 250 561 37 582 
125 7 521 379 359 173 288 146 357 
126 7 334 510 560 306 46 277 112 
127 7 451 441 71 190 617 274 156 
128 7 445 123 293 98 571 176 171 
129 7 557 500 192 262 474 484 269 
130 7 26 24 586 21 89 366 93 
131 7 368 374 483 572 175 182 425 
132 7 601 40 186 499 120 244 209 
133 7 50 588 240 221 396 532 312 
134 7 386 616 345 213 230 440 158 
135 7 59 520 566 253 570 576 255 
136 7 276 508 466 511 116 234 15 
137 7 319 415 115 69 559 484 390 
138 7 76 579 17 25 345 548 506 
139 7 487 216 155 12 303 402 394 
140 7 615 526 385 266 327 440 81 
141 7 180 439 607 217 569 375 322 
142 7 527 301 397 426 393 478 14 
143 7 193 261 311 152 289 160 567 
144 7 61 514 181 178 377 211 349 
145 7 413 117 108 573 259 277 67 
146 7 359 521 379 336 173 56 125 
147 7 427 206 225 110 20 597 264 
148 7 115 429 553 319 415 559 137 
149 7 91 584 403 348 272 279 53 
150 7 496 471 196 52 161 328 165 
151 5 288 550 357 486 125 
152 7 193 164 491 143 229 289 2 
153 6 467 38 575 113 270 396 
154 4 318 236 587 42 
155 7 303 487 139 216 402 12 83 
156 7 274 552 517 492 55 190 71 
157 6 330 222 110 371 427 206 
158 7 367 616 230 44 590 345 342 
159 7 174 296 422 13 339 512 228 
160 3 567 311 143 
161 6 165 52 150 196 471 496 
162 7 64 243 304 362 238 622 446 
163 6 565 375 607 256 439 141 
164 7 491 152 229 193 381 2 90 
165 5 52 161 196 150 471 
166 4 341 608 51 126 
167 7 78 507 399 585 33 433 482 
168 7 346 424 310 438 49 466 503 
169 4 587 318 42 154 
170 4 232 66 555 529 
171 7 176 7 445 123 299 428 128 
172 6 464 498 360 338 5 224 
173 7 521 146 379 183 321 125 359 
174 7 159 296 339 422 13 30 512 
175 6 182 374 483 131 368 572 
176 7 7 171 123 445 98 128 299 
177 7 411 228 383 395 13 422 581 
178 7 211 406 106 284 112 144 61 
179 7 474 500 213 192 484 557 129 
180 7 141 217 569 439 375 607 584 
181 7 377 349 61 144 599 456 514 
182 6 175 483 374 131 368 572 
183 7 321 53 453 223 556 96 272 
184 7 617 441 127 326 380 528 451 
185 7 432 119 82 95 271 532 404 
186 7 120 209 132 499 601 218 515 
187 7 247 9 558 409 472 450 354 
188 7 315 425 77 370 572 545 94 
189 7 222 110 157 330 206 427 147 
190 7 127 274 156 492 55 35 285 
191 6 384 204 539 542 517 55 
192 7 484 500 179 129 474 557 69 
193 7 152 143 164 491 261 567 289 
194 7 593 544 598 103 431 58 531 
195 7 494 311 392 261 143 289 160 
196 7 471 496 52 328 150 161 165 
197 6 57 219 335 48 226 6 
198 3 443 51 382 
199 7 295 336 146 359 426 620 379 
200 5 549 39 248 610 611 
201 7 70 309 503 114 314 241 27 
202 3 370 401 77 
203 7 2 289 381 609 261 152 164 
204 7 191 384 55 517 492 539 542 
205 5 286 354 409 547 9 
206 7 147 427 110 225 157 222 597 
207 5 573 534 259 117 413 
208 7 613 218 366 24 586 600 89 
209 7 120 186 218 515 132 601 499 
210 7 373 221 4 347 50 588 133 
211 7 178 106 284 406 112 144 326 
212 7 414 88 97 54 436 249 80 
213 7 327 179 227 474 615 140 500 
214 5 224 28 360 165 498 
215 7 102 479 369 109 477 481 233 
216 7 139 487 12 394 155 303 402 
217 7 569 180 141 375 96 584 223 
218 7 208 515 209 120 613 186 89 
219 3 197 335 57 
220 7 470 235 574 621 469 30 411 
221 7 373 210 50 133 312 588 4 
222 7 157 110 330 189 206 427 371 
223 7 96 272 183 53 453 91 321 
224 6 28 214 360 464 498 172 
225 7 427 147 20 268 206 60 264 
226 7 270 575 38 312 467 396 197 
227 7 327 594 213 140 179 69 484 
228 7 383 177 13 411 395 422 358 
229 7 164 491 381 90 105 152 314 
230 7 44 367 592 158 590 412 134 
231 5 410 447 122 463 593 
232 4 170 66 254 555 
233 7 109 215 102 596 479 369 10 
234 6 376 403 136 276 508 279 
235 7 470 220 621 574 469 30 411 
236 4 154 318 587 42 
237 7 291 337 619 267 121 196 328 
238 5 622 304 446 162 64 
239 7 36 391 107 461 507 65 585 
240 6 133 396 50 312 588 221 
241 7 27 114 503 424 201 70 168 
242 5 258 257 45 252 429 
243 6 64 162 362 304 446 348 
244 5 547 501 40 132 601 
245 7 591 32 34 469 419 455 462 
246 7 81 543 266 604 385 605 526 
247 7 9 187 409 472 354 286 205 
248 4 610 549 200 39 
249 7 88 516 489 262 269 212 275 
250 7 561 124 490 468 536 563 37 
251 4 351 16 405 590 
252 7 45 365 99 257 258 355 242 
253 7 59 566 135 520 576 255 570 
254 7 338 8 5 66 232 493 170 
255 6 576 253 566 59 135 486 
256 6 350 423 18 459 331 163 
257 6 45 465 252 258 365 242 
258 6 242 257 45 252 365 429 
259 7 573 277 117 413 108 145 207 
260 7 514 46 560 67 61 510 144 
261 7 289 143 203 311 2 193 152 
262 7 269 249 129 88 557 516 489 
263 7 89 454 603 497 130 21 24 
264 7 597 20 225 147 427 206 400 
265 7 101 580 605 595 604 543 81 
266 7 526 385 81 140 246 615 440 
267 7 619 337 237 28 121 291 372 
268 5 378 418 225 60 93 
269 7 262 88 249 129 212 557 414 
270 6 575 226 312 396 38 467 
271 7 95 82 404 532 185 432 119 
272 7 96 53 91 223 453 584 183 
273 4 421 97 455 80 
274 7 156 552 492 517 55 190 71 
275 4 489 516 54 249 
276 7 508 466 136 511 343 86 234 
277 7 108 259 306 413 573 67 117 
278 7 364 87 452 369 596 122 410 
279 7 308 31 281 111 488 149 403 
280 4 113 501 547 40 
281 7 111 31 308 279 488 149 343 
282 7 290 388 570 520 135 59 566 
283 7 546 398 513 47 523 420 331 
284 7 106 211 178 380 144 349 61 
285 7 509 35 190 528 326 617 538 
286 5 205 354 409 547 9 
287 7 461 107 36 239 400 391 548 
288 7 151 550 357 125 568 486 329 
289 7 261 2 203 143 152 193 164 
290 5 282 388 71 570 451 
291 7 237 337 619 196 328 121 267 
292 6 556 321 453 53 183 173 
293 6 371 128 442 445 330 123 
294 6 361 473 340 48 6 62 
295 7 199 336 56 146 359 426 379 
296 7 339 174 30 34 159 422 469 
297 5 551 41 530 512 582 
298 5 331 459 546 283 47 
299 6 428 602 171 442 7 176 
300 7 563 582 490 124 3 73 536 
301 7 142 527 426 14 397 393 148 
302 6 537 480 72 320 437 42 
303 7 155 487 139 402 458 83 216 
304 7 622 64 162 238 243 458 362 
305 7 358 73 13 3 383 228 395 
306 7 46 277 67 108 126 334 259 
307 7 586 366 600 24 25 613 506 
308 7 279 31 281 111 488 403 149 
309 7 70 201 609 314 381 503 105 
310 7 49 346 438 168 86 343 466 
311 7 195 143 392 494 261 160 193 
312 6 270 396 575 226 221 50 
313 4 578 463 231 87 
314 7 105 90 229 70 309 381 609 
315 7 188 425 572 77 545 94 370 
316 3 324 504 84 
317 7 524 449 68 100 599 522 502 
318 5 587 154 236 42 169 
319 7 137 415 115 69 559 148 553 
320 7 537 302 480 42 72 236 318 
321 7 556 183 292 453 53 173 223 
322 4 607 439 446 141 
323 2 457 85 
324 2 316 84 
325 3 540 538 78 
326 7 528 184 617 211 285 112 178 
327 7 213 140 227 615 526 179 385 
328 7 471 196 347 496 4 150 335 
329 7 568 620 357 550 125 379 521 
330 6 157 222 110 371 293 427 
331 6 459 423 47 18 298 420 
332 5 523 513 43 398 420 
333 7 380 435 284 106 349 505 554 
334 7 510 126 560 46 306 514 112 
335 7 57 197 496 4 471 219 328 
336 7 56 146 199 359 295 379 521 
337 7 121 237 291 619 372 267 432 
338 6 5 254 8 498 172 464 
339 7 296 30 34 174 469 422 159 
340 5 473 294 361 62 344 
341 5 166 608 126 51 259 
342 6 518 506 158 367 344 138 
343 7 86 488 49 310 508 111 466 
344 7 62 518 340 473 294 120 361 
345 7 616 595 386 580 265 17 101 
346 7 438 310 49 168 90 105 86 
347 7 4 328 210 373 119 471 196 
348 7 362 584 91 149 243 64 162 
349 6 377 181 61 144 456 284 
350 7 18 423 459 104 256 417 583 
351 5 118 251 493 16 448 
352 7 90 541 491 438 105 434 49 
353 2 504 84 
354 5 409 205 286 9 247 
355 6 486 99 576 570 365 566 
356 4 448 493 118 421 
357 7 550 568 288 329 125 151 486 
358 7 305 73 3 13 383 228 395 
359 7 379 146 521 125 336 173 620 
360 6 224 464 172 498 28 214 
361 5 294 473 340 48 6 
362 7 64 348 243 162 304 458 622 
363 7 412 592 16 623 269 44 414 
364 7 278 87 369 452 596 102 479 
365 7 252 45 99 257 355 258 486 
366 7 586 24 307 89 600 613 208 
367 7 158 590 44 230 405 342 592 
368 7 131 374 175 483 182 572 315 
369 7 479 102 215 364 19 278 109 
370 6 77 531 431 188 545 103 
371 5 330 293 157 378 110 
372 7 121 337 63 432 185 119 404 
373 7 210 221 4 347 50 588 133 
374 6 175 483 182 131 368 572 
375 7 565 569 217 606 180 141 163 
376 6 234 403 279 308 31 149 
377 6 181 349 61 144 456 599 
378 5 268 418 60 225 497 
379 7 521 359 146 125 173 620 329 
380 7 333 435 106 284 184 617 211 
381 7 609 2 203 229 164 152 314 
382 2 51 198 
383 7 228 177 13 395 411 422 305 
384 6 191 204 517 539 542 55 
385 7 526 266 615 440 81 140 246 
386 7 134 616 440 345 604 580 265 
387 4 577 407 22 589 
388 6 282 570 290 99 355 520 
389 7 83 402 29 458 541 303 155 
390 6 559 137 319 516 249 489 
391 7 36 107 239 65 585 461 287 
392 5 195 311 494 160 143 
393 4 478 397 202 142 
394 6 12 216 139 487 155 303 
395 7 383 177 581 411 228 11 611 
396 6 312 240 270 575 50 133 
397 6 527 478 142 393 301 559 
398 7 513 283 546 523 475 416 47 
399 7 167 585 78 35 507 509 538 
400 7 548 264 597 287 20 25 461 
401 3 562 202 58 
402 7 487 83 155 389 303 139 29 
403 6 376 149 234 279 308 31 
404 7 95 271 63 82 185 432 372 
405 4 590 251 367 44 
406 7 112 178 211 510 560 144 334 
407 4 589 577 387 22 
408 5 256 163 322 350 104 
409 5 354 9 205 286 247 
410 7 122 447 231 463 278 561 593 
411 7 177 228 383 395 13 422 581 
412 7 363 592 16 44 230 557 269 
413 7 117 145 573 259 108 277 534 
414 7 97 212 88 436 54 80 269 
415 7 69 319 137 115 553 148 484 
416 5 475 535 94 398 425 
417 7 43 583 420 18 47 423 459 
418 5 378 268 497 21 60 
419 4 455 555 32 245 
420 7 47 417 43 459 583 18 331 
421 4 273 623 118 97 
422 7 13 228 174 159 177 383 339 
423 7 18 459 350 331 417 47 256 
424 7 168 503 27 241 346 438 310 
425 7 315 572 188 94 131 545 483 
426 7 14 301 199 465 142 295 620 
427 7 147 206 225 110 20 268 157 
428 5 299 602 171 442 7 
429 6 553 148 115 258 242 257 
430 7 495 437 460 72 480 84 504 
431 7 103 598 531 544 545 77 370 
432 7 185 119 82 532 95 271 372 
433 7 482 33 507 476 167 78 540 
434 7 29 614 402 541 567 389 83 
435 7 333 380 75 612 519 184 441 
436 7 80 54 97 212 414 88 273 
437 7 72 480 495 302 430 460 537 
438 7 346 310 49 168 90 105 352 
439 7 607 141 180 322 217 375 569 
440 7 385 604 615 81 543 526 266 
441 7 451 127 71 617 184 190 274 
442 6 293 428 299 128 445 171 
443 3 198 51 382 
444 5 266 246 81 526 385 
445 7 128 123 98 176 171 293 571 
446 5 238 162 243 64 304 
447 7 122 410 231 463 561 593 194 
448 4 356 493 118 421 
449 7 68 317 100 524 599 522 502 
450 7 558 472 79 187 247 571 9 
451 7 71 441 127 274 156 552 617 
452 7 87 596 278 364 578 313 369 
453 7 53 556 183 321 272 292 96 
454 6 79 263 603 472 497 21 
455 4 419 555 32 273 
456 6 377 349 181 505 599 68 
457 2 323 74 
458 7 83 303 304 389 622 155 64 
459 7 423 331 18 350 47 417 420 
460 7 84 504 437 72 353 316 430 
461 7 287 36 107 239 391 65 400 
462 7 529 32 245 419 591 555 618 
463 5 313 231 578 410 122 
464 6 172 498 360 338 5 224 
465 6 14 257 620 329 426 568 
466 7 276 508 136 511 343 310 49 
467 6 38 153 575 113 226 270 
468 7 37 490 124 561 582 250 563 
469 7 30 34 591 621 574 339 470 
470 7 235 220 574 621 469 30 591 
471 7 496 196 150 328 52 335 4 
472 7 79 558 247 450 9 187 454 
473 4 340 294 361 62 
474 7 500 179 557 192 129 213 484 
475 5 416 535 94 398 513 
476 7 433 482 33 507 239 36 597 
477 4 481 10 564 215 
478 4 393 397 202 142 
479 7 102 369 215 109 19 364 481 
480 7 302 72 437 537 320 495 430 
481 4 477 10 215 564 
482 7 33 433 507 476 540 78 167 
483 6 374 175 182 131 572 368 
484 7 192 500 129 179 69 137 474 
485 6 554 15 116 505 511 456 
486 6 355 550 357 151 576 99 
487 7 139 216 155 402 303 12 394 
488 7 111 31 281 308 343 86 279 
489 5 516 275 249 54 88 
490 7 124 563 468 582 37 300 250 
491 7 164 152 229 193 90 352 105 
492 7 55 517 156 274 204 190 552 
493 5 356 448 118 351 254 
494 7 195 311 392 261 143 289 160 
495 7 430 437 72 480 460 302 84 
496 7 471 150 196 328 52 335 161 
497 7 21 603 93 60 26 378 268 
498 6 172 464 360 338 5 224 
499 7 601 132 186 6 40 120 48 
500 7 474 557 129 179 192 484 213 
501 5 547 244 40 205 286 
502 7 522 92 599 67 524 145 317 
503 7 27 424 241 114 70 201 168 
504 6 84 460 316 324 353 72 
505 6 485 554 456 333 116 15 
506 7 600 613 307 25 586 366 208 
507 7 167 33 433 78 482 239 399 
508 7 276 466 136 511 343 86 234 
509 7 285 538 35 399 528 326 78 
510 7 560 334 126 46 514 406 112 
511 7 15 116 136 466 276 508 168 
512 5 551 297 74 159 457 
513 7 523 398 546 283 420 47 332 
514 7 260 61 560 144 510 46 334 
515 6 218 209 208 120 244 186 
516 5 489 275 249 88 54 
517 7 55 492 156 274 384 552 204 
518 5 342 344 62 506 367 
519 7 75 612 59 135 23 520 253 
520 7 135 59 566 570 253 576 255 
521 7 379 359 146 125 173 620 336 
522 7 502 92 599 524 317 449 68 
523 7 513 398 332 420 546 283 47 
524 7 317 449 68 100 522 599 502 
525 3 530 562 41 
526 7 266 385 140 615 81 440 246 
527 7 142 301 397 478 14 426 148 
528 7 326 285 211 112 617 184 406 
529 7 462 32 555 419 618 170 245 
530 4 525 41 297 551 
531 6 431 370 77 103 58 598 
532 7 588 82 271 95 119 185 432 
533 7 85 74 80 34 296 436 54 
534 7 117 573 207 413 145 259 108 
535 4 416 94 475 545 
536 7 19 563 250 3 124 300 610 
537 6 302 320 480 72 42 437 
538 3 509 325 78 
539 6 542 191 384 204 65 605 
540 4 325 78 33 482 
541 7 29 389 434 83 352 86 402 
542 6 539 191 384 605 204 65 
543 7 604 81 605 101 265 246 580 
544 7 598 194 103 431 593 531 58 
545 7 103 431 77 370 94 188 598 
546 7 283 398 513 47 523 420 331 
547 5 501 244 205 286 40 
548 7 400 25 264 597 287 579 20 
549 4 200 248 610 39 
550 7 357 288 568 151 329 486 125 
551 5 297 530 41 512 582 
552 6 156 274 517 71 492 55 
553 7 415 429 69 115 148 319 594 
554 6 485 505 116 15 612 333 
555 3 419 455 32 
556 7 292 321 453 53 183 272 223 
557 7 129 500 474 179 192 262 269 
558 7 450 472 79 187 247 9 571 
559 7 319 115 137 390 148 415 397 
560 7 510 334 514 46 126 260 406 
561 7 250 124 468 490 37 122 447 
562 3 401 525 58 
563 7 300 490 124 582 536 3 468 
564 4 10 477 481 215 
565 6 163 375 607 256 606 141 
566 7 59 135 520 253 570 576 255 
567 5 614 434 160 193 29 
568 7 329 357 550 125 620 288 379 
569 7 217 180 375 141 96 223 584 
570 7 520 566 135 59 388 355 253 
571 6 98 128 123 445 293 450 
572 7 425 315 131 483 188 374 94 
573 7 259 117 413 277 145 207 534 
574 7 621 470 235 220 469 30 591 
575 6 270 226 38 467 312 396 
576 6 255 253 566 59 135 355 
577 4 589 407 387 22 
578 5 313 463 87 452 231 
579 7 138 76 17 548 25 400 287 
580 7 265 101 595 605 604 543 440 
581 7 11 611 395 39 383 177 411 
582 7 300 490 563 41 37 124 468 
583 7 43 417 104 18 420 350 47 
584 7 91 272 96 348 149 223 217 
585 7 399 167 35 391 507 239 78 
586 7 366 24 307 600 89 613 25 
587 5 318 154 42 236 169 
588 7 50 133 532 221 373 210 240 
589 4 407 577 387 22 
590 6 405 44 367 230 592 158 
591 7 245 34 469 30 32 574 621 
592 7 412 44 363 230 16 590 367 
593 7 194 544 598 103 431 545 231 
594 6 227 69 553 242 415 258 
595 7 580 101 265 605 17 604 543 
596 7 452 87 364 109 278 233 369 
597 7 264 20 147 225 427 206 400 
598 7 544 103 194 431 593 531 545 
599 7 449 68 522 317 181 377 502 
600 7 613 307 366 586 506 24 25 
601 7 132 499 40 186 244 120 209 
602 4 299 428 171 7 
603 7 497 21 93 60 26 263 130 
604 7 543 101 265 81 605 580 440 
605 7 101 265 543 580 604 595 81 
606 7 375 56 569 217 565 223 336 
607 6 439 141 322 180 163 375 
608 5 166 341 51 443 198 
609 7 381 2 203 229 309 164 314 
610 4 248 549 200 3 
611 7 581 11 39 395 200 549 383 
612 7 519 75 23 435 59 135 520 
613 7 600 208 307 506 366 586 24 
614 5 434 567 29 402 487 
615 7 140 385 526 440 266 327 81 
616 7 134 386 345 158 230 367 580 
617 7 184 127 441 326 451 190 528 
618 7 66 529 170 232 8 462 5 
619 7 267 237 291 337 28 121 52 
620 7 329 359 379 568 521 146 465 
621 7 574 470 235 220 469 30 591 
622 7 304 238 162 64 458 446 303 
623 7 16 363 118 421 414 97 351 
DEPOT_SECTION
   1
   -1
EOF
