NAME :  X-n733-kX-w73-c9.cctp
COMMENT : 	Adapted by Maziero, Usberti and Cavellucci from the Uchoa, Pecin, Pessoa, Poggi, Subramanian, and Vidal (2013)
TYPE :  CCTP
DIMENSION :    504
EDGE_WEIGHT_TYPE : 	EUC_2D	
CAPACITY : 	25
VERTICES_WITHIN_COVERAGE :  9
VERTICES_WITH_DEMAND : 	73
NODE_COORD_SECTION
1 500 500
2 143 12
3 206 907
4 895 855
5 640 970
6 865 716
7 993 356
8 618 966
9 963 539
10 50 979
11 241 998
12 32 206
13 288 926
14 299 507
15 336 180
16 589 726
17 665 488
18 36 521
19 112 895
20 814 442
21 843 474
22 17 258
23 360 273
24 814 537
25 775 524
26 825 471
27 321 87
28 773 958
29 119 166
30 368 928
31 193 250
32 452 919
33 736 322
34 386 911
35 624 313
36 694 398
37 186 803
38 948 721
39 216 973
40 915 641
41 238 810
42 946 172
43 23 561
44 613 657
45 359 434
46 604 96
47 56 554
48 862 723
49 222 161
50 974 838
51 775 67
52 815 880
53 204 362
54 435 760
55 593 358
56 203 435
57 882 803
58 194 739
59 380 323
60 836 461
61 537 136
62 789 669
63 956 1000
64 98 295
65 656 410
66 580 959
67 594 64
68 459 43
69 425 559
70 262 31
71 522 339
72 960 74
73 237 910
74 353 828
75 420 281
76 721 524
77 703 303
78 923 491
79 444 792
80 987 930
81 113 210
82 907 45
83 383 799
84 209 192
85 464 717
86 837 536
87 177 341
88 551 3
89 835 467
90 988 937
91 179 369
92 487 765
93 975 406
94 365 411
95 440 41
96 57 898
97 0 517
98 524 195
99 682 409
100 608 55
101 16 909
102 183 242
103 948 682
104 324 44
105 380 573
106 339 188
107 629 32
108 589 805
109 848 633
110 890 973
111 964 391
112 171 837
113 637 133
114 541 313
115 818 503
116 887 643
117 981 839
118 383 325
119 288 219
120 407 596
121 707 525
122 56 193
123 282 573
124 538 143
125 614 30
126 237 435
127 823 405
128 363 560
129 192 314
130 826 849
131 131 65
132 990 723
133 944 209
134 68 210
135 564 354
136 646 604
137 362 499
138 313 888
139 797 864
140 93 297
141 439 445
142 152 66
143 796 886
144 716 113
145 693 324
146 263 134
147 893 184
148 549 927
149 976 350
150 692 957
151 227 408
152 323 894
153 106 959
154 982 365
155 292 960
156 552 181
157 506 122
158 208 381
159 857 644
160 990 518
161 305 811
162 577 316
163 607 398
164 471 599
165 149 735
166 841 876
167 870 781
168 806 151
169 789 38
170 238 478
171 182 984
172 272 20
173 142 8
174 611 385
175 950 575
176 823 394
177 823 573
178 923 848
179 552 189
180 468 743
181 756 931
182 55 920
183 47 187
184 838 595
185 833 785
186 367 992
187 938 833
188 184 380
189 751 956
190 831 424
191 927 752
192 479 537
193 288 947
194 175 63
195 111 514
196 603 634
197 557 925
198 3 914
199 269 277
200 360 979
201 958 203
202 854 930
203 59 285
204 697 384
205 999 813
206 332 70
207 399 474
208 8 315
209 102 310
210 913 612
211 429 919
212 995 588
213 969 530
214 173 949
215 141 839
216 641 740
217 361 430
218 365 318
219 621 920
220 337 330
221 50 481
222 347 468
223 387 470
224 486 875
225 568 101
226 95 19
227 864 522
228 792 430
229 830 978
230 859 434
231 944 765
232 990 934
233 186 358
234 563 350
235 396 727
236 272 211
237 104 980
238 625 64
239 190 270
240 989 645
241 179 252
242 437 360
243 93 576
244 521 190
245 607 277
246 949 574
247 713 437
248 113 15
249 459 368
250 858 925
251 235 360
252 817 710
253 213 486
254 350 900
255 262 829
256 109 521
257 960 308
258 207 862
259 282 555
260 970 106
261 75 217
262 88 275
263 249 910
264 622 92
265 794 539
266 190 261
267 912 562
268 239 9
269 232 154
270 951 789
271 222 65
272 986 224
273 473 21
274 937 197
275 399 590
276 983 139
277 225 375
278 720 250
279 868 870
280 71 526
281 24 626
282 617 137
283 869 818
284 219 453
285 647 941
286 354 911
287 787 715
288 703 108
289 217 201
290 778 655
291 636 539
292 231 139
293 896 875
294 149 310
295 490 146
296 30 507
297 629 789
298 170 132
299 965 567
300 247 913
301 247 435
302 728 971
303 821 717
304 127 290
305 552 702
306 354 427
307 811 541
308 646 634
309 65 882
310 911 972
311 924 847
312 251 281
313 496 123
314 868 438
315 176 25
316 824 82
317 281 949
318 594 400
319 10 280
320 118 205
321 677 390
322 19 187
323 266 971
324 976 790
325 87 602
326 670 316
327 761 466
328 237 724
329 91 189
330 229 296
331 980 970
332 663 691
333 16 299
334 972 560
335 298 972
336 556 678
337 624 36
338 488 752
339 409 568
340 32 545
341 881 445
342 477 892
343 48 558
344 316 928
345 46 518
346 288 114
347 267 514
348 829 404
349 223 704
350 956 308
351 368 523
352 987 3
353 170 703
354 742 338
355 116 155
356 451 777
357 973 57
358 225 138
359 518 310
360 776 30
361 955 382
362 62 317
363 471 40
364 966 476
365 524 326
366 209 361
367 896 507
368 470 876
369 450 114
370 324 779
371 104 241
372 57 522
373 923 27
374 712 427
375 470 964
376 693 963
377 311 479
378 271 194
379 964 724
380 176 808
381 384 936
382 371 981
383 846 857
384 945 504
385 791 719
386 751 372
387 75 958
388 62 898
389 994 91
390 80 955
391 744 327
392 458 595
393 372 168
394 66 190
395 197 229
396 413 716
397 184 835
398 591 356
399 996 23
400 845 854
401 850 475
402 693 951
403 880 672
404 936 622
405 544 21
406 289 72
407 906 45
408 412 160
409 769 573
410 709 340
411 268 211
412 640 263
413 604 137
414 305 190
415 305 835
416 66 597
417 566 121
418 990 771
419 413 711
420 580 374
421 729 641
422 409 283
423 386 329
424 528 22
425 55 599
426 476 8
427 255 769
428 296 575
429 503 884
430 489 958
431 262 795
432 191 708
433 978 896
434 394 834
435 156 888
436 962 119
437 955 217
438 615 425
439 733 282
440 151 182
441 613 431
442 160 725
443 90 574
444 935 608
445 760 475
446 749 859
447 177 967
448 269 829
449 550 370
450 397 539
451 389 199
452 498 893
453 226 358
454 966 481
455 597 134
456 139 824
457 246 744
458 391 718
459 192 857
460 70 999
461 375 330
462 90 117
463 390 352
464 379 971
465 951 753
466 350 340
467 4 293
468 710 511
469 242 988
470 214 834
471 13 547
472 164 342
473 659 346
474 809 539
475 930 196
476 974 862
477 11 303
478 643 667
479 409 926
480 584 675
481 137 732
482 442 514
483 626 494
484 790 425
485 160 720
486 501 66
487 789 555
488 893 652
489 995 293
490 855 486
491 153 435
492 728 97
493 186 15
494 175 942
495 232 991
496 408 267
497 798 568
498 104 139
499 540 277
500 544 996
501 829 952
502 370 965
503 72 268
504 555 758
DEMAND_SECTION
2 5
3 3
4 1
5 1
6 5
7 9
8 9
9 3
10 2
11 3
12 4
13 1
14 2
15 4
16 1
17 10
18 9
19 3
20 3
21 3
22 2
23 3
24 1
25 1
26 4
27 5
28 8
29 4
30 7
31 5
32 10
33 3
34 5
35 1
36 10
37 5
38 2
39 1
40 4
41 5
42 4
43 10
44 6
45 4
46 8
47 3
48 6
49 1
50 2
51 2
52 2
53 1
54 7
55 6
56 5
57 4
58 5
59 2
60 3
61 5
62 1
63 5
64 3
65 3
66 10
67 10
68 1
69 5
70 2
71 6
72 3
73 9
74 6
COVERAGE_SECTION
2 8 173 248 315 493 226 131 142 194 
3 9 73 300 263 258 494 459 214 435 39 
4 9 293 178 311 279 283 187 383 400 57 
5 8 8 285 219 376 150 402 66 302 
6 8 48 303 403 252 167 488 159 191 
7 8 154 149 111 361 93 257 350 489 
8 9 5 285 66 219 197 150 376 402 148 
9 8 213 334 299 160 175 246 384 267 
10 8 460 387 390 237 153 182 101 198 
11 9 469 495 39 323 171 317 335 155 193 
12 8 322 183 122 134 394 261 22 329 
13 9 193 317 344 155 263 300 138 152 335 
14 8 377 347 259 222 137 123 170 428 
15 9 106 414 393 451 119 378 236 411 408 
16 9 305 504 480 216 336 44 297 108 478 
17 5 483 468 121 291 76 
18 9 345 296 372 340 280 471 97 47 343 
19 8 435 309 388 96 182 215 153 390 
20 9 190 228 60 484 26 89 127 348 21 
21 9 401 89 60 490 26 115 20 230 314 
22 8 319 467 333 477 203 12 503 208 
23 9 218 496 422 59 118 461 75 220 423 
24 9 307 474 265 86 487 115 497 177 25 
25 9 265 487 474 307 24 115 409 497 445 
26 9 89 60 21 401 20 115 490 190 230 
27 9 206 406 104 346 146 70 172 15 393 
28 9 189 181 302 501 229 143 376 402 150 
29 9 355 498 329 440 320 81 462 394 298 
30 9 381 286 34 254 502 479 464 200 344 
31 9 266 102 241 239 395 289 330 84 129 
32 9 211 342 479 368 375 452 430 224 429 
33 9 391 354 410 77 439 145 386 326 204 
34 9 30 381 479 286 254 211 502 464 152 
35 9 245 326 162 473 412 398 55 145 234 
36 9 204 99 321 374 65 247 410 386 473 
37 9 380 397 112 470 456 41 459 215 258 
38 9 379 465 191 103 132 231 418 270 324 
39 8 495 469 11 171 447 214 323 494 
40 8 488 116 404 210 444 403 103 159 
41 7 431 255 470 448 427 37 397 
42 9 274 475 201 133 437 276 147 436 272 
43 9 471 340 343 47 18 345 97 425 372 
44 9 196 478 480 308 332 336 136 16 305 
45 7 217 306 94 222 223 207 137 
46 9 264 67 225 238 455 100 413 282 417 
47 9 343 340 280 372 43 345 18 443 243 
48 8 6 303 252 403 167 185 191 385 
49 9 269 358 292 84 289 146 378 298 411 
50 9 117 476 205 187 324 311 178 270 433 
51 5 169 360 316 492 144 
52 9 143 139 166 130 383 400 279 250 202 
53 9 366 233 158 453 277 91 188 251 87 
54 9 356 79 180 396 235 85 92 338 419 
55 9 398 420 135 234 174 163 318 162 449 
56 7 284 126 151 301 491 253 158 
57 9 283 167 185 4 178 311 400 187 383 
58 8 432 442 485 353 165 349 328 457 
59 9 118 423 461 218 463 466 220 422 23 
60 9 89 21 26 401 20 490 230 190 314 
61 9 124 417 157 313 156 225 295 179 244 
62 8 290 287 252 385 303 421 109 159 
63 6 331 310 90 110 232 80 
64 8 140 209 262 304 503 203 362 294 
65 8 99 321 36 438 441 204 163 174 
66 8 8 197 148 500 219 5 285 430 
67 8 100 238 46 125 264 337 225 107 
68 9 363 95 273 426 486 369 424 313 405 
69 9 339 450 275 120 105 482 392 192 164 
70 8 172 268 406 271 104 493 206 27 
71 9 365 359 114 234 449 135 162 499 420 
72 9 357 260 389 436 82 373 407 399 276 
73 9 300 263 3 13 258 317 193 39 323 
74 6 434 83 415 161 370 138 
75 8 422 496 118 59 423 23 218 461 
76 9 121 468 25 445 17 409 327 265 487 
77 8 145 326 410 439 33 391 354 278 
78 9 384 367 454 364 213 9 341 227 490 
79 8 356 54 92 180 338 83 434 85 
80 6 232 90 433 331 476 63 
81 9 320 329 371 261 29 134 440 394 355 
82 3 407 373 72 
83 7 434 74 79 370 54 356 235 
84 9 289 49 395 269 102 358 292 440 31 
85 6 180 338 396 419 54 92 
86 9 24 307 474 227 115 177 265 497 487 
87 9 472 233 91 129 53 366 188 294 158 
88 9 405 424 125 67 426 100 273 337 486 
89 9 60 21 26 401 490 20 115 230 190 
90 6 232 80 331 433 63 476 
91 7 188 233 53 87 158 366 472 
92 7 338 180 356 79 54 85 504 
93 6 111 361 154 7 149 364 
94 5 217 306 45 222 223 
95 8 68 363 273 426 486 369 424 313 
96 7 388 309 182 101 19 198 390 
97 9 296 471 18 340 345 43 372 221 343 
98 6 244 179 156 124 61 295 
99 9 36 321 65 204 374 247 473 438 441 
100 7 67 238 337 125 107 264 46 
101 8 198 182 96 388 309 387 10 390 
102 9 241 31 395 266 239 289 84 440 330 
103 9 38 379 40 240 132 404 488 403 465 
104 9 206 27 406 172 70 346 268 271 146 
105 8 128 275 339 120 450 69 351 137 
106 9 15 414 393 451 119 378 236 411 408 
107 5 337 125 100 238 67 
108 3 297 504 16 
109 7 159 184 116 488 403 177 40 
110 6 310 202 250 229 501 63 
111 5 361 93 154 149 7 
112 9 397 380 459 215 456 37 470 258 435 
113 7 282 413 455 264 46 238 288 
114 8 365 359 71 162 499 234 135 449 
115 9 26 24 474 21 86 307 89 490 265 
116 7 488 40 159 403 109 210 404 
117 9 50 476 205 187 324 433 270 311 178 
118 9 59 423 461 218 463 466 220 422 23 
119 9 236 411 378 414 106 199 15 312 289 
120 7 275 339 105 69 392 128 450 
121 8 76 468 17 25 291 445 409 327 
122 8 394 183 134 12 261 329 322 81 
123 5 428 259 347 14 128 
124 9 61 417 157 156 313 179 295 244 225 
125 5 337 107 100 238 67 
126 5 301 284 151 56 170 
127 7 348 176 190 20 484 228 230 
128 8 105 351 450 275 339 120 137 69 
129 9 87 472 330 294 233 239 53 366 266 
130 9 400 383 166 52 139 279 143 283 185 
131 6 142 194 248 2 173 226 
132 9 379 38 418 465 103 231 324 191 270 
133 7 274 437 201 475 42 272 147 
134 9 261 394 122 183 329 12 81 371 320 
135 9 234 449 420 398 55 162 71 114 365 
136 5 308 196 44 478 291 
137 9 351 222 223 207 450 377 128 14 45 
138 9 152 254 344 13 286 415 193 30 263 
139 7 143 52 130 166 446 383 400 
140 8 64 209 262 304 203 503 362 294 
141 7 207 223 482 217 249 45 94 
142 6 131 194 315 2 173 493 
143 8 52 139 166 130 446 383 400 181 
144 5 288 492 51 113 264 
145 9 77 410 326 473 33 354 391 439 204 
146 8 292 346 269 358 49 378 406 414 
147 4 475 274 42 133 
148 6 197 66 452 429 430 500 
149 7 154 7 361 111 257 350 93 
150 7 376 402 302 285 5 189 181 
151 6 126 158 277 301 56 284 
152 9 138 254 286 344 13 30 415 193 34 
153 5 237 390 387 460 10 
154 7 7 149 111 361 93 257 350 
155 9 335 193 317 323 13 344 469 11 300 
156 5 179 98 244 124 61 
157 9 313 295 61 124 486 369 417 225 244 
158 9 277 53 366 188 453 91 233 151 251 
159 7 109 116 403 488 184 40 210 
160 9 213 9 454 334 384 364 299 246 175 
161 6 415 370 448 431 255 74 
162 9 114 234 135 398 55 35 245 365 499 
163 8 318 174 438 441 420 55 398 65 
164 4 392 69 192 120 
165 6 481 442 485 353 58 432 
166 9 383 400 52 279 130 139 143 250 293 
167 7 57 185 283 48 191 6 231 
168 3 316 51 147 
169 3 360 51 316 
170 6 253 284 126 301 347 56 
171 5 447 39 214 494 495 
172 8 70 268 406 104 271 206 27 493 
173 8 2 248 315 493 226 131 142 194 
174 8 163 318 55 420 398 438 441 65 
175 7 246 299 334 444 9 267 212 
176 6 127 348 190 484 228 20 
177 8 497 184 307 24 474 487 86 265 
178 8 311 187 4 293 50 476 117 279 
179 5 156 98 244 124 61 
180 7 338 85 92 54 356 79 396 
181 7 189 28 302 143 402 150 376 
182 9 96 388 309 101 387 390 198 10 19 
183 7 122 394 12 322 134 261 329 
184 7 177 109 497 159 86 307 24 
185 5 167 283 57 130 48 
186 9 382 200 464 502 381 30 335 479 155 
187 9 311 178 50 117 270 476 4 324 293 
188 8 91 233 158 53 366 87 277 472 
189 8 28 181 302 376 402 150 501 229 
190 9 348 127 20 230 176 60 228 314 484 
191 9 231 465 38 270 379 324 167 418 57 
192 4 482 69 392 164 
193 9 317 155 13 335 323 344 300 263 469 
194 6 142 315 131 271 493 2 
195 8 256 280 372 443 243 345 47 221 
196 7 44 308 480 136 478 336 332 
197 6 148 66 219 452 429 500 
198 8 101 182 96 388 309 10 387 390 
199 8 312 330 119 236 411 239 31 266 
200 9 382 186 502 464 381 30 335 344 286 
201 7 437 133 274 475 42 272 147 
202 8 250 501 229 110 166 279 52 293 
203 7 503 262 362 140 64 333 319 
204 9 36 321 99 374 410 65 473 247 386 
205 9 117 324 50 418 270 476 187 231 465 
206 9 27 104 406 346 172 70 146 393 15 
207 9 223 137 141 222 45 217 351 482 306 
208 6 477 333 467 319 362 22 
209 8 64 140 304 262 362 294 203 503 
210 7 444 404 40 116 488 267 175 
211 9 479 32 34 381 342 368 375 30 224 
212 7 334 299 175 246 240 9 444 
213 9 9 160 334 384 299 246 175 454 364 
214 5 494 447 171 39 3 
215 8 456 112 397 380 435 459 37 19 
216 5 297 16 332 478 108 
217 6 45 306 94 222 223 207 
218 8 59 461 118 423 466 220 463 23 
219 6 285 8 5 66 197 148 
220 6 466 218 461 59 118 423 
221 6 296 345 18 372 280 97 
222 9 137 45 377 217 223 306 207 351 94 
223 9 207 137 222 45 217 306 351 141 94 
224 5 368 342 429 452 32 
225 9 417 46 455 67 61 413 124 264 100 
226 4 248 173 2 131 
227 9 86 367 490 401 115 21 24 307 474 
228 9 484 20 190 127 348 176 327 26 60 
229 8 501 202 28 110 250 310 189 181 
230 7 314 341 190 60 89 348 401 
231 9 465 191 270 324 38 379 418 132 187 
232 6 90 80 331 433 63 476 
233 9 91 53 87 188 366 472 158 453 277 
234 9 135 449 398 420 55 162 71 114 365 
235 4 458 396 419 54 
236 9 411 378 119 414 289 84 199 269 15 
237 5 153 390 387 460 10 
238 7 100 264 337 67 107 125 46 
239 9 266 31 241 102 395 129 330 294 312 
240 7 103 212 404 444 40 132 175 
241 9 102 31 266 239 395 129 289 304 294 
242 7 249 463 423 118 59 461 75 
243 8 443 325 416 47 425 343 280 256 
244 6 98 179 156 124 295 61 
245 6 412 35 162 499 326 114 
246 7 175 299 334 444 9 267 212 
247 9 374 99 36 204 327 321 445 65 17 
248 6 226 2 173 131 142 315 
249 7 242 71 463 365 141 359 423 
250 8 202 501 166 279 110 229 52 293 
251 7 453 277 366 53 158 151 233 
252 7 303 385 287 48 6 62 290 
253 6 170 284 56 126 301 347 
254 9 286 152 30 34 138 344 381 479 13 
255 8 448 41 431 415 161 470 427 258 
256 7 195 280 372 443 243 47 345 
257 5 350 489 149 7 154 
258 9 459 470 397 112 3 73 435 41 380 
259 6 123 428 347 14 128 377 
260 7 436 389 72 276 357 42 399 
261 9 134 394 122 329 371 81 183 12 320 
262 8 503 64 140 203 209 371 304 362 
263 9 300 73 13 3 317 193 323 258 155 
264 8 46 238 67 100 113 282 413 455 
265 9 474 307 487 24 25 497 409 86 115 
266 9 239 31 241 102 395 330 129 294 312 
267 7 246 175 210 444 299 9 367 
268 8 70 172 493 271 315 406 194 104 
269 8 49 292 358 146 84 289 378 298 
270 9 231 324 465 418 191 187 50 205 117 
271 7 194 70 268 315 493 172 406 
272 7 437 201 133 274 475 42 489 
273 9 426 363 68 95 486 424 405 88 369 
274 7 475 133 201 42 437 147 272 
275 7 120 339 105 69 128 450 392 
276 9 436 260 389 42 72 201 274 475 133 
277 9 453 158 251 366 53 151 188 233 91 
278 3 439 77 33 
279 9 383 166 293 400 4 130 283 52 250 
280 9 372 345 47 18 256 343 195 340 296 
281 5 425 416 43 325 343 
282 7 413 113 455 46 264 417 225 
283 9 57 167 400 4 383 185 279 130 178 
284 6 56 126 170 301 253 151 
285 7 5 219 8 402 150 376 66 
286 9 254 30 34 152 381 344 138 502 479 
287 5 385 252 303 62 290 
288 5 144 492 113 51 264 
289 9 84 395 49 269 411 102 378 31 236 
290 7 62 421 287 385 252 109 303 
291 3 483 17 136 
292 7 358 269 49 146 84 298 346 
293 8 4 279 178 311 383 166 400 187 
294 9 304 472 87 129 209 64 140 239 233 
295 8 313 157 61 124 369 244 98 156 
296 9 18 345 372 97 221 340 471 280 43 
297 4 108 216 16 504 
298 6 440 358 355 49 29 292 
299 7 334 175 246 9 212 213 444 
300 9 263 73 3 13 317 193 323 155 258 
301 5 126 284 151 56 170 
302 8 189 376 150 402 28 181 285 5 
303 7 252 385 287 48 6 62 185 
304 9 64 294 209 140 262 371 503 241 472 
305 7 336 480 16 504 44 338 196 
306 5 217 45 94 222 223 
307 9 474 24 265 86 487 497 177 115 25 
308 6 136 478 44 196 332 480 
309 5 388 96 182 19 101 
310 5 110 63 331 202 250 
311 8 178 187 4 293 50 476 117 57 
312 8 199 330 239 266 31 129 119 411 
313 8 157 295 61 124 369 486 417 244 
314 7 230 341 60 190 401 21 89 
315 8 493 2 173 194 142 131 271 248 
316 2 51 169 
317 9 193 155 13 323 335 344 263 300 469 
318 7 163 174 420 438 441 55 398 
319 6 467 333 22 477 208 203 
320 9 81 329 29 371 440 261 134 355 394 
321 9 36 99 204 65 473 374 247 410 174 
322 7 12 183 122 394 134 261 22 
323 9 317 155 469 335 193 11 495 13 39 
324 9 418 270 205 231 465 50 117 187 191 
325 6 416 243 443 425 47 343 
326 8 145 473 77 35 410 412 33 439 
327 9 445 228 484 247 20 25 374 26 115 
328 4 457 349 58 427 
329 9 394 81 134 320 261 122 29 355 183 
330 8 312 129 199 239 266 31 453 251 
331 6 90 232 63 80 310 433 
332 6 478 216 308 44 480 16 
333 6 477 467 208 319 22 203 
334 7 299 9 175 246 213 212 160 
335 9 155 193 317 323 13 344 469 200 11 
336 6 305 480 16 44 196 504 
337 5 107 125 100 238 67 
338 7 92 180 85 356 54 79 504 
339 9 69 275 120 105 450 128 392 351 482 
340 9 43 471 343 18 47 345 372 296 97 
341 6 314 230 401 21 60 490 
342 7 368 224 452 429 32 211 430 
343 9 47 340 43 372 471 18 280 345 425 
344 9 13 193 152 138 155 317 286 254 335 
345 9 18 372 296 280 340 47 221 343 471 
346 9 146 406 27 206 292 358 269 414 104 
347 8 14 259 170 377 123 253 428 284 
348 7 127 176 190 20 230 484 228 
349 3 328 432 58 
350 5 257 489 149 7 154 
351 9 137 450 128 105 223 207 222 339 69 
352 9 399 357 373 72 389 82 407 260 436 
353 5 485 432 442 165 58 
354 9 391 33 410 386 145 77 439 204 326 
355 8 29 498 329 440 462 320 81 298 
356 8 79 54 92 180 338 85 83 396 
357 9 72 389 399 260 352 373 436 82 407 
358 7 292 269 49 146 298 84 289 
359 8 365 114 71 499 162 234 135 449 
360 4 169 51 316 492 
361 5 111 93 154 149 7 
362 6 203 140 209 64 262 333 
363 9 68 273 95 426 486 424 405 369 313 
364 8 454 384 78 160 213 9 93 367 
365 8 71 359 114 234 135 449 499 162 
366 9 53 453 158 277 233 251 91 188 87 
367 9 78 227 490 384 401 267 21 341 86 
368 6 224 342 452 429 32 211 
369 8 313 295 157 408 486 68 95 363 
370 3 161 74 415 
371 9 81 261 262 320 503 134 64 304 329 
372 9 345 280 18 296 47 340 343 221 471 
373 6 82 407 357 72 352 399 
374 9 247 36 99 204 321 65 327 386 445 
375 9 430 32 211 342 479 452 500 148 429 
376 8 150 402 302 285 5 189 181 8 
377 6 14 222 137 347 45 306 
378 9 236 411 119 414 289 269 49 146 84 
379 9 38 132 465 103 191 231 418 270 324 
380 9 37 397 112 456 470 215 459 41 258 
381 9 30 34 479 502 464 286 382 211 200 
382 9 200 186 464 502 381 30 479 34 286 
383 9 400 166 130 279 52 283 4 139 293 
384 9 78 454 213 364 9 160 367 334 299 
385 5 287 252 303 62 290 
386 9 354 391 33 410 204 36 484 374 228 
387 7 390 153 10 237 460 182 388 
388 8 96 309 182 101 19 390 198 387 
389 9 260 72 357 436 276 399 352 42 373 
390 7 387 153 237 10 182 460 388 
391 9 33 354 410 386 439 77 145 204 326 
392 5 164 69 120 339 275 
393 8 451 15 106 408 414 369 27 119 
394 9 122 183 134 329 261 12 322 81 320 
395 9 102 31 241 266 289 84 239 440 49 
396 6 419 235 458 54 85 180 
397 9 112 459 380 470 37 258 215 456 41 
398 9 55 420 135 234 174 162 449 318 163 
399 9 352 357 72 389 373 260 82 407 436 
400 9 383 130 166 279 52 283 139 4 293 
401 9 21 490 89 60 26 314 230 115 341 
402 7 150 376 302 285 5 189 181 
403 8 488 116 159 6 40 109 48 210 
404 7 444 210 40 175 246 488 116 
405 9 424 88 486 67 426 125 273 100 363 
406 9 27 346 206 104 70 172 146 271 268 
407 3 82 373 72 
408 7 393 451 369 106 15 295 313 
409 8 487 497 265 25 474 307 177 24 
410 9 145 33 354 77 391 204 326 473 386 
411 9 236 378 119 414 289 84 199 269 49 
412 5 245 35 326 77 145 
413 7 455 282 113 46 417 264 225 
414 9 15 106 119 378 236 411 146 393 346 
415 7 161 448 255 74 138 370 431 
416 7 425 325 443 243 343 47 281 
417 8 225 61 455 124 413 46 282 157 
418 9 324 205 270 465 231 132 379 38 191 
419 6 396 235 458 85 54 180 
420 8 55 398 135 234 318 449 174 163 
421 6 290 62 409 308 332 478 
422 8 75 496 59 118 23 423 218 461 
423 8 118 59 461 463 218 466 220 422 
424 9 405 88 486 426 273 363 68 67 125 
425 8 416 325 281 343 443 243 47 43 
426 9 273 363 68 95 424 486 405 88 369 
427 4 431 457 41 328 
428 5 123 259 14 347 128 
429 5 452 224 342 368 32 
430 9 375 32 452 342 500 148 211 429 197 
431 5 427 41 255 448 161 
432 5 353 58 349 485 442 
433 6 476 80 232 90 117 50 
434 8 83 74 79 34 254 356 54 286 
435 9 19 459 215 3 112 258 494 397 214 
436 7 260 276 389 72 42 357 274 
437 7 133 201 274 272 475 42 147 
438 6 441 163 318 174 65 420 
439 6 278 77 33 391 354 145 
440 9 29 320 355 81 298 84 329 498 395 
441 5 438 163 318 174 65 
442 6 485 165 353 481 432 58 
443 8 243 325 416 47 425 343 280 256 
444 7 404 210 175 246 40 267 299 
445 9 327 25 228 484 247 468 20 76 115 
446 3 139 143 52 
447 5 171 214 494 39 495 
448 7 255 431 41 415 161 470 427 
449 8 135 234 420 71 398 55 365 318 
450 9 339 351 69 105 128 275 482 137 120 
451 7 393 408 106 15 496 23 414 
452 6 429 342 224 368 32 148 
453 9 251 277 366 53 158 233 188 91 151 
454 8 364 384 78 160 213 9 367 93 
455 7 413 282 417 46 113 225 264 
456 6 215 112 380 397 37 459 
457 5 328 427 349 58 431 
458 4 235 396 419 54 
459 9 258 397 112 470 435 3 380 37 215 
460 6 10 237 387 390 153 182 
461 7 59 118 423 218 463 466 220 
462 3 498 355 29 
463 7 423 461 118 59 218 466 242 
464 9 502 382 200 186 381 30 479 34 286 
465 9 231 191 38 379 270 418 324 132 103 
466 7 220 218 461 59 118 423 463 
467 6 477 333 319 208 22 203 
468 9 121 76 17 445 25 327 247 291 374 
469 9 11 495 323 39 317 155 335 171 193 
470 9 258 397 459 41 37 112 380 255 448 
471 9 43 340 97 18 343 296 47 345 372 
472 7 87 233 91 294 129 188 53 
473 9 326 145 35 321 410 204 77 174 36 
474 9 307 24 265 487 86 497 25 115 177 
475 7 274 133 42 201 437 147 272 
476 8 50 117 433 187 311 178 205 80 
477 6 333 208 467 319 22 203 
478 7 332 44 308 196 480 136 216 
479 9 211 34 381 30 32 464 502 286 254 
480 9 336 44 305 196 16 478 308 332 216 
481 6 165 442 485 353 58 432 
482 8 192 69 450 207 339 141 223 351 
483 2 17 291 
484 9 228 20 127 190 348 176 327 26 60 
485 6 442 165 353 481 432 58 
486 9 363 68 424 273 157 313 405 426 95 
487 9 497 265 307 474 409 24 25 177 86 
488 8 116 403 40 159 210 109 404 444 
489 6 257 350 149 7 272 154 
490 9 401 21 89 60 26 227 115 367 341 
491 4 56 188 284 91 
492 6 144 288 51 360 169 168 
493 9 315 2 173 194 268 142 271 248 131 
494 6 214 447 171 3 39 435 
495 9 469 11 39 323 171 447 317 155 335 
496 8 422 75 23 59 118 423 218 451 
497 9 487 177 265 409 307 474 24 184 25 
498 7 355 462 29 329 394 440 298 
499 6 114 359 365 162 71 245 
500 9 66 430 148 197 8 375 5 219 452 
501 8 229 202 250 28 110 52 143 181 
502 9 464 382 200 186 381 30 479 34 286 
503 8 262 203 140 64 371 362 261 209 
504 8 16 305 108 338 92 297 336 180 
DEPOT_SECTION
   1
   -1
EOF
