NAME :  X-n701-kX-w280-c11.cctp
COMMENT : 	Adapted by Maziero, Usberti and Cavellucci from the Uchoa, Pecin, Pessoa, Poggi, Subramanian, and Vidal (2013)
TYPE :  CCTP
DIMENSION :    619
EDGE_WEIGHT_TYPE : 	EUC_2D	
CAPACITY : 	87
VERTICES_WITHIN_COVERAGE :  11
VERTICES_WITH_DEMAND : 	280
NODE_COORD_SECTION
1 0 0
2 878 606
3 35 593
4 320 125
5 189 244
6 274 784
7 900 310
8 742 640
9 800 448
10 57 755
11 522 327
12 528 268
13 461 328
14 325 726
15 788 496
16 626 660
17 720 744
18 3 417
19 32 306
20 65 233
21 827 442
22 347 566
23 545 389
24 452 670
25 236 564
26 439 425
27 69 17
28 468 416
29 103 137
30 689 261
31 300 603
32 378 187
33 790 584
34 336 860
35 386 199
36 522 461
37 356 214
38 947 18
39 431 1000
40 817 983
41 71 731
42 918 54
43 989 840
44 260 262
45 904 724
46 970 295
47 567 694
48 426 75
49 24 178
50 656 590
51 128 178
52 969 965
53 309 968
54 855 798
55 587 48
56 118 736
57 838 354
58 274 298
59 311 702
60 183 963
61 392 495
62 950 484
63 621 676
64 52 482
65 956 934
66 745 263
67 289 149
68 689 900
69 216 107
70 852 560
71 45 441
72 638 84
73 66 842
74 290 815
75 68 509
76 521 672
77 100 855
78 408 483
79 491 455
80 536 563
81 114 255
82 383 536
83 902 19
84 964 423
85 610 39
86 719 961
87 837 83
88 657 185
89 289 599
90 747 259
91 292 168
92 552 548
93 560 212
94 128 950
95 211 939
96 160 473
97 32 550
98 353 65
99 995 695
100 72 691
101 19 172
102 237 657
103 994 883
104 457 195
105 35 32
106 425 288
107 12 586
108 560 747
109 302 972
110 891 540
111 812 30
112 206 371
113 241 223
114 436 508
115 601 81
116 298 860
117 977 911
118 188 304
119 545 745
120 318 269
121 839 548
122 107 557
123 262 668
124 824 424
125 859 540
126 477 909
127 323 639
128 954 411
129 271 682
130 412 518
131 751 85
132 922 84
133 13 661
134 354 560
135 524 576
136 522 565
137 228 552
138 573 723
139 71 320
140 627 736
141 760 323
142 668 714
143 777 669
144 685 750
145 654 333
146 63 754
147 477 613
148 224 523
149 662 829
150 515 78
151 962 282
152 351 237
153 737 451
154 605 442
155 472 449
156 249 840
157 537 728
158 244 611
159 205 27
160 681 545
161 921 582
162 171 870
163 810 570
164 487 331
165 451 822
166 453 518
167 888 770
168 85 443
169 895 651
170 984 369
171 494 962
172 973 891
173 721 160
174 989 256
175 638 621
176 223 951
177 602 835
178 516 523
179 780 864
180 991 664
181 914 45
182 949 533
183 335 946
184 6 338
185 234 558
186 491 163
187 170 763
188 77 45
189 845 26
190 681 306
191 107 355
192 593 124
193 231 497
194 881 371
195 420 399
196 17 680
197 581 906
198 783 782
199 334 715
200 395 79
201 285 579
202 908 478
203 532 760
204 847 460
205 438 733
206 102 417
207 645 136
208 71 222
209 337 978
210 44 67
211 760 84
212 849 533
213 984 810
214 738 919
215 918 985
216 533 824
217 579 119
218 14 972
219 609 859
220 560 291
221 32 686
222 35 244
223 280 871
224 940 401
225 452 680
226 790 271
227 832 824
228 765 381
229 653 162
230 594 601
231 114 661
232 702 726
233 649 586
234 594 299
235 433 966
236 499 695
237 159 291
238 261 445
239 46 465
240 479 816
241 108 11
242 898 637
243 667 524
244 46 379
245 120 371
246 133 485
247 958 649
248 182 943
249 23 384
250 426 116
251 36 988
252 945 828
253 350 956
254 560 676
255 975 826
256 972 624
257 836 379
258 149 821
259 295 92
260 977 685
261 917 843
262 137 226
263 477 858
264 256 630
265 235 922
266 292 81
267 449 829
268 179 845
269 136 84
270 713 592
271 94 858
272 697 981
273 165 188
274 326 480
275 750 434
276 836 453
277 574 982
278 386 481
279 705 190
280 203 945
281 816 604
282 975 849
283 483 904
284 47 84
285 503 851
286 438 468
287 937 42
288 629 845
289 209 270
290 61 456
291 906 841
292 624 195
293 662 907
294 673 555
295 307 43
296 296 837
297 253 75
298 829 599
299 138 159
300 617 363
301 710 107
302 37 564
303 974 967
304 759 756
305 580 848
306 260 64
307 466 4
308 596 890
309 745 159
310 847 81
311 207 27
312 912 418
313 859 340
314 425 770
315 375 325
316 114 18
317 923 49
318 87 908
319 84 327
320 219 869
321 378 164
322 800 100
323 22 470
324 952 3
325 105 215
326 80 581
327 728 532
328 823 527
329 625 890
330 854 377
331 500 240
332 126 833
333 560 23
334 138 966
335 909 990
336 447 664
337 187 283
338 435 345
339 460 767
340 325 901
341 362 602
342 448 905
343 485 74
344 754 65
345 19 676
346 583 926
347 678 820
348 451 76
349 497 468
350 910 712
351 364 919
352 580 785
353 513 457
354 860 683
355 486 458
356 768 472
357 490 89
358 936 775
359 663 367
360 800 702
361 846 788
362 343 784
363 477 523
364 459 894
365 422 91
366 612 340
367 881 418
368 665 647
369 488 927
370 574 373
371 318 951
372 580 535
373 381 57
374 578 904
375 529 432
376 424 941
377 564 835
378 462 915
379 604 438
380 711 692
381 575 526
382 585 331
383 1000 582
384 694 324
385 715 435
386 531 377
387 916 669
388 319 988
389 748 383
390 550 545
391 817 728
392 886 630
393 369 882
394 464 790
395 459 892
396 923 675
397 263 731
398 910 658
399 954 676
400 463 15
401 339 995
402 548 384
403 646 127
404 530 491
405 892 599
406 857 656
407 379 965
408 910 765
409 764 542
410 746 566
411 758 330
412 788 471
413 601 815
414 599 443
415 612 452
416 517 665
417 471 427
418 314 942
419 467 104
420 449 692
421 603 776
422 785 108
423 705 286
424 861 753
425 253 757
426 582 120
427 859 725
428 930 746
429 356 949
430 194 998
431 523 914
432 249 8
433 569 530
434 634 437
435 697 596
436 800 653
437 388 283
438 610 597
439 628 541
440 406 480
441 519 35
442 960 884
443 1000 655
444 891 715
445 375 465
446 653 335
447 881 810
448 476 502
449 512 6
450 314 80
451 372 452
452 796 503
453 980 890
454 821 409
455 459 846
456 469 73
457 528 455
458 714 162
459 436 399
460 441 504
461 677 307
462 979 797
463 691 762
464 322 213
465 600 75
466 458 506
467 368 879
468 782 605
469 700 177
470 553 57
471 361 931
472 535 162
473 779 427
474 580 467
475 584 169
476 711 433
477 485 490
478 968 639
479 469 82
480 538 432
481 423 126
482 649 580
483 741 403
484 714 575
485 630 532
486 937 664
487 561 303
488 316 878
489 476 920
490 503 81
491 368 922
492 966 709
493 482 907
494 426 613
495 619 443
496 319 189
497 696 579
498 561 392
499 759 434
500 549 403
501 498 309
502 697 697
503 509 466
504 276 695
505 383 737
506 566 572
507 854 859
508 855 780
509 449 817
510 534 381
511 514 94
512 782 608
513 911 584
514 794 421
515 930 603
516 465 430
517 925 589
518 903 700
519 568 459
520 86 841
521 936 814
522 549 796
523 953 696
524 447 81
525 933 643
526 956 648
527 936 782
528 839 490
529 542 792
530 313 985
531 760 439
532 552 70
533 851 771
534 926 659
535 583 543
536 677 320
537 901 671
538 408 731
539 897 704
540 929 716
541 542 495
542 489 528
543 469 846
544 261 63
545 434 996
546 788 856
547 978 757
548 623 345
549 543 811
550 653 493
551 379 843
552 506 537
553 496 106
554 383 774
555 462 553
556 302 731
557 610 449
558 532 555
559 534 722
560 548 215
561 352 885
562 415 527
563 353 967
564 896 713
565 540 259
566 839 438
567 365 542
568 590 403
569 481 887
570 502 470
571 319 886
572 439 0
573 927 975
574 864 824
575 462 863
576 630 506
577 367 989
578 550 29
579 542 469
580 667 751
581 364 868
582 790 67
583 491 754
584 320 938
585 389 659
586 568 443
587 576 450
588 584 364
589 333 868
590 762 894
591 834 595
592 430 114
593 807 652
594 522 548
595 585 319
596 418 848
597 812 478
598 638 504
599 509 877
600 732 547
601 540 734
602 738 408
603 417 762
604 473 879
605 520 472
606 593 467
607 965 697
608 515 504
609 484 966
610 632 71
611 966 732
612 864 521
613 878 724
614 246 855
615 669 545
616 591 551
617 803 761
618 889 884
619 517 469
DEMAND_SECTION
2 2
3 8
4 7
5 5
6 3
7 7
8 6
9 3
10 10
11 2
12 1
13 8
14 8
15 8
16 8
17 4
18 9
19 7
20 9
21 4
22 10
23 4
24 1
25 2
26 1
27 9
28 4
29 4
30 5
31 8
32 2
33 9
34 3
35 1
36 8
37 2
38 8
39 3
40 3
41 2
42 4
43 3
44 2
45 7
46 7
47 9
48 1
49 5
50 7
51 10
52 5
53 9
54 7
55 7
56 1
57 3
58 5
59 9
60 5
61 4
62 5
63 9
64 4
65 4
66 7
67 8
68 1
69 8
70 7
71 2
72 9
73 5
74 1
75 6
76 8
77 4
78 10
79 9
80 8
81 4
82 2
83 8
84 1
85 5
86 2
87 7
88 3
89 1
90 2
91 6
92 5
93 10
94 9
95 6
96 8
97 6
98 1
99 8
100 3
101 8
102 9
103 2
104 9
105 8
106 8
107 2
108 7
109 4
110 10
111 5
112 4
113 10
114 9
115 9
116 7
117 6
118 7
119 10
120 10
121 5
122 6
123 1
124 3
125 4
126 1
127 5
128 8
129 3
130 1
131 4
132 4
133 3
134 8
135 6
136 8
137 1
138 2
139 2
140 8
141 9
142 6
143 10
144 3
145 1
146 5
147 6
148 1
149 4
150 4
151 10
152 8
153 10
154 5
155 5
156 8
157 10
158 1
159 2
160 7
161 4
162 3
163 4
164 4
165 6
166 3
167 1
168 8
169 9
170 8
171 5
172 1
173 2
174 2
175 10
176 9
177 4
178 7
179 7
180 2
181 1
182 4
183 2
184 9
185 6
186 6
187 8
188 9
189 1
190 10
191 2
192 10
193 6
194 4
195 9
196 10
197 1
198 8
199 1
200 4
201 2
202 4
203 2
204 5
205 5
206 9
207 1
208 5
209 7
210 2
211 4
212 1
213 1
214 9
215 3
216 8
217 1
218 4
219 9
220 5
221 8
222 2
223 10
224 1
225 6
226 1
227 9
228 3
229 9
230 4
231 1
232 10
233 8
234 6
235 4
236 8
237 2
238 7
239 8
240 7
241 7
242 6
243 6
244 5
245 6
246 1
247 8
248 10
249 1
250 6
251 1
252 6
253 5
254 6
255 2
256 4
257 4
258 1
259 6
260 10
261 4
262 1
263 8
264 1
265 3
266 1
267 10
268 1
269 5
270 10
271 6
272 7
273 4
274 5
275 4
276 4
277 10
278 10
279 1
280 8
281 5
COVERAGE_SECTION
2 11 405 392 242 513 591 169 161 298 517 515 70 
3 11 107 302 97 326 133 122 345 196 75 221 231 
4 11 67 259 450 91 266 496 98 321 295 297 32 
5 11 289 337 262 113 237 118 273 44 81 325 51 
6 11 425 74 397 296 556 156 362 614 14 116 223 
7 11 313 194 151 46 57 330 257 224 170 174 312 
8 11 143 512 468 270 436 380 435 593 484 502 33 
9 11 412 21 514 473 597 124 276 356 566 531 499 
10 11 146 41 56 100 221 196 73 345 520 133 332 
11 11 501 164 487 386 220 510 12 13 382 402 595 
12 11 565 220 331 487 501 560 11 93 234 164 595 
13 11 164 338 501 106 11 459 195 386 315 437 28 
14 10 199 556 59 504 505 362 397 129 554 6 
15 10 452 412 597 356 328 9 528 409 276 531 
16 11 63 175 368 438 230 47 142 254 50 140 233 
17 11 232 463 144 304 502 380 580 142 198 617 347 
18 11 249 71 323 244 239 290 184 64 168 206 75 
19 11 139 184 319 222 244 249 20 191 208 81 245 
20 11 208 222 325 81 49 262 101 19 51 139 319 
21 11 566 276 124 204 9 454 514 597 412 528 473 
22 11 134 567 341 82 31 201 89 127 562 130 61 
23 10 402 510 500 498 386 370 480 375 588 568 
24 11 336 225 420 236 147 494 585 205 416 76 538 
25 11 185 137 148 158 201 89 193 264 31 102 123 
26 11 459 516 28 195 417 155 286 355 79 440 78 
27 11 188 105 241 316 210 284 269 29 159 311 299 
28 11 417 516 26 155 459 79 355 195 286 349 353 
29 11 299 51 269 284 325 273 49 101 208 210 262 
30 11 423 190 461 66 90 536 384 279 145 88 446 
31 11 89 201 127 264 158 22 341 134 25 123 185 
32 11 35 321 37 152 496 464 481 104 4 250 91 
33 11 468 163 512 281 298 591 410 409 121 70 328 
34 11 589 488 581 561 571 467 116 393 340 296 551 
35 11 32 37 321 152 464 496 104 481 437 250 592 
36 11 457 619 353 605 503 570 579 349 375 404 79 
37 11 152 35 464 32 496 321 120 437 91 67 4 
38 11 324 287 317 181 83 42 132 189 310 87 111 
39 10 545 235 376 407 609 577 171 563 378 429 
40 11 335 86 215 214 590 573 272 618 179 507 546 
41 11 146 10 100 56 221 196 345 231 133 187 73 
42 11 317 181 287 132 83 38 324 310 189 87 111 
43 11 282 255 213 103 462 252 453 172 442 521 117 
44 11 58 113 289 120 5 337 464 118 152 496 91 
45 9 350 564 444 539 518 540 613 428 408 
46 11 151 174 7 170 224 128 194 313 84 312 330 
47 11 254 138 559 157 601 76 108 119 63 416 16 
48 10 365 524 348 200 592 250 456 479 373 419 
49 11 101 208 222 20 29 325 284 51 210 299 81 
50 11 233 482 175 294 435 497 438 615 160 439 270 
51 11 299 273 325 29 262 208 81 20 5 269 49 
52 11 303 65 573 117 215 335 172 453 442 103 618 
53 11 109 530 371 388 418 209 584 183 401 253 563 
54 11 361 508 533 574 447 227 167 424 507 408 617 
55 11 85 465 470 115 333 532 578 610 72 441 217 
56 11 41 146 187 10 100 231 258 332 221 520 196 
57 11 257 313 330 194 454 124 7 367 228 514 141 
58 11 44 120 289 113 118 337 152 464 112 5 315 
59 11 199 14 556 504 129 397 123 127 425 505 102 
60 11 248 280 95 430 176 334 94 265 162 320 318 
61 11 278 78 440 130 445 562 82 114 451 460 286 
62 11 202 182 84 128 312 110 224 612 367 161 204 
63 11 16 368 47 175 140 142 254 138 502 230 438 
64 11 239 290 75 323 71 168 97 18 246 206 302 
65 11 117 52 303 172 442 453 573 103 215 335 618 
66 11 90 226 423 30 141 411 190 384 461 279 536 
67 11 91 4 496 259 266 464 450 297 69 113 306 
68 11 293 214 329 86 590 149 272 288 347 219 308 
69 11 297 306 544 259 266 159 311 269 67 299 273 
70 11 121 125 212 591 612 163 110 328 298 2 405 
71 11 290 239 323 168 64 18 249 206 244 75 246 
72 11 610 115 465 403 207 85 192 55 426 217 301 
73 11 520 271 77 332 318 258 10 146 162 41 268 
74 11 296 6 116 156 223 614 362 34 488 589 425 
75 11 64 239 290 97 323 122 302 168 246 71 326 
76 11 416 236 254 47 559 157 601 24 225 138 147 
77 11 271 520 332 73 318 258 162 268 94 146 10 
78 11 440 61 278 286 130 114 445 460 562 451 466 
79 11 355 349 570 155 503 353 619 36 417 605 477 
80 11 558 136 135 594 92 390 506 552 178 433 535 
81 11 262 325 20 208 237 5 51 139 319 337 222 
82 11 567 562 130 134 61 22 278 78 114 440 460 
83 11 181 317 42 287 38 324 189 132 310 87 111 
84 11 128 224 312 170 62 202 367 194 182 330 204 
85 11 55 465 610 115 333 72 470 578 532 217 426 
86 11 272 214 68 293 590 40 179 329 546 346 308 
87 11 310 322 582 189 422 111 211 132 344 42 131 
88 11 229 292 469 279 207 403 458 173 475 30 192 
89 11 31 201 264 158 127 25 22 185 341 123 134 
90 11 66 226 423 30 141 411 190 279 384 461 536 
91 11 67 496 4 464 113 259 37 321 266 32 152 
92 11 390 558 80 433 506 594 372 535 381 136 616 
93 11 560 475 565 472 12 292 331 220 186 487 234 
94 11 334 248 60 318 280 430 95 162 176 271 77 
95 11 280 176 248 265 60 430 320 334 162 94 614 
96 11 246 193 148 168 206 75 122 290 137 238 64 
97 11 302 107 3 75 326 64 122 323 239 290 71 
98 11 373 450 200 295 266 259 4 48 365 250 592 
99 9 260 607 180 492 443 523 399 611 247 
100 11 41 221 231 345 196 56 146 10 133 3 326 
101 11 49 208 222 20 29 284 325 210 51 299 81 
102 11 123 264 129 158 504 89 397 31 59 127 201 
103 11 453 172 117 442 282 43 255 65 213 252 52 
104 11 186 331 35 481 32 250 321 472 592 419 560 
105 11 210 27 188 284 241 316 269 29 101 49 299 
106 11 437 13 338 315 164 501 331 152 35 104 37 
107 11 3 302 97 326 133 345 196 75 122 221 64 
108 11 119 601 138 157 203 559 352 529 522 421 47 
109 11 53 530 388 371 418 209 584 183 401 253 563 
110 11 125 612 212 70 513 161 121 182 405 517 202 
111 11 189 582 87 310 344 322 211 131 422 83 181 
112 11 118 245 337 238 237 58 191 289 96 206 44 
113 11 44 5 289 91 337 58 464 273 496 67 120 
114 11 460 166 466 130 562 78 286 448 440 363 61 
115 11 465 610 55 72 85 426 192 217 532 470 403 
116 11 223 296 488 571 589 34 74 340 614 156 561 
117 11 172 453 65 442 103 52 303 282 43 573 255 
118 11 337 237 289 5 112 44 58 81 262 245 191 
119 11 601 108 157 203 559 138 529 522 352 583 47 
120 11 152 58 464 44 37 437 315 496 113 35 32 
121 11 70 212 125 328 163 612 591 298 110 528 33 
122 11 326 75 302 97 246 3 64 96 107 231 239 
123 11 129 102 504 264 59 158 397 127 89 31 556 
124 11 454 21 566 514 276 9 204 473 257 597 330 
125 11 212 612 70 121 110 328 528 163 591 298 405 
126 10 493 283 489 378 369 569 364 395 342 604 
127 11 31 89 341 59 129 123 264 585 201 504 22 
128 11 84 224 312 170 62 367 202 194 330 7 46 
129 11 504 123 102 59 397 264 556 127 14 199 158 
130 11 562 114 61 460 82 78 440 166 278 466 567 
131 11 211 344 422 582 301 322 309 173 111 458 87 
132 11 42 317 181 287 83 38 310 87 324 189 111 
133 11 345 196 221 100 3 107 41 302 231 10 326 
134 11 22 567 82 341 31 562 130 201 61 89 127 
135 11 136 80 558 594 92 390 506 552 178 542 147 
136 11 135 80 558 594 552 92 390 178 506 542 433 
137 11 185 25 148 193 158 201 89 264 31 96 102 
138 11 108 47 601 119 157 559 254 203 140 421 352 
139 11 319 19 191 244 184 245 81 249 222 20 237 
140 11 580 142 421 138 63 144 108 352 463 47 16 
141 8 411 228 226 389 66 90 384 423 
142 11 502 232 580 144 140 380 463 17 63 368 16 
143 11 436 593 360 8 512 468 380 391 281 406 354 
144 11 463 580 232 17 142 502 140 380 347 304 149 
145 9 446 536 548 359 461 190 384 366 300 
146 11 10 41 56 100 221 196 73 345 520 332 133 
147 11 494 336 135 24 555 136 416 225 76 80 594 
148 11 193 137 185 25 96 201 238 158 246 89 31 
149 11 347 288 177 219 413 329 463 68 293 580 421 
150 10 490 511 357 343 553 532 441 470 456 479 
151 11 46 174 7 170 313 194 224 128 84 57 330 
152 11 37 464 120 35 32 496 437 321 106 91 315 
153 6 275 531 385 499 476 356 
154 9 379 414 557 415 495 606 434 587 474 
155 11 355 79 516 417 349 28 570 286 26 503 353 
156 11 614 320 223 296 74 116 6 268 488 265 425 
157 11 559 601 119 108 203 138 47 236 583 254 76 
158 11 264 89 102 25 201 185 31 123 137 129 127 
159 11 311 432 306 544 297 69 269 316 241 266 295 
160 11 615 294 243 497 484 482 327 50 600 233 435 
161 11 517 513 515 405 2 110 182 392 242 525 256 
162 11 268 320 258 332 77 248 614 271 95 265 280 
163 11 33 281 298 591 121 70 328 468 512 212 409 
164 11 501 13 11 338 386 510 12 106 487 402 23 
165 9 509 267 455 240 543 394 575 596 263 
166 11 466 460 114 363 448 555 542 562 130 477 286 
167 11 408 424 508 533 447 54 361 613 358 428 45 
168 11 290 206 71 239 64 246 75 323 244 245 96 
169 10 242 398 537 392 387 534 396 406 525 486 
170 11 128 224 84 46 312 151 7 194 174 367 62 
171 11 609 369 489 126 431 493 378 283 235 545 342 
172 11 453 442 117 103 282 65 43 255 252 52 261 
173 11 458 309 469 279 301 229 88 207 131 403 422 
174 11 151 46 7 170 224 313 194 128 84 312 57 
175 11 50 233 368 438 16 482 230 63 435 497 294 
176 11 95 280 265 60 248 430 109 320 334 53 418 
177 11 413 219 305 288 377 308 352 421 149 329 549 
178 11 552 608 594 542 404 558 541 363 390 136 92 
179 11 546 590 227 214 507 198 574 68 54 361 617 
180 11 443 260 99 478 247 526 399 607 256 523 492 
181 11 42 317 287 83 132 38 324 189 310 87 111 
182 11 62 161 110 517 513 202 383 515 612 405 125 
183 11 584 253 371 418 429 563 471 209 53 351 491 
184 11 19 249 244 139 18 319 222 191 71 245 20 
185 11 25 137 148 158 201 193 89 264 31 102 22 
186 9 472 104 553 419 511 357 481 560 331 
187 11 56 258 268 332 425 397 41 6 146 162 156 
188 11 27 210 105 241 316 284 269 29 159 299 311 
189 11 111 310 83 87 582 181 42 317 322 287 132 
190 8 461 536 384 423 145 446 30 359 
191 11 245 319 139 206 244 237 249 19 168 118 81 
192 11 426 217 115 475 465 207 403 72 610 532 472 
193 11 148 137 238 185 25 96 274 201 246 158 89 
194 11 330 313 57 257 367 312 7 224 454 124 566 
195 11 459 26 28 516 338 417 286 155 451 445 13 
196 11 345 221 133 100 41 10 146 3 107 231 56 
197 11 374 346 308 329 219 305 431 377 177 277 288 
198 11 617 304 361 391 227 533 508 17 54 546 179 
199 11 14 59 556 505 504 362 129 397 538 127 554 
200 10 373 365 48 98 250 592 524 481 348 456 
201 11 89 31 25 158 185 264 22 137 127 134 341 
202 11 62 312 612 110 204 367 182 528 276 84 125 
203 11 119 601 108 157 529 559 522 583 549 352 138 
204 11 276 566 21 528 597 124 9 367 454 412 612 
205 11 538 603 314 339 420 225 505 583 394 24 554 
206 11 168 245 290 71 191 244 239 246 96 64 249 
207 11 403 229 88 72 192 292 426 610 217 469 475 
208 11 20 325 222 81 49 262 51 101 29 299 19 
209 11 401 563 388 530 253 53 183 577 371 429 109 
210 11 284 105 188 27 241 316 29 269 101 49 299 
211 11 131 344 582 422 322 301 111 309 87 173 310 
212 11 125 121 612 70 328 110 528 163 452 591 597 
213 10 462 255 43 282 252 521 547 527 358 103 
214 11 590 86 68 179 272 293 546 40 347 329 149 
215 11 335 573 52 303 65 117 40 618 172 442 453 
216 11 549 522 377 529 285 305 240 599 352 203 263 
217 11 426 192 115 465 475 532 472 403 470 207 72 
218 11 251 318 94 334 271 73 77 520 60 248 332 
219 11 288 177 305 308 329 413 377 197 374 149 293 
220 11 487 234 565 595 12 382 11 501 366 560 588 
221 11 196 345 133 100 41 10 146 231 3 56 107 
222 11 20 208 19 49 101 325 81 139 319 184 262 
223 11 116 488 296 614 571 156 589 340 34 74 320 
224 11 128 84 312 170 367 194 202 62 330 7 313 
225 11 24 420 336 236 205 585 416 538 76 147 494 
226 11 90 66 141 411 423 57 313 30 384 228 190 
227 11 574 54 361 507 508 447 546 533 198 179 617 
228 6 389 483 602 473 514 411 
229 11 88 207 403 292 469 279 458 173 475 192 72 
230 11 438 506 175 616 233 482 535 50 16 372 92 
231 11 100 56 41 221 326 345 196 133 3 122 146 
232 11 17 144 502 380 142 463 580 304 140 368 143 
233 11 482 50 175 294 438 615 497 435 439 160 230 
234 11 595 382 487 220 366 548 588 565 300 145 446 
235 8 376 545 39 609 407 378 171 342 
236 11 76 416 559 225 157 420 24 601 583 336 254 
237 11 337 118 289 5 81 262 191 319 245 112 139 
238 11 193 274 148 112 96 451 137 185 445 25 278 
239 11 290 64 71 323 168 75 18 206 249 97 244 
240 11 165 394 509 543 267 455 263 285 575 339 216 
241 11 316 27 188 105 269 210 284 159 311 29 432 
242 11 169 392 398 537 525 534 2 387 405 396 406 
243 8 615 160 294 550 598 485 576 439 
244 11 249 18 184 71 139 319 191 206 19 245 168 
245 11 191 206 319 139 244 168 112 237 118 249 71 
246 11 96 168 75 206 122 290 64 239 71 148 193 
247 11 526 478 486 525 399 256 534 180 260 443 396 
248 11 60 280 95 176 334 94 430 265 162 320 268 
249 11 244 18 184 71 19 139 290 319 239 168 206 
250 9 592 481 365 48 524 419 348 200 479 
251 11 218 318 94 334 271 77 60 73 248 520 430 
252 11 521 255 261 282 291 213 43 462 527 358 442 
253 11 429 563 183 209 471 407 371 584 577 491 418 
254 11 47 76 416 138 559 157 63 601 236 16 108 
255 11 213 43 282 462 252 521 527 103 261 442 358 
256 11 478 247 526 443 525 180 515 383 486 399 534 
257 11 330 57 454 313 194 124 514 566 367 21 228 
258 11 332 268 162 77 187 271 520 320 73 56 156 
259 11 266 450 4 297 306 544 295 67 98 91 69 
260 10 607 99 180 399 492 523 443 247 526 486 
261 11 291 252 521 447 618 574 282 442 255 527 507 
262 11 325 81 273 51 5 208 299 237 20 337 289 
263 11 543 575 604 455 285 569 599 395 267 364 240 
264 11 158 102 123 89 31 129 201 127 504 25 185 
265 11 95 176 280 320 248 60 223 614 418 162 156 
266 11 259 450 306 544 297 295 4 98 67 69 432 
267 9 165 509 455 543 240 575 596 263 394 
268 11 162 258 320 332 614 156 77 187 271 520 265 
269 11 29 316 188 299 241 69 159 284 311 51 210 
270 11 435 484 497 410 600 294 8 50 160 327 233 
271 11 77 520 73 332 318 258 162 268 94 10 146 
272 11 86 214 68 293 590 329 40 277 346 308 197 
273 11 51 299 262 5 325 29 81 113 289 69 337 
274 11 445 451 278 61 567 238 82 440 78 134 22 
275 9 499 531 153 602 473 483 385 476 356 
276 11 204 21 566 124 597 9 528 454 412 514 367 
277 11 346 197 374 171 431 609 308 369 329 293 489 
278 11 61 445 440 78 451 130 286 562 82 114 274 
279 11 469 458 173 88 309 229 30 90 207 292 66 
280 11 95 176 248 60 265 430 334 94 320 162 614 
281 11 298 591 33 468 512 163 593 436 70 121 2 
282 11 43 255 252 442 103 213 453 172 462 521 261 
283 11 493 126 489 569 369 378 364 395 604 342 599 
284 11 210 188 105 27 29 269 101 316 241 49 299 
285 11 263 599 543 216 604 240 569 575 455 283 549 
286 11 78 440 460 155 114 26 466 516 355 448 166 
287 11 317 42 181 38 83 324 132 189 310 87 111 
288 11 219 177 149 413 329 305 347 308 377 293 421 
289 11 337 5 118 44 237 113 58 262 273 81 112 
290 11 239 71 168 64 323 75 206 18 244 246 249 
291 11 261 447 521 252 574 618 507 527 54 282 442 
292 11 88 229 475 207 93 403 192 469 560 279 426 
293 11 68 329 308 288 219 214 149 86 197 346 272 
294 11 615 160 243 497 482 50 233 484 439 435 485 
295 11 450 266 259 544 98 306 297 432 373 4 200 
296 11 74 116 223 34 488 156 589 614 571 6 340 
297 11 306 544 266 259 69 450 295 311 432 159 67 
298 11 591 281 163 33 70 468 512 2 121 593 436 
299 11 51 273 29 325 262 269 208 69 5 81 20 
300 8 548 366 588 370 382 359 446 145 
301 11 131 173 211 458 344 309 403 207 469 422 72 
302 11 97 3 107 326 75 122 64 323 239 133 290 
303 11 52 65 573 117 215 335 172 453 442 103 282 
304 11 198 17 617 232 391 360 463 144 380 502 143 
305 11 377 177 219 413 308 288 549 216 374 197 522 
306 11 544 297 266 259 295 450 432 69 311 159 4 
307 11 400 572 449 441 456 343 348 479 524 48 490 
308 11 197 374 329 219 346 305 177 288 377 293 413 
309 11 173 458 469 279 301 422 131 211 322 88 229 
310 11 87 322 189 582 111 422 132 42 181 317 83 
311 11 159 432 306 544 297 69 269 316 241 266 295 
312 11 367 224 128 84 194 202 330 62 566 204 276 
313 11 57 330 194 257 7 454 367 124 312 226 141 
314 9 603 339 205 554 538 394 505 509 165 
315 11 437 106 338 120 13 195 152 459 58 164 37 
316 11 241 27 188 269 105 210 159 311 284 29 69 
317 11 42 181 287 132 83 38 324 189 310 87 111 
318 11 271 77 94 520 73 334 332 162 251 218 248 
319 11 139 191 19 245 244 81 184 237 249 206 20 
320 11 614 156 268 162 265 223 95 280 116 176 248 
321 11 32 35 37 481 496 250 4 592 464 152 104 
322 11 422 582 87 211 131 310 344 111 309 189 301 
323 11 239 64 71 290 18 75 168 97 249 244 302 
324 11 38 287 83 317 181 42 132 189 310 87 111 
325 11 262 208 81 20 51 299 273 222 29 5 49 
326 11 122 302 3 97 107 75 231 64 133 100 246 
327 6 600 409 410 484 160 497 
328 11 121 212 452 125 528 612 70 163 15 597 409 
329 11 308 219 293 288 197 374 346 177 305 68 149 
330 11 257 57 194 313 454 367 124 566 21 312 514 
331 11 12 565 560 104 93 501 186 220 472 487 106 
332 11 258 77 271 520 268 162 73 187 318 56 320 
333 11 578 470 55 441 532 449 85 465 115 150 490 
334 11 94 60 248 430 280 318 95 176 162 251 265 
335 11 215 573 52 303 65 40 117 618 172 442 453 
336 11 24 225 420 494 585 147 236 205 416 76 538 
337 11 118 289 237 5 44 262 81 113 58 112 273 
338 11 13 164 459 195 106 315 501 28 437 26 11 
339 11 394 583 314 205 603 509 240 165 267 538 203 
340 11 571 488 561 589 584 34 418 351 183 471 393 
341 11 22 134 127 567 31 585 494 82 89 201 562 
342 5 364 378 395 126 489 
343 9 357 456 479 490 150 348 553 419 511 
344 11 131 211 582 422 322 301 111 87 309 310 189 
345 11 196 133 221 100 41 3 10 107 146 231 302 
346 11 197 374 308 329 277 431 219 305 293 599 177 
347 11 149 288 463 144 580 177 413 219 68 17 421 
348 9 524 456 479 48 419 365 343 357 592 
349 11 570 503 79 355 353 619 605 477 36 155 457 
350 8 45 518 564 539 444 540 613 396 
351 9 491 471 429 561 393 183 253 467 340 
352 11 421 522 413 529 108 549 377 119 203 177 216 
353 11 36 503 619 457 570 605 349 79 355 375 579 
354 10 406 427 537 539 444 613 518 169 564 398 
355 11 79 349 155 570 503 353 477 619 417 516 36 
356 10 412 15 531 153 499 9 275 452 597 473 
357 9 490 343 553 479 511 456 150 419 348 
358 9 527 408 428 521 547 167 462 611 252 
359 3 446 145 300 
360 11 391 143 436 593 617 354 427 304 406 424 613 
361 11 508 54 533 424 227 574 447 167 617 198 427 
362 7 554 14 74 505 556 6 551 
363 11 542 448 166 466 552 477 555 178 460 608 114 
364 8 395 342 378 604 126 569 283 493 
365 10 48 592 250 524 200 348 481 419 479 456 
366 9 548 300 382 595 588 446 145 234 370 
367 11 312 194 566 330 204 124 276 21 257 224 454 
368 11 175 16 63 50 502 435 233 380 142 482 270 
369 11 489 126 493 283 378 171 431 609 569 364 395 
370 10 588 498 402 23 568 500 510 382 386 300 
371 11 418 584 183 53 109 253 209 530 388 429 563 
372 8 535 381 433 616 92 390 506 439 
373 11 200 98 48 365 524 450 348 250 295 592 481 
374 11 197 308 346 329 219 305 431 377 177 599 277 
375 10 480 457 36 353 500 503 579 619 586 605 
376 4 235 342 378 407 
377 11 305 549 216 177 413 522 529 219 352 285 308 
378 9 489 126 342 364 493 395 283 369 569 
379 9 154 414 557 415 495 434 587 606 586 
380 11 502 232 142 17 8 144 368 143 463 580 304 
381 8 433 372 535 616 390 92 541 506 
382 10 595 366 234 588 487 548 370 300 220 11 
383 11 256 478 182 443 515 517 161 247 526 180 513 
384 7 536 190 461 423 145 446 359 
385 2 476 153 
386 10 510 23 402 500 498 370 11 375 480 588 
387 9 396 398 534 537 486 169 525 518 242 
388 11 530 209 401 53 109 371 563 183 253 418 577 
389 3 228 483 602 
390 11 92 558 80 433 594 381 506 372 535 136 135 
391 11 360 617 427 424 533 613 354 198 304 508 361 
392 11 242 169 2 405 398 406 537 387 525 534 513 
393 7 467 581 561 351 589 34 491 
394 11 339 240 509 165 267 314 583 603 455 543 205 
395 8 364 342 604 378 569 126 283 493 
396 9 387 534 486 398 537 399 518 525 169 
397 11 425 504 556 129 6 59 14 123 199 102 74 
398 9 387 534 537 169 396 242 525 486 392 
399 9 523 486 607 260 247 526 396 534 492 
400 11 307 572 449 456 441 348 343 479 524 48 490 
401 11 209 388 530 577 563 53 253 109 183 371 429 
402 9 23 510 498 386 500 370 588 568 480 
403 11 207 229 72 192 610 88 115 426 217 301 465 
404 11 541 608 605 579 619 36 503 178 570 457 353 
405 11 2 513 392 161 517 242 515 169 70 591 110 
406 11 354 169 392 242 537 593 398 2 436 387 539 
407 11 563 577 429 253 471 209 491 183 351 401 376 
408 9 167 358 428 527 45 424 613 350 444 
409 10 410 600 327 33 452 15 163 484 328 468 
410 10 600 409 484 327 270 33 497 468 512 435 
411 6 141 228 389 384 226 66 
412 11 356 15 597 9 452 531 473 499 21 514 276 
413 11 177 352 305 421 288 377 219 522 549 149 529 
414 11 154 379 557 415 495 587 606 474 586 519 434 
415 8 557 495 154 379 414 606 434 474 
416 11 76 236 254 47 559 24 147 157 225 336 420 
417 11 516 28 155 26 79 355 459 349 353 286 570 
418 11 584 371 183 53 109 253 340 209 429 530 388 
419 9 479 357 553 524 456 348 343 592 250 
420 11 225 24 336 205 236 538 585 416 76 583 339 
421 11 352 413 140 108 522 177 138 529 119 549 580 
422 11 322 211 131 582 344 87 309 310 301 173 111 
423 10 30 190 461 384 536 66 90 141 145 411 
424 11 533 427 508 167 613 361 54 444 408 391 45 
425 11 397 6 556 504 74 129 14 59 156 187 123 
426 11 217 192 115 465 475 532 472 403 207 72 470 
427 11 613 424 444 564 354 391 539 45 533 518 350 
428 8 408 358 540 45 527 350 611 564 
429 11 253 563 471 183 407 491 351 209 371 584 577 
430 11 60 280 176 248 95 334 94 265 109 53 530 
431 11 369 599 283 493 126 489 569 171 374 197 346 
432 11 311 159 544 306 297 295 266 259 450 69 98 
433 9 381 372 535 390 92 616 506 541 558 
434 4 495 415 557 154 
435 11 270 497 484 50 294 233 482 160 410 615 368 
436 11 593 143 512 360 468 281 406 8 298 354 591 
437 11 106 315 152 120 37 338 35 13 464 32 164 
438 10 230 175 233 482 50 616 506 439 535 16 
439 9 485 576 598 616 615 243 482 535 294 
440 11 78 278 61 286 445 130 114 460 451 562 466 
441 11 449 578 470 150 333 532 490 343 400 511 307 
442 11 172 453 117 103 282 65 43 252 261 255 291 
443 11 180 478 260 99 247 256 526 399 607 523 486 
444 10 564 539 45 613 350 518 427 540 354 537 
445 11 451 278 61 440 78 274 286 130 82 562 26 
446 9 145 536 548 359 461 190 366 384 300 
447 11 574 54 291 508 167 361 261 533 227 408 521 
448 11 477 466 363 166 542 460 608 114 349 570 178 
449 11 441 578 307 400 333 470 150 343 572 532 490 
450 11 259 266 295 98 4 306 544 297 373 67 200 
451 11 445 278 440 61 78 274 286 26 195 130 459 
452 10 15 597 412 328 356 528 409 9 212 121 
453 11 172 103 117 442 282 65 43 255 252 52 303 
454 11 124 514 21 257 566 9 276 330 473 204 57 
455 9 543 575 267 263 165 509 240 604 596 
456 9 479 343 348 524 357 419 490 48 553 
457 11 36 353 619 605 579 503 375 480 570 349 404 
458 11 173 469 279 309 301 88 229 207 403 131 422 
459 11 195 26 28 516 417 338 155 286 13 355 79 
460 11 114 466 166 130 448 562 286 78 363 440 477 
461 9 190 536 384 145 423 446 30 359 548 
462 10 213 255 547 43 252 521 527 358 282 611 
463 11 144 580 17 232 142 347 502 304 140 149 380 
464 11 496 37 152 91 120 32 35 67 321 44 113 
465 11 115 55 610 85 72 426 532 192 217 470 333 
466 11 166 460 448 114 363 477 542 286 555 130 562 
467 7 393 581 561 34 589 551 351 
468 11 512 33 281 163 298 436 8 410 591 593 143 
469 11 279 458 173 88 309 229 207 301 403 292 30 
470 11 532 578 55 333 441 150 465 115 511 490 85 
471 10 491 351 429 253 183 563 407 584 340 371 
472 10 186 475 560 93 217 426 553 192 511 104 
473 11 514 499 531 9 275 124 412 483 602 356 454 
474 9 606 519 587 586 414 154 415 557 379 
475 11 192 292 93 426 472 217 560 207 229 88 403 
476 2 385 153 
477 11 448 349 570 466 355 608 363 503 79 542 619 
478 11 247 526 256 180 525 443 399 486 260 534 515 
479 9 456 343 348 357 419 524 490 553 48 
480 10 375 457 500 586 36 353 579 519 587 619 
481 9 250 592 365 419 48 524 200 348 321 
482 11 233 50 294 615 175 438 439 160 497 435 485 
483 5 602 389 275 228 499 
484 11 270 497 435 410 600 160 327 294 615 50 409 
485 9 439 576 598 243 615 616 550 535 294 
486 9 534 396 399 525 387 526 247 398 523 
487 11 220 595 234 382 11 12 565 366 501 588 370 
488 11 571 589 116 340 34 223 561 296 581 467 393 
489 10 126 369 493 378 283 364 342 395 569 604 
490 9 150 357 511 343 553 479 456 419 441 
491 9 351 471 429 253 393 561 183 467 407 
492 8 607 523 611 260 99 399 540 547 
493 11 283 126 489 569 369 378 364 395 604 342 599 
494 11 147 336 585 24 341 555 225 420 562 82 134 
495 6 415 557 154 379 434 414 
496 11 464 91 37 67 152 32 4 321 35 120 113 
497 11 435 484 270 294 160 50 615 482 233 600 410 
498 9 402 23 500 370 510 568 386 588 480 
499 10 531 275 473 153 602 483 514 356 9 385 
500 10 23 498 402 510 480 386 375 370 568 586 
501 11 164 11 13 12 487 220 565 331 338 106 386 
502 11 380 232 142 17 144 368 580 463 8 63 16 
503 11 570 619 353 349 605 36 79 457 355 404 579 
504 11 129 123 59 397 556 102 14 199 425 264 127 
505 8 538 554 603 314 199 205 14 362 
506 11 92 80 390 616 535 558 230 372 135 433 136 
507 11 574 227 618 291 447 54 261 546 361 179 508 
508 11 533 361 54 424 167 447 574 227 427 617 408 
509 11 165 267 240 394 455 543 596 575 263 339 314 
510 10 386 23 402 500 498 370 375 480 588 11 
511 9 150 490 553 357 343 532 479 419 456 
512 11 468 33 281 163 298 436 8 593 591 410 143 
513 11 161 517 405 515 2 110 392 242 525 70 182 
514 11 473 9 124 454 499 531 21 275 566 228 412 
515 11 517 161 513 405 525 242 256 2 392 478 526 
516 11 417 28 155 26 355 79 459 286 349 570 195 
517 11 161 513 515 405 2 242 525 392 256 110 182 
518 9 539 350 564 444 45 537 540 396 387 
519 9 587 474 586 606 579 414 457 480 154 
520 11 271 73 77 332 258 318 146 162 10 268 56 
521 11 252 527 261 358 291 255 462 213 282 408 447 
522 11 529 549 216 352 203 377 108 119 413 421 305 
523 8 607 492 399 260 540 486 396 611 
524 9 348 48 479 456 365 419 592 343 250 
525 11 534 486 526 247 398 387 396 478 242 169 399 
526 11 247 478 525 486 399 256 534 180 260 396 387 
527 9 358 408 521 428 462 252 167 547 213 
528 11 597 204 276 328 612 212 452 21 15 566 125 
529 11 522 549 216 203 352 119 108 377 601 413 421 
530 11 388 53 109 209 401 371 418 563 183 253 584 
531 10 499 275 473 153 356 514 602 9 483 412 
532 11 470 150 55 578 511 333 441 465 115 490 217 
533 11 508 361 424 54 167 427 447 617 613 391 574 
534 10 486 387 396 398 525 537 169 526 399 247 
535 8 372 616 381 433 92 390 506 439 
536 8 461 190 384 145 446 423 359 30 
537 9 387 398 169 396 534 518 539 242 486 
538 10 505 205 603 314 554 420 339 225 585 24 
539 9 518 564 444 350 45 613 537 540 396 
540 7 350 45 428 518 523 564 539 
541 10 404 579 608 605 619 178 36 457 433 503 
542 11 363 552 178 448 608 166 555 466 477 594 136 
543 10 455 263 575 267 165 240 604 285 509 569 
544 11 306 297 266 259 295 432 450 69 311 159 4 
545 10 39 235 376 609 407 577 171 378 563 489 
546 11 179 590 227 507 198 214 574 54 361 617 508 
547 8 611 462 358 428 492 527 213 607 
548 9 366 300 446 145 382 588 359 595 234 
549 11 216 522 529 377 352 203 305 285 413 177 240 
550 3 598 576 243 
551 5 581 467 596 393 34 
552 11 178 542 594 136 363 558 608 80 135 390 448 
553 9 357 511 490 419 150 343 479 456 348 
554 7 603 505 362 314 538 205 551 
555 11 363 166 542 466 552 114 448 460 562 594 130 
556 11 14 59 199 397 504 425 129 6 362 123 505 
557 8 415 154 495 379 414 606 434 587 
558 11 80 594 136 92 390 135 552 178 506 433 542 
559 11 157 601 119 108 203 138 47 236 76 254 583 
560 11 93 565 331 472 12 475 186 220 292 487 104 
561 10 393 467 581 589 34 340 571 351 488 491 
562 11 130 114 82 460 61 166 78 440 466 567 278 
563 11 253 429 209 407 577 183 401 471 371 388 53 
564 9 444 539 45 350 518 613 540 427 537 
565 11 12 220 331 560 487 93 501 234 11 595 382 
566 11 21 276 124 204 454 9 367 514 597 528 257 
567 11 82 134 22 562 130 61 341 278 78 274 440 
568 7 498 370 379 588 414 500 154 
569 11 604 283 493 126 364 395 263 599 575 489 378 
570 11 349 503 619 353 605 79 355 36 477 457 404 
571 11 488 340 589 34 116 561 223 581 467 393 584 
572 11 307 400 449 48 348 456 373 524 343 441 479 
573 11 215 335 52 303 65 117 172 442 618 453 40 
574 11 447 54 227 507 361 291 508 533 261 167 618 
575 8 263 455 543 604 395 364 569 267 
576 5 598 485 550 439 243 
577 11 563 407 401 209 253 429 388 183 530 471 53 
578 11 333 470 441 532 55 449 150 85 465 490 115 
579 10 457 36 605 404 619 541 519 353 503 480 
580 11 144 463 142 140 232 17 502 421 347 380 149 
581 6 467 393 561 34 551 589 
582 11 211 322 344 422 111 131 87 310 189 301 309 
583 11 339 203 394 157 601 559 119 205 236 240 529 
584 11 418 371 183 53 253 340 109 429 471 209 563 
585 11 336 494 341 24 225 420 127 538 199 505 59 
586 9 587 519 474 414 480 606 379 154 579 
587 9 586 519 474 414 606 154 379 557 415 
588 10 370 300 382 498 366 568 402 548 595 23 
589 10 34 488 571 561 581 340 116 467 393 296 
590 11 179 214 546 68 86 507 227 293 40 272 347 
591 11 298 281 163 70 2 33 121 468 512 405 125 
592 9 250 481 365 524 419 48 348 200 479 
593 11 436 143 281 360 406 512 468 298 354 591 8 
594 11 558 136 552 80 178 135 390 92 542 608 433 
595 10 382 234 487 366 220 588 548 300 370 11 
596 3 267 551 455 
597 11 412 15 452 528 9 276 21 204 356 566 328 
598 5 576 550 485 243 439 
599 11 285 569 604 263 283 431 493 126 575 543 395 
600 9 327 410 409 484 497 270 160 294 435 
601 11 157 119 559 108 203 138 47 583 236 529 254 
602 5 483 389 275 499 385 
603 8 314 538 205 554 505 339 394 509 
604 10 569 395 575 263 364 283 493 126 543 342 
605 11 619 36 503 353 570 457 404 579 349 541 608 
606 9 474 415 587 414 557 519 154 379 495 
607 8 492 523 260 399 99 611 540 180 
608 11 178 404 541 605 477 552 542 619 570 503 448 
609 11 171 369 489 235 378 126 545 493 283 39 376 
610 11 72 465 115 85 55 403 192 207 426 217 470 
611 8 492 547 607 523 428 540 99 260 
612 11 212 125 110 121 528 70 328 202 204 597 452 
613 10 444 427 564 45 539 350 424 518 354 167 
614 11 156 320 223 116 296 74 265 268 488 6 162 
615 11 294 160 243 482 439 485 497 233 50 598 484 
616 9 535 372 381 433 506 439 92 390 485 
617 11 198 391 304 533 361 508 360 424 54 427 227 
618 11 507 291 261 574 442 447 252 227 65 172 521 
619 11 605 36 503 353 570 457 349 579 404 79 355 
DEPOT_SECTION
   1
   -1
EOF
