NAME :  X-n783-kX-w78-c7.cctp
COMMENT : 	Adapted by Maziero, Usberti and Cavellucci from the Uchoa, Pecin, Pessoa, Poggi, Subramanian, and Vidal (2013)
TYPE :  CCTP
DIMENSION :    445
EDGE_WEIGHT_TYPE : 	EUC_2D	
CAPACITY : 	832
VERTICES_WITHIN_COVERAGE :  7
VERTICES_WITH_DEMAND : 	78
NODE_COORD_SECTION
1 909 919
2 878 721
3 969 85
4 591 195
5 955 148
6 587 903
7 994 792
8 625 129
9 544 703
10 461 167
11 37 644
12 615 22
13 773 788
14 384 364
15 51 291
16 109 732
17 570 124
18 692 985
19 62 150
20 358 5
21 188 450
22 674 658
23 676 904
24 815 984
25 710 16
26 74 658
27 576 1000
28 636 695
29 547 92
30 587 397
31 26 150
32 182 561
33 938 462
34 362 928
35 366 835
36 516 892
37 448 923
38 501 445
39 513 799
40 905 388
41 474 791
42 560 782
43 465 552
44 315 645
45 738 396
46 45 915
47 797 871
48 922 643
49 793 586
50 921 458
51 160 295
52 598 257
53 516 221
54 99 169
55 788 634
56 425 751
57 616 680
58 949 444
59 987 459
60 182 279
61 127 354
62 791 822
63 645 609
64 857 386
65 917 154
66 398 480
67 729 688
68 134 510
69 172 2
70 499 737
71 780 565
72 908 477
73 917 341
74 272 553
75 421 876
76 770 2
77 497 623
78 853 27
79 853 521
80 519 196
81 827 901
82 656 56
83 732 55
84 772 748
85 158 430
86 50 959
87 609 223
88 441 479
89 95 246
90 307 893
91 830 30
92 44 339
93 885 644
94 850 732
95 55 954
96 467 494
97 659 564
98 881 18
99 781 654
100 490 806
101 823 569
102 878 496
103 441 898
104 437 866
105 725 988
106 447 517
107 743 575
108 555 373
109 84 140
110 341 827
111 397 932
112 892 37
113 911 617
114 668 697
115 1 96
116 223 299
117 637 118
118 622 958
119 100 192
120 110 163
121 345 464
122 53 628
123 112 361
124 235 578
125 489 621
126 563 916
127 597 310
128 648 247
129 375 402
130 531 205
131 935 676
132 103 549
133 233 241
134 891 112
135 378 472
136 457 893
137 852 861
138 113 701
139 340 913
140 667 718
141 140 332
142 809 908
143 59 136
144 529 215
145 385 380
146 138 787
147 473 713
148 537 114
149 774 825
150 16 935
151 60 733
152 343 363
153 205 398
154 840 359
155 893 516
156 814 607
157 605 162
158 482 214
159 528 103
160 572 770
161 802 517
162 876 469
163 823 795
164 522 595
165 52 336
166 956 21
167 766 880
168 524 825
169 657 640
170 189 232
171 784 692
172 743 446
173 201 32
174 380 904
175 227 263
176 341 341
177 450 482
178 251 533
179 724 967
180 753 539
181 684 924
182 617 989
183 455 500
184 472 926
185 167 357
186 789 678
187 991 492
188 457 837
189 809 754
190 770 852
191 147 318
192 85 634
193 312 527
194 846 684
195 806 813
196 566 172
197 191 307
198 718 33
199 114 156
200 986 791
201 78 292
202 559 896
203 791 579
204 155 8
205 48 593
206 954 72
207 2 686
208 301 649
209 810 8
210 984 28
211 918 370
212 586 337
213 550 217
214 606 719
215 178 588
216 136 341
217 282 685
218 460 557
219 86 722
220 707 652
221 735 359
222 462 414
223 49 853
224 750 829
225 581 819
226 917 652
227 530 838
228 403 43
229 393 11
230 122 294
231 451 649
232 604 580
233 274 509
234 728 595
235 989 745
236 478 854
237 394 459
238 39 967
239 740 958
240 544 247
241 38 939
242 839 23
243 754 893
244 930 149
245 430 951
246 739 15
247 104 669
248 645 128
249 500 603
250 577 997
251 662 708
252 622 159
253 166 281
254 897 132
255 965 334
256 127 729
257 522 569
258 127 378
259 747 419
260 838 961
261 391 886
262 484 126
263 828 28
264 750 567
265 921 125
266 440 878
267 720 914
268 606 394
269 471 928
270 511 594
271 867 996
272 417 918
273 101 132
274 110 652
275 891 336
276 661 893
277 15 879
278 527 56
279 481 860
280 709 388
281 105 381
282 603 51
283 582 48
284 591 850
285 354 660
286 530 386
287 859 502
288 826 779
289 86 854
290 771 629
291 550 820
292 80 276
293 676 601
294 129 319
295 490 220
296 553 110
297 935 660
298 539 52
299 637 548
300 674 905
301 823 923
302 999 837
303 969 38
304 693 895
305 710 695
306 390 537
307 837 407
308 618 221
309 487 708
310 434 776
311 153 438
312 564 929
313 541 777
314 202 468
315 432 949
316 413 752
317 719 52
318 543 161
319 112 459
320 70 782
321 488 540
322 814 887
323 679 989
324 159 535
325 829 839
326 828 485
327 579 290
328 621 918
329 609 789
330 184 475
331 182 513
332 601 785
333 482 409
334 587 627
335 653 648
336 804 553
337 12 198
338 749 551
339 651 13
340 731 963
341 219 275
342 714 734
343 560 470
344 837 631
345 4 304
346 79 917
347 355 877
348 745 354
349 621 723
350 145 377
351 119 768
352 638 271
353 574 247
354 924 493
355 924 402
356 91 336
357 599 6
358 635 887
359 660 944
360 186 35
361 679 861
362 919 121
363 822 482
364 151 384
365 407 860
366 928 75
367 625 969
368 123 311
369 404 744
370 216 14
371 564 906
372 344 833
373 726 657
374 39 94
375 18 167
376 396 368
377 561 229
378 144 320
379 44 186
380 924 415
381 782 427
382 853 704
383 468 127
384 464 700
385 610 428
386 257 608
387 980 789
388 762 527
389 978 624
390 775 736
391 416 970
392 926 116
393 959 178
394 28 579
395 342 15
396 533 943
397 556 836
398 777 841
399 340 957
400 138 690
401 895 564
402 892 692
403 881 293
404 935 348
405 527 995
406 487 506
407 405 978
408 966 509
409 571 996
410 214 405
411 734 399
412 69 747
413 589 624
414 936 678
415 84 652
416 600 19
417 33 90
418 717 960
419 360 458
420 204 29
421 602 46
422 707 678
423 401 345
424 453 130
425 587 936
426 169 316
427 428 772
428 461 415
429 61 305
430 435 146
431 637 547
432 620 2
433 973 397
434 147 381
435 452 610
436 963 618
437 785 845
438 900 613
439 668 101
440 445 170
441 57 176
442 373 307
443 365 297
444 765 916
445 387 877
DEMAND_SECTION
2 85
3 34
4 47
5 49
6 75
7 87
8 13
9 92
10 85
11 3
12 18
13 87
14 96
15 72
16 38
17 5
18 59
19 75
20 81
21 68
22 99
23 66
24 67
25 33
26 30
27 73
28 61
29 18
30 37
31 81
32 36
33 17
34 31
35 25
36 85
37 12
38 44
39 60
40 5
41 23
42 58
43 29
44 9
45 13
46 1
47 100
48 88
49 53
50 30
51 66
52 47
53 35
54 55
55 83
56 20
57 84
58 36
59 50
60 76
61 70
62 80
63 79
64 44
65 26
66 60
67 80
68 40
69 60
70 46
71 62
72 50
73 32
74 18
75 3
76 16
77 30
78 4
79 68
COVERAGE_SECTION
2 4 94 382 402 194 
3 7 206 366 303 392 210 265 362 
4 6 87 196 157 308 377 213 
5 7 244 393 65 265 392 362 254 
6 6 371 126 202 425 312 328 
7 4 200 387 302 235 
8 6 117 248 252 157 439 17 
9 7 70 309 214 147 160 313 57 
10 6 440 430 424 383 262 158 
11 7 122 26 415 192 205 207 394 
12 7 416 432 357 421 282 339 283 
13 7 149 62 84 195 224 163 189 
14 6 376 145 423 129 152 176 
15 7 429 201 292 165 92 345 356 
16 7 256 219 138 351 412 151 400 
17 7 296 148 29 318 159 196 157 
18 7 323 105 418 179 340 359 239 
19 7 143 109 441 31 379 54 273 
20 3 395 229 228 
21 6 314 330 85 311 410 153 
22 7 335 169 220 114 422 251 305 
23 7 300 276 304 181 359 361 358 
24 5 260 271 301 142 239 
25 6 198 246 317 83 339 76 
26 6 415 192 247 274 122 11 
27 6 250 409 182 405 367 118 
28 7 57 251 114 349 214 140 335 
29 6 296 159 148 17 278 298 
30 5 268 385 108 286 212 
31 6 375 19 143 379 441 337 
32 4 215 324 331 124 
33 7 50 58 72 354 59 380 408 
34 7 139 174 111 399 261 347 272 
35 6 372 110 347 445 365 261 
36 5 202 279 371 126 236 
37 7 184 269 103 136 272 315 245 
38 7 333 222 428 96 177 406 343 
39 7 100 168 313 41 227 291 42 
40 7 211 355 380 64 73 404 275 
41 7 100 39 310 188 427 70 168 
42 7 160 313 291 332 225 329 39 
43 5 218 321 106 406 183 
44 3 208 285 217 
45 7 411 259 280 221 348 172 381 
46 7 241 346 150 95 86 277 238 
47 7 322 437 167 190 398 142 81 
48 7 226 297 113 131 93 438 414 
49 7 203 71 156 101 336 264 55 
50 7 33 72 58 354 380 162 355 
51 7 253 426 191 60 378 197 230 
52 7 353 87 327 308 352 377 128 
53 7 144 130 80 295 213 158 240 
54 7 120 199 119 109 273 19 441 
55 7 290 99 156 186 49 344 203 
56 7 316 427 369 310 147 41 384 
57 7 28 214 349 335 251 114 169 
58 7 33 50 380 59 355 72 433 
59 7 187 58 33 408 433 50 354 
60 7 253 51 197 341 426 116 170 
61 7 216 123 258 141 350 434 281 
62 7 149 195 398 437 190 13 163 
63 7 293 169 335 97 232 22 413 
64 7 307 154 40 275 211 355 380 
65 7 244 265 254 362 5 392 393 
66 7 237 135 88 419 177 121 306 
67 7 305 422 373 220 342 171 186 
68 5 324 331 132 319 330 
69 5 204 360 173 420 370 
70 7 309 147 384 9 313 41 39 
71 7 203 49 336 264 338 180 107 
72 7 50 354 162 33 102 155 58 
73 5 404 275 211 40 255 
74 5 178 233 124 193 386 
75 7 104 266 365 103 261 445 136 
76 7 246 209 198 25 263 83 91 
77 7 125 249 270 164 435 231 257 
78 6 242 91 263 98 112 209 
79 7 287 102 155 326 363 161 101 
80 5 130 144 53 213 295 
81 5 142 322 301 47 137 
82 5 339 439 12 282 421 
83 4 317 198 246 25 
84 6 390 189 13 171 342 288 
85 4 311 21 364 434 
86 6 95 238 241 150 46 346 
87 7 308 4 52 353 128 377 352 
88 7 177 183 96 106 66 237 406 
89 6 292 201 119 230 15 429 
90 3 139 347 34 
91 6 263 242 78 209 98 112 
92 5 165 429 356 15 345 
93 6 226 438 48 113 402 344 
94 6 382 2 189 194 288 402 
95 6 86 238 241 46 150 346 
96 7 183 177 406 88 106 321 43 
97 6 299 431 293 63 232 169 
98 6 112 78 242 91 263 209 
99 7 55 186 290 171 373 156 344 
100 7 41 39 168 188 236 227 279 
101 7 336 49 203 156 71 161 79 
102 7 287 155 162 79 72 354 326 
103 7 136 266 37 75 272 104 184 
104 7 266 75 365 103 136 188 236 
105 7 179 340 418 18 239 323 267 
106 7 183 96 177 88 43 406 218 
107 6 264 234 338 180 71 203 
108 4 286 30 212 268 
109 6 273 19 143 54 199 120 
110 3 372 35 347 
111 7 272 174 34 245 315 391 261 
112 6 98 78 366 242 91 263 
113 5 438 48 226 93 297 
114 7 251 140 28 22 305 422 335 
115 5 417 374 31 143 375 
116 4 341 197 175 60 
117 6 248 8 439 252 157 82 
118 7 367 182 328 359 425 250 27 
119 6 54 120 199 441 89 109 
120 5 199 54 119 273 109 
121 4 419 135 237 66 
122 7 11 192 205 26 415 394 274 
123 6 61 281 258 216 356 350 
124 5 386 74 178 32 215 
125 7 77 249 270 435 164 231 257 
126 6 371 312 202 6 425 396 
127 3 327 212 52 
128 4 352 308 87 52 
129 5 145 14 376 152 419 
130 5 144 80 53 213 377 
131 4 414 297 226 48 
132 1 68 
133 5 175 341 170 116 60 
134 6 254 362 265 392 65 366 
135 6 237 66 419 121 88 306 
136 7 103 266 37 104 184 269 75 
137 5 325 322 81 47 142 
138 6 400 16 256 247 219 274 
139 6 34 90 347 174 399 261 
140 6 251 114 28 349 305 342 
141 7 216 378 191 294 61 368 426 
142 7 81 301 322 47 444 167 243 
143 6 19 109 31 441 273 374 
144 6 130 53 80 213 240 377 
145 5 14 376 129 423 152 
146 3 351 256 16 
147 7 309 384 70 56 231 9 316 
148 7 159 296 29 17 318 262 278 
149 6 398 62 437 224 190 195 
150 7 241 46 238 86 95 277 346 
151 3 412 219 16 
152 5 176 14 145 129 376 
153 2 410 21 
154 5 64 307 275 40 403 
155 7 102 287 354 79 72 401 162 
156 7 49 344 203 55 101 290 71 
157 7 252 4 8 196 17 248 117 
158 7 295 53 80 144 130 10 440 
159 6 148 29 296 17 278 262 
160 7 42 313 332 329 225 291 214 
161 6 336 363 326 388 79 71 
162 6 102 72 287 50 155 326 
163 6 288 195 62 189 325 13 
164 5 270 249 257 77 125 
165 5 92 429 356 15 201 
166 6 303 210 206 366 3 112 
167 6 243 190 47 444 437 398 
168 6 227 291 39 397 100 313 
169 7 335 22 63 293 220 57 114 
170 4 133 60 175 341 
171 6 186 99 390 67 84 55 
172 4 259 381 411 45 
173 5 420 360 370 69 204 
174 7 261 445 34 111 347 272 139 
175 7 341 133 116 60 170 197 253 
176 6 152 442 14 443 145 423 
177 7 88 183 96 106 406 66 237 
178 4 74 233 124 193 
179 7 340 418 239 105 18 323 267 
180 5 338 388 264 71 107 
181 7 300 23 304 359 267 276 418 
182 7 367 118 250 27 409 425 323 
183 7 96 106 177 88 406 321 43 
184 7 269 37 136 103 315 245 36 
185 6 350 364 434 216 141 61 
186 6 171 99 55 290 194 390 
187 5 408 59 33 58 354 
188 7 236 279 104 266 100 41 75 
189 6 288 84 390 163 94 13 
190 6 398 437 149 167 224 47 
191 7 378 141 294 426 216 368 51 
192 5 415 26 274 122 247 
193 3 233 74 178 
194 7 382 402 94 2 344 93 186 
195 7 62 163 149 325 437 288 398 
196 5 318 4 157 17 130 
197 6 426 60 51 116 253 341 
198 4 25 317 83 246 
199 5 120 54 273 109 119 
200 4 387 7 235 302 
201 7 292 429 15 230 356 89 368 
202 5 371 126 6 312 36 
203 7 49 71 336 101 156 264 107 
204 5 69 360 173 420 370 
205 4 394 122 11 192 
206 6 3 366 303 166 392 210 
207 3 11 151 26 
208 4 44 217 285 386 
209 6 263 91 242 76 78 246 
210 6 303 166 206 3 366 112 
211 7 40 404 73 355 275 380 255 
212 4 127 108 327 30 
213 6 377 144 130 240 53 80 
214 7 349 28 57 251 140 160 9 
215 1 32 
216 7 141 61 378 294 191 123 368 
217 2 208 44 
218 5 43 321 106 435 183 
219 5 16 151 412 138 256 
220 7 373 422 22 67 305 169 335 
221 5 348 45 280 411 259 
222 3 428 333 38 
223 4 289 277 46 346 
224 5 149 190 398 437 62 
225 7 397 291 284 332 329 42 160 
226 7 48 297 131 414 93 113 438 
227 6 168 397 291 39 100 225 
228 2 229 20 
229 3 228 20 395 
230 7 368 294 378 191 51 141 201 
231 5 435 125 77 384 249 
232 6 299 413 431 63 334 97 
233 3 178 193 74 
234 6 107 264 338 293 290 71 
235 3 387 200 7 
236 7 279 188 104 136 266 100 36 
237 7 66 135 419 121 88 129 177 
238 6 86 95 241 150 46 346 
239 7 340 179 418 105 267 444 18 
240 6 377 353 213 144 53 130 
241 7 150 86 95 46 238 346 277 
242 7 91 263 78 209 98 112 76 
243 5 167 444 267 190 47 
244 7 65 5 265 362 392 254 393 
245 7 315 391 37 272 407 111 269 
246 5 198 25 76 83 317 
247 6 274 415 26 138 192 400 
248 5 117 8 439 252 157 
249 6 270 77 125 164 257 435 
250 6 27 409 182 405 367 118 
251 6 140 114 28 349 305 22 
252 6 157 8 248 117 4 196 
253 7 51 60 426 197 191 378 230 
254 6 134 265 362 65 392 244 
255 2 404 73 
256 6 16 138 351 400 219 146 
257 5 164 270 249 321 43 
258 6 350 434 281 123 61 364 
259 5 411 45 172 381 280 
260 4 24 301 271 142 
261 7 445 174 365 75 347 272 111 
262 4 383 424 10 159 
263 6 91 242 78 209 98 76 
264 6 107 338 180 71 234 388 
265 7 362 392 254 244 65 134 5 
266 7 104 75 103 136 365 188 236 
267 7 304 181 243 23 444 418 300 
268 2 30 385 
269 7 184 37 136 103 315 245 272 
270 5 164 249 257 77 125 
271 2 260 24 
272 7 111 37 103 315 245 174 261 
273 5 109 199 120 54 143 
274 4 247 415 192 26 
275 6 73 211 403 404 40 154 
276 6 300 23 358 304 361 181 
277 6 223 46 150 241 346 289 
278 3 298 29 159 
279 7 236 188 136 104 266 36 227 
280 5 411 45 221 259 348 
281 3 123 258 61 
282 6 421 283 12 416 357 432 
283 4 421 282 416 12 
284 4 225 397 291 6 
285 2 44 208 
286 4 108 333 30 38 
287 6 79 102 326 155 162 363 
288 6 163 189 195 94 13 62 
289 3 223 346 46 
290 7 55 99 49 156 186 373 203 
291 6 397 168 227 225 42 39 
292 6 201 15 89 429 230 368 
293 6 63 97 169 234 335 22 
294 7 368 378 141 191 216 230 61 
295 7 158 53 80 144 130 10 213 
296 7 148 29 17 159 318 278 298 
297 4 131 414 226 48 
298 3 278 29 283 
299 4 431 97 232 63 
300 7 23 276 181 304 359 358 361 
301 5 142 81 322 260 47 
302 3 7 200 387 
303 6 210 166 206 3 366 112 
304 6 23 300 181 276 267 361 
305 7 422 67 342 373 114 220 140 
306 2 66 106 
307 5 64 154 381 40 162 
308 6 87 4 128 52 353 352 
309 7 147 384 70 9 231 56 41 
310 7 427 56 316 41 369 100 188 
311 4 85 21 319 330 
312 6 126 371 425 202 396 6 
313 7 42 160 39 291 168 70 225 
314 5 330 21 331 311 85 
315 7 245 391 37 272 111 407 269 
316 4 56 369 427 310 
317 4 83 198 25 246 
318 5 196 80 17 130 148 
319 3 311 85 68 
320 5 412 151 351 219 16 
321 6 43 218 406 257 106 96 
322 7 81 142 47 301 137 167 325 
323 7 18 105 418 359 179 340 367 
324 6 331 32 68 215 132 330 
325 7 137 195 62 163 437 47 322 
326 5 363 287 161 79 102 
327 4 127 52 353 212 
328 6 358 6 425 118 276 359 
329 5 332 225 160 42 284 
330 7 314 21 331 311 85 68 324 
331 7 324 330 32 68 314 21 178 
332 6 329 160 225 42 313 291 
333 4 222 428 38 286 
334 5 413 232 57 63 335 
335 7 169 22 63 57 28 114 293 
336 6 101 71 203 49 161 388 
337 4 375 379 31 441 
338 5 180 264 107 388 71 
339 7 432 12 82 416 357 25 421 
340 7 179 239 418 105 18 267 323 
341 6 175 116 60 133 197 170 
342 4 305 67 140 422 
343 2 38 385 
344 6 156 55 93 194 99 49 
345 5 15 92 429 165 201 
346 4 46 95 241 86 
347 7 445 174 261 139 35 372 34 
348 5 221 45 411 280 259 
349 7 214 28 57 251 140 114 332 
350 5 434 364 258 61 185 
351 5 146 16 256 320 412 
352 6 128 52 308 87 127 327 
353 6 377 52 240 213 87 327 
354 7 72 33 50 155 408 102 162 
355 7 380 40 211 58 433 404 50 
356 7 123 165 61 368 294 429 216 
357 6 416 432 12 421 282 283 
358 5 276 328 300 23 6 
359 7 181 118 300 23 367 328 323 
360 5 173 420 69 370 204 
361 4 276 304 23 300 
362 7 265 392 254 134 244 65 5 
363 4 326 161 287 79 
364 5 434 350 258 185 61 
365 7 75 445 104 261 266 35 103 
366 6 206 392 3 362 265 112 
367 7 118 182 359 425 328 250 27 
368 7 294 230 378 191 141 216 51 
369 4 316 56 427 310 
370 5 420 173 360 69 204 
371 5 126 202 6 312 425 
372 4 110 35 347 445 
373 7 220 422 67 305 22 290 99 
374 4 417 115 143 31 
375 6 31 337 379 441 19 143 
376 4 14 145 423 129 
377 6 213 353 240 144 130 4 
378 7 191 141 294 216 368 426 51 
379 5 441 375 337 19 31 
380 7 355 40 58 50 211 33 433 
381 5 259 172 45 411 307 
382 6 194 94 2 402 189 93 
383 4 424 262 430 10 
384 6 147 309 70 231 56 316 
385 2 268 30 
386 4 124 74 208 44 
387 3 200 7 235 
388 5 180 338 161 71 264 
389 5 436 297 48 113 131 
390 6 84 189 171 13 186 342 
391 7 407 245 315 111 272 37 34 
392 7 362 265 244 254 134 65 366 
393 7 5 244 65 265 362 392 254 
394 3 205 122 11 
395 3 20 229 228 
396 5 312 126 371 405 36 
397 6 291 227 225 168 284 42 
398 6 437 190 149 62 224 47 
399 5 34 139 111 174 407 
400 5 138 247 256 274 16 
401 4 155 438 113 79 
402 7 2 382 131 414 194 226 93 
403 2 275 73 
404 6 73 211 255 275 40 355 
405 5 409 27 250 396 312 
406 7 96 183 321 106 177 43 88 
407 7 391 245 315 111 272 34 399 
408 5 187 354 59 33 72 
409 6 27 250 405 182 367 425 
410 2 153 21 
411 7 45 259 280 221 348 172 381 
412 4 151 219 320 16 
413 5 334 232 63 57 335 
414 4 131 297 226 48 
415 6 26 192 247 274 122 11 
416 6 357 12 432 421 282 283 
417 4 374 115 143 31 
418 7 179 340 239 105 18 267 323 
419 5 121 135 237 66 129 
420 5 173 360 370 69 204 
421 6 282 283 12 416 357 432 
422 7 305 67 220 373 22 114 251 
423 4 376 14 145 442 
424 4 383 430 262 10 
425 6 312 126 6 328 371 118 
426 7 191 51 197 378 141 253 60 
427 7 310 56 316 369 41 100 188 
428 3 222 333 38 
429 7 15 201 165 292 92 356 345 
430 4 424 440 10 383 
431 4 299 97 232 63 
432 6 12 357 416 339 421 282 
433 6 355 380 58 211 404 59 
434 5 350 364 258 185 61 
435 5 125 231 77 249 218 
436 5 389 48 297 113 226 
437 6 398 190 149 62 47 195 
438 5 113 93 48 226 401 
439 4 117 248 82 8 
440 4 10 430 424 383 
441 6 379 19 31 143 375 54 
442 5 443 176 423 14 152 
443 5 442 176 423 14 152 
444 7 243 167 142 267 239 47 322 
445 7 261 365 174 347 75 35 104 
DEPOT_SECTION
   1
   -1
EOF
