NAME :  X-n783-kX-w156-c9.cctp
COMMENT : 	Adapted by Maziero, Usberti and Cavellucci from the Uchoa, Pecin, Pessoa, Poggi, Subramanian, and Vidal (2013)
TYPE :  CCTP
DIMENSION :    694
EDGE_WEIGHT_TYPE : 	EUC_2D	
CAPACITY : 	832
VERTICES_WITHIN_COVERAGE :  9
VERTICES_WITH_DEMAND : 	156
NODE_COORD_SECTION
1 909 919
2 878 721
3 969 85
4 591 195
5 955 148
6 587 903
7 994 792
8 625 129
9 544 703
10 461 167
11 37 644
12 615 22
13 773 788
14 384 364
15 51 291
16 109 732
17 570 124
18 692 985
19 62 150
20 358 5
21 188 450
22 674 658
23 676 904
24 815 984
25 710 16
26 74 658
27 576 1000
28 636 695
29 547 92
30 587 397
31 26 150
32 182 561
33 938 462
34 362 928
35 366 835
36 516 892
37 448 923
38 501 445
39 513 799
40 905 388
41 474 791
42 560 782
43 465 552
44 315 645
45 738 396
46 45 915
47 797 871
48 922 643
49 793 586
50 921 458
51 160 295
52 598 257
53 516 221
54 99 169
55 788 634
56 425 751
57 616 680
58 949 444
59 987 459
60 182 279
61 127 354
62 791 822
63 645 609
64 857 386
65 917 154
66 398 480
67 729 688
68 134 510
69 172 2
70 499 737
71 780 565
72 908 477
73 917 341
74 272 553
75 421 876
76 770 2
77 497 623
78 853 27
79 853 521
80 519 196
81 90 822
82 827 901
83 350 168
84 656 56
85 199 924
86 732 55
87 772 748
88 884 973
89 158 430
90 563 13
91 50 959
92 609 223
93 628 860
94 264 436
95 699 764
96 441 479
97 95 246
98 236 627
99 307 893
100 695 302
101 378 639
102 830 30
103 44 339
104 885 644
105 122 603
106 850 732
107 155 865
108 230 346
109 300 719
110 55 954
111 467 494
112 153 641
113 713 82
114 659 564
115 881 18
116 781 654
117 490 806
118 823 569
119 878 496
120 441 898
121 589 516
122 165 614
123 17 749
124 164 778
125 296 858
126 258 488
127 437 866
128 187 88
129 725 988
130 125 619
131 352 701
132 447 517
133 316 80
134 743 575
135 555 373
136 84 140
137 341 827
138 541 567
139 919 768
140 945 924
141 397 932
142 905 944
143 892 37
144 74 227
145 911 617
146 668 697
147 1 96
148 223 299
149 637 118
150 622 958
151 356 127
152 347 777
153 157 190
154 8 497
155 138 78
156 100 192
157 384 598
158 23 228
159 110 163
160 345 464
161 53 628
162 316 705
163 112 361
164 642 405
165 235 578
166 489 621
167 563 916
168 597 310
169 960 837
170 37 513
171 648 247
172 375 402
173 531 205
174 935 676
175 103 549
176 964 651
177 233 241
178 891 112
179 378 472
180 457 893
181 852 861
182 113 701
183 340 913
184 662 198
185 667 718
186 140 332
187 809 908
188 968 908
189 163 857
190 59 136
191 529 215
192 385 380
193 319 417
194 318 216
195 156 119
196 528 320
197 138 787
198 473 713
199 537 114
200 168 838
201 774 825
202 32 510
203 216 372
204 16 935
205 60 733
206 500 37
207 343 363
208 205 398
209 708 298
210 840 359
211 112 603
212 865 775
213 259 348
214 893 516
215 814 607
216 605 162
217 359 199
218 16 739
219 482 214
220 70 526
221 528 103
222 572 770
223 802 517
224 876 469
225 118 571
226 952 781
227 823 795
228 522 595
229 52 336
230 255 413
231 956 21
232 717 142
233 766 880
234 524 825
235 657 640
236 189 232
237 920 809
238 688 98
239 660 781
240 236 735
241 784 692
242 743 446
243 201 32
244 188 957
245 381 605
246 380 904
247 227 263
248 69 94
249 123 416
250 341 341
251 450 482
252 251 533
253 352 591
254 724 967
255 753 539
256 684 924
257 617 989
258 455 500
259 472 926
260 395 683
261 167 357
262 789 678
263 991 492
264 457 837
265 809 754
266 770 852
267 153 799
268 924 995
269 147 318
270 85 634
271 373 184
272 99 998
273 312 527
274 846 684
275 725 123
276 806 813
277 566 172
278 191 307
279 373 125
280 906 762
281 91 96
282 40 521
283 579 597
284 907 73
285 718 33
286 279 156
287 114 156
288 220 648
289 948 992
290 969 895
291 986 791
292 78 292
293 559 896
294 791 579
295 228 922
296 856 201
297 155 8
298 243 347
299 48 593
300 954 72
301 2 686
302 301 649
303 810 8
304 984 28
305 918 370
306 586 337
307 151 693
308 550 217
309 606 719
310 178 588
311 434 358
312 136 341
313 544 174
314 504 41
315 282 685
316 39 476
317 104 90
318 460 557
319 86 722
320 694 749
321 707 652
322 774 72
323 922 819
324 735 359
325 707 226
326 102 861
327 358 730
328 462 414
329 49 853
330 750 829
331 224 328
332 581 819
333 49 715
334 84 563
335 305 734
336 917 652
337 530 838
338 403 43
339 681 779
340 393 11
341 208 154
342 646 369
343 37 206
344 122 294
345 451 649
346 993 339
347 604 580
348 274 509
349 289 185
350 728 595
351 952 690
352 989 745
353 958 560
354 966 296
355 104 963
356 478 854
357 394 459
358 147 617
359 39 967
360 537 957
361 740 958
362 544 247
363 186 913
364 38 939
365 839 23
366 754 893
367 930 149
368 430 951
369 739 15
370 202 774
371 104 669
372 241 910
373 189 181
374 645 128
375 500 603
376 577 997
377 146 161
378 662 708
379 360 721
380 622 159
381 264 483
382 166 281
383 881 938
384 137 613
385 897 132
386 710 807
387 965 334
388 127 729
389 918 559
390 522 569
391 202 666
392 127 378
393 156 913
394 97 971
395 747 419
396 838 961
397 391 886
398 484 126
399 828 28
400 954 279
401 930 285
402 750 567
403 921 125
404 654 832
405 440 878
406 720 914
407 606 394
408 372 600
409 869 892
410 471 928
411 511 594
412 867 996
413 417 918
414 554 923
415 920 808
416 389 203
417 222 972
418 741 70
419 101 132
420 110 652
421 533 564
422 891 336
423 661 893
424 15 879
425 527 56
426 481 860
427 709 388
428 105 381
429 210 937
430 550 23
431 603 51
432 582 48
433 591 850
434 776 80
435 354 660
436 301 884
437 50 500
438 240 938
439 530 386
440 859 502
441 826 779
442 86 854
443 923 289
444 403 612
445 771 629
446 983 321
447 550 820
448 80 276
449 189 636
450 676 601
451 129 319
452 363 577
453 490 220
454 584 523
455 553 110
456 935 660
457 830 469
458 539 52
459 278 487
460 637 548
461 674 905
462 823 923
463 999 837
464 565 337
465 82 851
466 969 38
467 693 895
468 710 695
469 390 537
470 837 407
471 220 391
472 618 221
473 180 686
474 959 960
475 934 765
476 487 708
477 434 776
478 129 119
479 153 438
480 564 929
481 541 777
482 290 772
483 202 468
484 432 949
485 117 642
486 413 752
487 719 52
488 543 161
489 112 459
490 301 817
491 80 48
492 300 770
493 622 470
494 148 130
495 70 782
496 488 540
497 814 887
498 679 989
499 159 535
500 180 610
501 155 207
502 424 341
503 829 839
504 828 485
505 579 290
506 621 918
507 92 563
508 609 789
509 233 130
510 184 475
511 182 513
512 601 785
513 482 409
514 587 627
515 396 611
516 653 648
517 552 862
518 804 553
519 12 198
520 183 925
521 242 857
522 749 551
523 651 13
524 373 643
525 731 963
526 219 275
527 568 499
528 714 734
529 560 470
530 837 631
531 4 304
532 79 917
533 355 877
534 735 76
535 745 354
536 621 723
537 145 377
538 119 768
539 638 271
540 574 247
541 924 493
542 924 402
543 91 336
544 599 6
545 635 887
546 660 944
547 716 219
548 186 35
549 679 861
550 919 121
551 822 482
552 151 384
553 407 860
554 869 930
555 928 75
556 139 615
557 625 969
558 252 842
559 123 311
560 404 744
561 216 14
562 906 567
563 15 55
564 719 567
565 948 717
566 614 496
567 564 906
568 179 656
569 207 724
570 355 609
571 344 833
572 726 657
573 971 896
574 958 954
575 351 186
576 39 94
577 18 167
578 396 368
579 416 570
580 792 716
581 332 103
582 561 229
583 144 320
584 971 672
585 44 186
586 924 415
587 267 418
588 782 427
589 306 493
590 853 704
591 293 285
592 468 127
593 464 700
594 692 310
595 610 428
596 257 608
597 980 789
598 25 7
599 918 803
600 762 527
601 50 710
602 978 624
603 775 736
604 551 199
605 416 970
606 630 871
607 926 116
608 293 786
609 959 178
610 244 56
611 28 579
612 342 15
613 267 887
614 339 737
615 219 933
616 750 110
617 533 943
618 116 72
619 556 836
620 421 584
621 777 841
622 664 334
623 340 957
624 138 690
625 185 939
626 895 564
627 384 127
628 221 151
629 164 405
630 788 509
631 171 394
632 33 379
633 987 917
634 892 692
635 267 798
636 881 293
637 1 227
638 935 348
639 527 995
640 487 506
641 395 580
642 405 978
643 557 620
644 966 509
645 571 996
646 214 405
647 734 399
648 69 747
649 589 624
650 272 760
651 936 678
652 84 652
653 525 364
654 908 779
655 600 19
656 33 90
657 717 960
658 360 458
659 204 29
660 602 46
661 372 106
662 707 678
663 884 598
664 401 345
665 889 818
666 288 295
667 453 130
668 587 936
669 169 316
670 271 407
671 428 772
672 461 415
673 926 968
674 61 305
675 435 146
676 637 547
677 620 2
678 973 397
679 561 40
680 147 381
681 452 610
682 963 618
683 948 761
684 785 845
685 65 388
686 900 613
687 668 101
688 445 170
689 57 176
690 373 307
691 365 297
692 117 1000
693 765 916
694 387 877
DEMAND_SECTION
2 85
3 34
4 47
5 49
6 75
7 87
8 13
9 92
10 85
11 3
12 18
13 87
14 96
15 72
16 38
17 5
18 59
19 75
20 81
21 68
22 99
23 66
24 67
25 33
26 30
27 73
28 61
29 18
30 37
31 81
32 36
33 17
34 31
35 25
36 85
37 12
38 44
39 60
40 5
41 23
42 58
43 29
44 9
45 13
46 1
47 100
48 88
49 53
50 30
51 66
52 47
53 35
54 55
55 83
56 20
57 84
58 36
59 50
60 76
61 70
62 80
63 79
64 44
65 26
66 60
67 80
68 40
69 60
70 46
71 62
72 50
73 32
74 18
75 3
76 16
77 30
78 4
79 68
80 6
81 34
82 93
83 58
84 10
85 45
86 27
87 90
88 77
89 98
90 40
91 41
92 30
93 58
94 63
95 78
96 67
97 51
98 32
99 25
100 26
101 25
102 25
103 67
104 99
105 41
106 66
107 47
108 86
109 18
110 19
111 85
112 23
113 14
114 79
115 48
116 93
117 9
118 80
119 34
120 19
121 79
122 21
123 20
124 44
125 24
126 60
127 14
128 87
129 88
130 23
131 29
132 12
133 61
134 90
135 12
136 84
137 20
138 85
139 68
140 60
141 21
142 53
143 29
144 67
145 84
146 86
147 86
148 60
149 2
150 64
151 77
152 10
153 85
154 81
155 92
156 93
157 12
COVERAGE_SECTION
2 9 106 590 634 274 280 212 139 654 565 
3 9 300 555 466 607 304 403 550 284 5 
4 9 92 277 216 472 604 582 308 380 313 
5 9 367 609 65 403 607 550 385 3 178 
6 9 567 167 293 668 480 506 414 545 433 
7 8 291 597 226 463 352 683 169 475 
8 9 149 374 380 216 687 17 238 277 4 
9 9 70 476 309 198 222 481 57 536 593 
10 6 688 675 667 592 398 219 
11 9 161 26 652 270 299 301 611 601 333 
12 9 655 677 544 660 431 523 432 84 90 
13 9 201 62 87 276 330 227 265 603 621 
14 9 578 192 664 172 207 502 250 311 690 
15 9 674 292 448 229 103 531 543 97 144 
16 9 388 319 182 538 648 205 624 307 197 
17 9 455 199 29 488 221 277 216 8 313 
18 9 498 129 657 254 525 546 361 256 557 
19 9 190 136 689 31 585 54 419 577 159 
20 5 612 340 338 133 581 
21 9 483 510 89 479 629 646 208 631 511 
22 9 516 235 321 146 662 378 468 572 28 
23 8 461 423 467 256 546 549 545 406 
24 9 396 412 462 88 187 554 361 383 82 
25 9 285 369 487 86 523 76 418 534 113 
26 9 652 270 371 420 161 11 485 601 182 
27 9 376 645 257 639 360 557 150 668 617 
28 9 57 378 146 536 309 185 516 22 235 
29 8 455 221 199 17 425 458 679 432 
30 8 407 595 135 164 439 306 464 342 
31 9 577 19 190 585 689 519 343 576 136 
32 9 310 499 511 500 122 165 225 358 384 
33 9 50 58 72 541 59 586 644 263 224 
34 9 183 246 141 623 397 533 413 694 99 
35 9 571 137 533 694 553 397 152 490 75 
36 9 293 426 517 414 567 167 356 617 259 
37 9 259 410 120 180 413 484 368 405 141 
38 9 513 328 672 111 251 640 529 439 96 
39 9 117 234 481 41 337 447 42 619 70 
40 9 305 542 586 64 73 638 422 678 58 
41 9 117 39 477 264 671 70 234 56 356 
42 9 222 481 447 512 332 508 39 619 234 
43 9 318 496 132 640 579 258 620 111 390 
44 9 302 435 315 570 524 162 101 253 131 
45 7 647 395 427 324 535 242 588 
46 9 364 532 204 110 91 424 359 329 442 
47 8 497 684 233 266 621 187 82 503 
48 9 336 456 145 174 104 686 651 176 682 
49 9 294 71 215 118 518 402 55 445 134 
50 9 33 72 58 541 586 224 542 119 214 
51 9 382 669 269 60 583 278 344 451 559 
52 9 540 92 505 472 539 582 171 168 362 
53 9 191 173 80 453 308 219 362 604 582 
54 9 159 287 156 136 419 19 689 377 190 
55 9 445 116 215 262 49 530 294 241 572 
56 9 486 671 560 477 198 41 593 327 379 
57 9 28 309 536 516 378 146 235 514 22 
58 9 33 50 586 59 542 72 678 541 263 
59 9 263 58 33 644 678 50 541 586 72 
60 9 382 51 278 526 669 148 236 247 269 
61 9 312 163 392 186 537 680 428 451 552 
62 9 201 276 621 684 266 13 227 330 503 
63 9 450 235 516 114 347 22 649 514 460 
64 8 470 210 40 422 305 542 586 73 
65 8 367 403 385 550 5 607 609 178 
66 9 357 179 96 658 251 160 469 258 132 
67 9 468 662 572 321 528 241 262 116 146 
68 9 499 511 175 489 510 225 220 507 32 
69 8 297 548 243 659 561 155 128 610 
70 9 476 198 593 9 481 41 39 117 56 
71 9 294 49 518 402 522 255 134 600 118 
72 9 50 541 224 33 119 214 58 440 586 
73 9 638 422 305 40 387 443 401 636 542 
74 9 252 348 165 273 596 126 459 589 381 
75 9 127 405 553 120 397 694 180 413 246 
76 9 369 303 285 25 399 86 102 322 487 
77 9 166 375 411 228 681 345 390 643 421 
78 7 365 102 399 115 143 303 284 
79 9 440 119 214 504 551 223 118 224 457 
80 9 173 191 53 604 313 308 453 219 488 
81 9 465 442 326 495 329 197 538 267 107 
82 9 187 497 462 47 409 181 554 396 503 
83 8 575 271 217 151 279 416 627 194 
84 9 523 687 12 238 431 660 113 487 149 
85 9 520 363 429 625 615 295 244 438 372 
86 9 487 418 534 285 113 369 25 322 434 
87 9 603 265 580 13 241 528 441 227 262 
88 9 412 383 142 673 268 554 396 289 24 
89 9 479 629 21 249 631 552 680 510 489 
90 9 430 679 544 655 432 458 660 12 431 
91 9 110 359 364 204 46 394 532 355 272 
92 9 472 4 52 540 171 582 539 184 308 
93 9 606 545 404 433 423 549 506 6 332 
94 9 587 230 670 381 126 459 193 646 471 
95 9 320 339 528 239 386 185 378 468 146 
96 9 251 258 111 132 66 357 640 179 672 
97 9 144 448 292 156 344 15 674 343 559 
98 9 288 596 449 165 391 500 568 302 310 
99 8 436 125 183 613 533 34 372 571 
100 8 594 209 622 539 324 171 535 325 
101 9 524 435 515 245 444 570 408 157 260 
102 8 399 365 78 303 115 143 76 322 
103 8 229 674 632 543 15 531 685 292 
104 9 336 686 48 145 663 634 530 456 274 
105 9 211 130 384 556 358 225 485 122 270 
106 9 590 2 212 265 274 441 634 580 280 
107 9 189 200 393 326 363 267 520 442 85 
108 9 298 331 213 203 471 148 278 208 646 
109 9 335 162 315 614 650 492 482 131 327 
110 9 91 359 364 46 204 532 394 355 272 
111 9 258 251 640 96 132 496 43 38 318 
112 9 358 122 556 568 384 130 449 485 500 
113 9 534 238 418 487 86 275 616 285 687 
114 9 460 676 450 63 347 564 235 350 566 
115 9 143 78 365 102 399 284 303 555 231 
116 9 55 262 445 241 572 215 530 67 580 
117 9 41 39 234 264 356 337 426 481 447 
118 9 518 49 294 215 71 223 79 530 663 
119 9 440 214 224 79 72 541 504 457 50 
120 9 180 405 37 75 413 127 259 410 397 
121 9 454 527 566 529 493 676 460 347 138 
122 9 500 358 556 384 310 112 449 130 105 
123 9 218 205 333 601 648 495 301 319 16 
124 9 267 197 370 538 200 388 569 16 189 
125 9 436 99 490 613 558 521 571 137 533 
126 9 381 459 348 252 589 94 483 74 273 
127 9 405 75 553 120 180 264 356 426 397 
128 9 195 155 548 494 243 659 509 610 478 
129 9 254 525 657 18 361 498 406 256 546 
130 9 384 556 105 211 358 485 112 420 122 
131 9 379 327 162 614 435 260 109 335 524 
132 9 258 111 251 96 43 640 318 496 469 
133 9 581 151 661 612 279 610 627 286 20 
134 9 402 350 522 564 255 71 294 49 600 
135 8 439 653 464 30 306 407 196 168 
136 9 419 19 190 54 287 159 281 689 248 
137 9 571 35 490 152 533 125 608 694 436 
138 9 421 390 228 411 283 375 643 496 454 
139 9 280 475 654 683 226 599 415 237 323 
140 9 188 574 290 573 474 633 142 673 383 
141 9 413 246 34 368 484 605 397 642 37 
142 9 383 673 88 554 140 268 574 474 409 
143 9 115 284 78 555 365 102 399 231 300 
144 9 97 343 156 448 158 585 689 54 292 
145 9 686 48 663 336 104 456 562 682 626 
146 9 378 185 28 22 468 662 516 536 57 
147 9 656 576 563 31 248 190 577 19 281 
148 9 526 331 278 247 60 108 298 669 177 
149 9 374 8 687 380 216 238 84 17 431 
150 9 557 257 506 546 668 376 27 645 6 
151 8 279 661 627 581 83 271 575 133 
152 9 614 327 492 137 608 571 379 482 335 
153 9 501 377 373 236 159 287 156 494 54 
154 7 202 170 316 282 437 220 611 
155 9 618 317 478 195 128 281 494 548 419 
156 9 54 159 287 144 689 97 136 377 585 
157 9 245 408 515 641 444 452 570 253 620 
158 9 637 343 519 585 144 577 689 15 97 
159 9 287 54 156 419 136 377 478 19 494 
160 7 658 179 357 589 193 66 172 
161 9 11 270 299 26 652 611 420 211 371 
162 9 109 335 131 315 614 379 327 302 435 
163 8 61 428 392 312 543 537 186 680 
164 4 342 407 595 30 
165 9 596 74 252 98 32 310 500 288 449 
166 9 77 375 411 681 228 345 390 643 318 
167 9 567 414 480 293 6 668 617 360 36 
168 6 505 306 464 52 539 540 
169 8 463 323 237 415 597 291 599 7 
170 8 202 282 437 154 220 316 611 334 
171 9 539 472 92 52 184 325 100 540 547 
172 8 192 14 578 207 193 658 357 664 
173 9 191 80 604 53 308 313 582 362 453 
174 9 651 456 351 336 48 584 176 565 634 
175 9 507 334 225 220 68 211 105 499 282 
176 9 584 456 602 682 174 651 351 48 336 
177 7 247 526 236 148 60 373 591 
178 8 385 550 403 607 284 65 555 367 
179 7 357 66 658 160 96 469 172 
180 9 120 405 37 127 259 410 75 426 356 
181 9 503 409 497 82 47 665 187 276 462 
182 9 624 16 388 371 319 307 420 652 26 
183 9 34 99 533 246 623 436 397 694 141 
184 9 472 171 325 380 547 92 216 4 374 
185 9 378 146 28 320 536 468 528 95 662 
186 9 312 583 269 451 61 559 669 261 163 
187 9 82 462 497 47 693 233 366 396 409 
188 9 573 290 633 140 574 474 169 142 673 
189 9 107 200 393 267 326 363 520 197 85 
190 9 19 136 31 689 419 248 576 281 577 
191 9 173 53 80 308 604 362 582 453 313 
192 8 14 578 172 664 207 311 502 250 
193 8 670 587 160 94 172 658 207 230 
194 7 349 217 575 83 271 286 416 
195 9 494 478 377 128 155 287 419 317 618 
196 4 464 653 135 505 
197 9 267 538 124 81 200 388 16 370 495 
198 9 476 593 70 56 345 9 486 477 671 
199 9 221 455 29 17 488 398 425 313 458 
200 9 189 107 267 197 124 326 370 393 521 
201 7 621 62 684 330 266 276 13 
202 8 170 282 437 154 316 220 611 334 
203 9 471 208 108 646 298 331 213 631 261 
204 9 364 46 359 91 110 424 532 329 394 
205 9 648 333 601 319 218 123 16 495 182 
206 6 314 425 458 430 679 90 
207 7 250 14 192 172 578 193 664 
208 9 646 471 203 631 629 230 21 261 552 
209 9 100 594 622 324 535 325 539 171 547 
210 7 64 470 422 40 636 73 305 
211 9 105 130 384 556 225 358 485 270 507 
212 9 441 280 654 106 227 665 139 2 265 
213 8 298 108 331 203 471 666 670 148 
214 9 119 440 541 79 72 626 224 389 562 
215 9 49 530 294 55 118 445 71 518 116 
216 9 380 4 8 277 17 374 149 472 92 
217 5 575 271 416 83 194 
218 9 123 333 205 601 648 301 495 319 16 
219 7 453 53 80 191 173 10 688 
220 9 282 437 170 175 334 202 507 316 68 
221 8 199 29 455 17 425 398 458 488 
222 9 42 481 512 508 332 447 309 39 536 
223 9 630 518 551 504 600 79 71 255 118 
224 9 119 72 440 50 457 214 504 541 551 
225 9 175 507 105 211 334 384 130 556 358 
226 9 683 475 597 139 291 599 415 7 237 
227 9 441 276 62 265 503 212 13 201 684 
228 9 411 375 390 421 138 77 166 643 283 
229 8 103 674 543 15 632 292 685 531 
230 9 587 670 94 471 646 208 203 193 213 
231 9 466 304 300 555 3 143 284 115 607 
232 6 275 616 238 113 687 534 
233 7 366 266 47 693 684 621 497 
234 9 337 447 39 619 117 517 481 356 426 
235 9 516 22 63 450 321 57 146 28 662 
236 9 501 177 60 247 373 526 153 382 51 
237 8 415 599 323 654 665 139 226 475 
238 9 687 113 275 374 534 84 232 149 487 
239 9 339 95 320 404 508 386 512 185 536 
240 9 569 650 370 482 109 315 335 635 492 
241 9 262 580 116 603 67 87 55 274 445 
242 4 395 588 647 45 
243 9 659 548 561 69 610 297 128 155 618 
244 8 625 429 520 85 417 615 363 295 
245 9 157 408 515 444 570 641 253 452 101 
246 9 397 694 34 141 533 413 183 75 553 
247 8 526 177 148 60 236 278 382 331 
248 9 281 576 317 656 190 491 136 419 618 
249 7 479 89 392 428 629 680 552 
250 8 207 690 14 691 192 664 578 172 
251 9 96 258 111 132 640 66 357 38 672 
252 9 74 348 126 165 381 459 273 589 511 
253 9 452 570 408 245 157 641 515 101 444 
254 9 525 657 361 129 18 498 406 256 693 
255 8 522 600 402 71 134 564 630 518 
256 9 461 23 467 546 406 423 657 254 525 
257 9 557 150 376 27 645 668 498 546 506 
258 9 111 132 251 96 640 496 43 318 66 
259 9 410 37 180 120 484 368 36 413 405 
260 9 524 101 131 435 379 327 560 345 444 
261 9 537 552 680 312 186 631 61 669 269 
262 9 241 116 580 55 445 274 603 67 572 
263 8 644 59 33 58 541 353 50 72 
264 9 356 426 127 405 117 41 75 553 180 
265 9 441 87 603 580 227 106 13 276 212 
266 7 621 684 201 233 330 47 62 
267 9 197 124 200 538 370 189 107 81 388 
268 9 289 673 88 474 574 142 412 383 140 
269 9 583 186 451 669 312 559 51 344 61 
270 9 652 26 420 161 485 371 211 130 105 
271 5 217 575 416 83 627 
272 8 692 394 355 110 91 359 532 364 
273 8 589 348 74 459 252 381 126 160 
274 9 590 634 106 2 530 104 262 241 580 
275 6 232 616 113 238 534 418 
276 9 62 227 201 503 684 441 621 13 266 
277 9 313 488 604 4 216 17 173 308 80 
278 9 669 60 51 148 382 331 526 269 583 
279 6 627 151 661 581 83 271 
280 9 139 654 475 683 212 599 415 237 2 
281 9 317 248 618 419 478 136 491 155 190 
282 9 170 202 437 220 154 316 611 334 507 
283 9 649 347 514 643 138 228 421 390 63 
284 9 555 143 178 300 607 550 403 385 115 
285 9 25 487 86 369 418 534 113 76 84 
286 8 349 509 628 341 83 194 581 575 
287 9 159 54 419 377 136 156 478 494 19 
288 9 391 98 449 568 596 473 500 122 112 
289 9 268 673 474 574 142 88 140 412 633 
290 8 573 188 633 140 169 574 463 474 
291 8 597 7 226 352 463 683 169 475 
292 9 448 674 15 344 543 97 559 229 103 
293 9 567 167 414 6 480 517 36 668 617 
294 9 49 71 518 118 215 402 134 522 445 
295 8 615 372 438 429 85 363 520 625 
296 1 65 
297 8 69 548 243 659 561 155 618 491 
298 9 108 213 331 203 471 148 208 646 278 
299 9 611 161 334 11 507 270 211 652 26 
300 9 3 555 466 284 231 607 304 550 403 
301 9 601 11 218 333 123 205 26 161 652 
302 9 44 315 435 162 596 570 98 109 524 
303 8 399 102 365 76 78 369 115 322 
304 9 466 231 300 3 555 284 143 115 607 
305 9 40 638 73 542 422 586 387 678 64 
306 7 464 168 135 505 30 196 407 
307 9 624 473 182 388 568 112 371 16 391 
308 9 582 604 191 173 362 53 80 540 313 
309 9 536 28 57 378 185 222 9 146 512 
310 9 500 32 122 358 556 384 449 499 105 
311 4 502 664 578 14 
312 9 186 61 583 451 269 163 559 261 537 
313 9 488 277 604 80 173 308 191 4 53 
314 7 206 425 458 430 679 90 221 
315 9 109 162 302 44 335 240 131 288 98 
316 7 437 202 154 170 282 220 489 
317 9 281 618 248 155 478 419 491 136 494 
318 9 43 496 132 579 620 681 258 640 375 
319 9 16 205 648 182 333 601 388 371 538 
320 9 95 528 339 185 239 378 468 146 386 
321 9 572 662 22 67 468 235 516 146 450 
322 5 434 418 534 86 616 
323 8 237 415 599 665 169 654 226 139 
324 8 535 45 427 647 395 594 209 100 
325 7 547 184 171 209 100 539 232 
326 9 442 465 81 107 329 189 532 200 393 
327 9 379 614 131 152 560 162 335 109 486 
328 6 672 513 38 311 96 251 
329 9 465 442 424 81 326 46 532 495 364 
330 6 201 266 621 684 62 386 
331 9 108 298 148 278 213 203 526 669 471 
332 9 619 447 433 512 508 42 222 517 337 
333 9 601 205 319 648 218 123 301 16 26 
334 9 507 175 225 220 299 211 105 611 282 
335 9 109 162 614 492 482 650 327 608 315 
336 9 48 456 174 651 104 145 686 176 634 
337 9 234 619 447 517 39 117 332 356 426 
338 2 340 20 
339 8 239 95 320 386 528 404 185 378 
340 3 338 20 612 
341 9 628 373 509 153 377 195 494 128 286 
342 5 164 622 407 30 427 
343 9 585 158 519 689 637 144 577 31 19 
344 9 559 451 583 269 51 186 292 382 448 
345 9 681 166 77 593 444 260 375 515 198 
346 8 446 387 354 638 678 400 73 305 
347 9 283 460 649 676 63 514 114 454 643 
348 8 459 126 381 252 589 273 74 94 
349 8 286 194 575 83 217 628 509 177 
350 9 134 564 402 522 450 445 71 255 321 
351 9 651 174 584 565 456 176 336 48 634 
352 9 683 597 291 7 565 226 475 351 139 
353 8 389 562 644 682 626 602 145 541 
354 8 400 446 387 401 443 346 638 73 
355 8 394 272 692 110 532 91 359 364 
356 9 426 264 127 180 405 117 36 234 337 
357 8 66 179 658 160 96 172 251 258 
358 9 556 384 122 130 112 105 500 211 485 
359 9 91 110 364 204 46 394 532 355 272 
360 9 617 414 480 639 167 645 668 376 27 
361 9 525 254 657 129 406 693 18 256 366 
362 7 582 540 308 191 53 173 604 
363 9 520 85 625 393 429 615 295 244 372 
364 9 204 91 110 46 359 532 424 394 355 
365 8 102 399 78 303 115 143 76 322 
366 7 233 693 406 266 47 187 621 
367 9 65 5 403 550 607 385 609 178 555 
368 9 484 605 37 413 642 141 410 259 120 
369 9 285 25 76 86 487 418 534 322 303 
370 9 124 569 240 267 197 635 650 200 538 
371 9 420 652 485 26 182 270 624 307 130 
372 8 295 438 615 613 429 85 521 363 
373 9 153 341 501 628 377 236 494 509 195 
374 9 149 8 687 380 216 238 184 84 232 
375 9 411 77 166 228 390 681 421 138 643 
376 9 27 645 257 639 557 360 150 668 480 
377 9 153 494 287 159 195 478 373 501 54 
378 9 185 146 28 536 468 22 320 57 662 
379 9 327 131 614 162 560 260 152 335 109 
380 9 216 8 374 149 4 184 277 472 17 
381 9 126 459 348 589 94 252 483 273 587 
382 9 51 60 669 278 269 583 344 559 451 
383 9 554 142 88 409 396 673 412 462 82 
384 9 556 358 130 105 211 122 112 485 500 
385 8 178 403 550 65 607 367 5 284 
386 6 339 95 330 239 320 404 
387 8 446 346 638 354 73 400 305 401 
388 9 16 182 538 624 319 307 197 124 648 
389 8 562 626 353 214 663 686 145 541 
390 9 421 138 228 411 375 496 43 77 166 
391 9 288 568 473 449 98 112 307 569 500 
392 8 537 680 428 163 61 552 249 312 
393 9 363 520 625 85 107 244 189 429 615 
394 8 355 272 692 110 91 532 359 364 
395 7 647 45 242 588 427 324 535 
396 9 24 462 554 412 88 383 187 82 142 
397 9 694 246 553 75 533 413 141 127 405 
398 6 592 667 10 221 675 199 
399 8 102 365 78 303 115 76 143 322 
400 6 354 401 443 446 387 73 
401 6 443 400 354 636 73 387 
402 9 134 522 255 71 564 350 600 294 49 
403 9 550 607 385 367 65 178 5 555 284 
404 8 93 549 606 239 545 339 386 423 
405 9 127 75 120 180 553 264 356 426 37 
406 8 467 256 366 23 693 657 461 361 
407 6 30 595 164 342 135 306 
408 9 245 157 570 253 452 515 641 444 101 
409 9 181 554 82 383 462 497 187 142 503 
410 9 259 37 180 120 484 368 413 36 405 
411 9 228 375 390 77 166 421 138 643 496 
412 9 88 396 24 268 383 142 673 554 289 
413 9 141 37 120 484 368 246 397 75 405 
414 9 167 480 567 293 617 668 360 6 36 
415 8 237 599 323 654 665 139 226 475 
416 4 271 217 575 83 
417 7 244 429 438 615 295 625 85 
418 8 534 86 487 113 322 434 616 285 
419 9 136 287 478 159 54 281 190 317 19 
420 9 485 371 652 270 26 130 112 384 556 
421 9 138 390 228 411 375 496 283 643 454 
422 8 73 305 636 638 40 210 443 64 
423 9 461 23 545 467 549 606 256 93 506 
424 9 329 46 204 364 465 532 442 110 91 
425 8 458 314 206 679 430 29 221 90 
426 9 356 264 180 127 405 36 337 117 120 
427 7 647 45 324 395 535 342 242 
428 5 163 392 61 249 537 
429 9 615 85 295 625 244 438 520 363 417 
430 9 90 679 458 425 432 314 655 206 544 
431 9 660 432 12 655 679 544 677 84 90 
432 9 660 431 679 655 90 430 12 458 544 
433 9 332 93 619 517 606 447 6 293 545 
434 5 322 418 616 534 86 
435 9 524 101 131 44 260 570 302 162 245 
436 9 99 125 613 183 533 372 521 558 490 
437 8 170 202 282 316 220 154 175 334 
438 7 295 615 372 429 417 85 244 
439 8 653 135 513 30 464 38 196 306 
440 9 79 119 504 214 224 551 457 72 223 
441 9 227 265 212 276 106 13 62 503 87 
442 9 465 326 81 329 532 107 46 495 424 
443 6 401 400 636 354 73 422 
444 9 515 245 157 408 620 641 101 524 579 
445 9 55 116 49 215 262 572 294 350 134 
446 8 346 387 354 400 638 401 443 73 
447 9 619 234 337 332 42 517 39 481 433 
448 9 292 15 97 674 344 144 559 543 451 
449 9 568 500 122 288 391 112 358 98 310 
450 9 63 114 235 350 516 564 22 321 460 
451 9 559 583 186 269 312 344 61 51 669 
452 9 253 408 157 641 245 570 515 469 444 
453 9 219 53 80 191 173 10 308 362 604 
454 9 121 527 566 529 676 460 347 138 421 
455 9 199 29 17 221 488 425 458 277 313 
456 9 174 651 336 48 176 351 584 145 682 
457 7 551 504 440 224 119 223 79 
458 9 425 679 430 314 29 206 432 90 221 
459 9 381 126 348 589 273 94 252 74 587 
460 9 676 114 347 566 121 454 63 450 283 
461 9 23 423 256 467 546 545 549 406 506 
462 9 187 82 497 396 554 409 47 693 383 
463 8 169 7 291 597 290 573 226 188 
464 6 306 135 196 168 653 505 
465 9 442 326 81 329 532 495 424 46 107 
466 9 304 231 300 3 555 284 143 607 115 
467 8 23 461 256 423 406 549 545 546 
468 9 662 67 528 572 146 321 185 378 22 
469 8 579 641 452 620 66 132 157 179 
470 8 64 210 588 457 40 224 551 504 
471 9 646 208 203 230 108 631 298 670 587 
472 9 92 4 171 52 184 540 539 582 216 
473 9 307 391 568 624 569 449 112 288 388 
474 9 574 289 673 140 268 633 188 142 573 
475 9 139 683 226 280 654 599 415 237 565 
476 9 198 593 70 9 345 56 41 77 477 
477 9 671 56 486 41 560 117 264 198 70 
478 9 494 195 419 317 287 155 281 377 159 
479 9 89 629 21 249 489 510 631 552 483 
480 9 414 167 567 668 293 617 6 360 506 
481 9 42 222 39 447 234 70 332 117 512 
482 9 492 608 650 635 335 490 109 152 614 
483 9 510 21 511 479 89 126 381 646 94 
484 9 368 605 37 413 141 642 410 259 120 
485 9 420 130 371 270 652 384 556 112 105 
486 9 56 560 671 477 327 379 152 260 41 
487 9 86 285 418 534 113 25 369 238 322 
488 9 313 277 604 80 17 173 199 455 191 
489 5 249 479 89 68 437 
490 9 608 635 125 137 482 571 492 558 152 
491 7 618 248 317 281 576 656 155 
492 9 482 608 650 335 635 490 152 109 614 
493 6 566 595 121 527 529 454 
494 9 195 478 377 287 419 159 155 128 317 
495 9 648 81 205 538 123 319 16 197 218 
496 9 43 318 640 390 132 111 421 258 138 
497 9 82 187 47 462 181 233 503 684 409 
498 9 18 129 657 546 254 525 557 257 150 
499 9 511 32 68 225 310 175 510 507 105 
500 9 122 310 449 358 112 556 384 568 32 
501 9 153 236 373 377 156 159 287 54 97 
502 4 311 664 578 14 
503 9 181 276 62 227 684 47 497 621 201 
504 8 551 457 440 223 79 630 119 224 
505 5 168 52 540 306 464 
506 9 545 6 668 150 423 546 606 557 461 
507 9 334 175 225 220 211 105 299 130 611 
508 9 512 332 222 42 239 404 433 447 536 
509 9 628 341 286 128 373 610 195 349 494 
510 9 483 21 511 479 89 68 499 629 489 
511 9 499 510 32 68 483 21 252 310 126 
512 9 508 222 332 42 239 481 447 536 309 
513 6 328 672 38 439 653 311 
514 9 649 283 643 347 57 63 516 235 228 
515 9 444 245 157 408 641 101 620 524 570 
516 9 235 22 63 57 28 146 450 321 378 
517 9 619 337 293 433 447 234 567 36 332 
518 9 118 71 294 49 223 630 600 255 215 
519 9 343 637 158 577 585 31 689 144 19 
520 9 363 625 85 393 429 244 615 295 438 
521 9 558 613 372 125 635 436 295 490 99 
522 8 255 402 134 600 71 564 350 294 
523 9 677 12 84 655 544 25 660 431 285 
524 9 101 435 570 245 515 408 444 157 260 
525 9 254 361 657 129 18 406 498 693 256 
526 9 247 148 60 177 278 236 331 382 51 
527 9 121 454 529 566 493 138 421 640 595 
528 9 320 95 468 67 185 339 662 378 146 
529 9 527 121 454 566 493 38 595 30 640 
530 9 215 55 104 274 663 116 49 118 445 
531 9 15 103 674 229 292 637 158 632 448 
532 9 46 110 364 91 355 394 326 442 359 
533 9 694 246 397 183 35 571 34 99 137 
534 9 418 86 113 487 616 322 434 285 275 
535 8 324 45 647 427 395 209 594 100 
536 9 309 28 57 378 185 146 512 508 222 
537 9 680 552 392 61 261 631 629 163 312 
538 9 197 16 388 124 267 495 648 319 81 
539 8 171 52 472 92 168 505 100 594 
540 8 582 52 362 308 92 505 472 604 
541 8 72 33 50 214 644 119 224 58 
542 9 586 40 305 58 678 638 50 73 33 
543 8 163 229 61 559 451 674 312 292 
544 9 655 677 12 90 660 431 432 679 430 
545 9 606 423 93 506 461 23 6 549 433 
546 9 256 150 461 23 557 506 498 423 18 
547 6 325 184 171 232 209 100 
548 9 243 659 69 561 297 128 610 155 618 
549 7 423 467 404 23 461 606 93 
550 9 403 607 385 178 367 65 5 555 284 
551 7 504 457 223 440 630 79 224 
552 9 680 537 631 392 629 261 61 249 163 
553 9 75 694 127 397 405 35 120 246 264 
554 9 383 409 142 396 88 462 82 187 412 
555 9 284 300 607 3 550 403 143 178 466 
556 9 384 358 130 105 122 112 211 485 500 
557 9 150 257 546 668 506 376 27 498 645 
558 9 521 635 125 613 490 436 372 608 99 
559 9 451 344 583 269 186 312 51 543 61 
560 9 486 56 671 477 327 379 260 614 152 
561 9 659 243 548 69 610 297 128 155 618 
562 8 626 389 663 686 145 353 214 79 
563 7 656 147 576 598 491 248 281 
564 9 134 350 402 522 255 450 600 114 71 
565 9 351 651 174 683 352 475 584 456 139 
566 7 493 121 454 527 676 460 529 
567 9 167 293 414 6 480 668 517 617 36 
568 9 449 391 112 473 288 122 307 500 358 
569 9 240 473 370 391 307 124 568 650 288 
570 9 253 408 245 157 452 101 524 515 444 
571 9 137 35 533 490 125 152 694 436 553 
572 9 321 662 67 468 22 445 116 350 55 
573 8 290 188 633 140 574 169 463 474 
574 9 474 140 673 289 188 633 268 142 573 
575 7 217 83 271 416 194 151 349 
576 9 656 248 147 563 190 281 31 19 491 
577 9 31 519 585 689 343 19 190 158 637 
578 7 14 192 664 311 502 172 207 
579 9 620 641 469 157 444 318 515 245 43 
580 9 241 603 87 262 265 106 590 116 274 
581 7 133 151 661 279 627 83 286 
582 9 308 540 362 604 191 173 4 52 53 
583 9 269 186 451 312 559 669 51 344 61 
584 9 176 351 174 651 456 602 565 682 48 
585 9 689 343 577 519 19 31 158 144 190 
586 9 542 40 58 50 305 33 678 72 638 
587 8 670 230 94 193 471 646 208 381 
588 7 395 242 45 647 470 457 551 
589 8 459 273 348 381 126 160 658 252 
590 9 274 106 2 634 580 265 104 262 241 
591 7 666 247 148 213 194 691 177 
592 5 667 398 675 10 688 
593 9 198 476 70 345 56 260 486 560 9 
594 8 100 209 622 324 539 535 342 171 
595 5 407 30 164 493 529 
596 9 98 165 288 74 302 44 449 252 500 
597 8 291 7 226 683 352 169 463 475 
598 7 563 491 656 576 147 248 281 
599 8 415 237 323 654 665 139 226 475 
600 8 255 522 630 223 71 402 518 134 
601 9 333 205 319 648 218 123 301 26 16 
602 9 682 176 584 456 48 145 174 336 353 
603 9 87 580 265 241 13 262 528 67 441 
604 9 308 173 313 191 277 80 582 488 4 
605 9 642 368 484 141 413 37 34 410 259 
606 9 93 545 423 433 404 506 549 6 461 
607 9 550 403 367 385 178 65 555 5 284 
608 9 482 492 635 490 650 335 152 137 109 
609 9 5 367 65 403 550 607 385 3 178 
610 9 659 243 561 548 128 509 133 69 628 
611 9 299 161 334 282 11 507 170 220 202 
612 6 20 340 338 133 581 661 
613 8 436 372 521 99 125 558 295 438 
614 9 327 379 335 131 162 152 109 492 482 
615 8 429 295 85 438 372 625 520 244 
616 6 275 534 434 418 322 113 
617 9 360 414 480 167 567 639 36 293 668 
618 8 317 155 281 491 478 248 195 419 
619 9 447 337 517 332 234 433 42 39 293 
620 9 579 641 444 515 157 681 245 318 408 
621 7 684 266 201 62 330 47 276 
622 6 594 342 100 209 539 427 
623 7 34 183 141 246 642 99 605 
624 9 307 182 371 388 473 420 16 112 485 
625 9 520 244 85 429 363 615 393 295 417 
626 8 562 389 663 214 686 145 79 353 
627 6 279 661 151 83 675 581 
628 8 341 509 373 286 128 195 153 349 
629 9 631 552 89 680 537 479 208 249 392 
630 7 223 600 551 255 504 518 71 
631 9 629 552 680 537 208 261 89 646 392 
632 4 685 103 229 428 
633 9 188 573 290 140 574 474 673 463 169 
634 9 2 590 174 651 274 336 104 456 48 
635 9 608 482 650 490 492 558 521 125 370 
636 4 443 422 401 73 
637 9 158 519 343 585 577 144 689 531 15 
638 9 73 305 387 422 40 446 542 346 443 
639 9 360 645 27 376 617 480 414 668 167 
640 9 111 258 496 132 251 43 96 318 38 
641 9 157 579 620 245 408 515 452 444 469 
642 9 605 368 484 141 413 34 623 37 246 
643 9 514 283 649 228 411 138 375 77 421 
644 8 263 541 353 59 33 72 58 50 
645 9 27 376 639 257 360 557 668 150 617 
646 9 208 471 203 230 631 629 21 587 670 
647 7 45 395 427 324 535 242 588 
648 9 205 319 495 333 601 16 123 218 538 
649 9 514 283 643 347 63 57 516 235 228 
650 9 482 492 608 635 335 240 109 490 162 
651 9 174 456 351 336 584 48 176 565 634 
652 9 26 270 371 420 485 161 11 130 211 
653 5 439 135 196 464 513 
654 9 139 280 599 475 415 237 323 212 665 
655 9 544 12 677 660 431 432 90 679 430 
656 9 576 147 248 563 190 281 31 491 19 
657 9 254 525 361 129 18 406 498 256 546 
658 7 160 179 357 66 172 193 589 
659 9 243 548 561 69 610 297 128 155 618 
660 9 431 432 12 655 544 679 677 90 84 
661 5 279 627 151 581 133 
662 9 468 67 321 572 22 146 378 528 185 
663 9 686 145 626 562 104 389 530 48 336 
664 6 502 578 14 311 192 690 
665 8 237 323 415 599 654 212 181 139 
666 7 591 213 148 247 298 250 331 
667 5 592 675 398 10 688 
668 9 480 167 6 414 506 567 150 293 557 
669 9 269 51 278 583 186 382 60 451 261 
670 8 587 230 94 193 471 646 213 203 
671 9 477 56 486 560 41 117 264 198 70 
672 6 328 513 38 311 96 251 
673 9 268 142 289 474 574 88 140 383 412 
674 9 15 292 229 448 103 543 531 344 559 
675 5 667 688 10 592 398 
676 9 460 114 347 566 121 454 63 450 283 
677 9 12 544 655 523 660 431 90 432 84 
678 9 542 586 58 305 346 638 59 387 40 
679 9 430 432 458 90 425 660 431 655 544 
680 9 537 552 392 631 629 261 61 163 312 
681 9 166 345 620 77 375 444 318 579 515 
682 9 602 176 48 456 145 584 336 353 686 
683 9 475 226 139 280 597 352 565 654 291 
684 8 621 266 201 62 47 276 330 233 
685 4 632 428 103 163 
686 9 145 663 104 48 336 562 626 389 456 
687 9 238 149 374 84 113 8 275 232 487 
688 6 10 675 667 592 219 398 
689 9 585 19 343 31 190 577 54 136 156 
690 7 691 250 664 14 502 207 578 
691 5 690 250 664 14 207 
692 8 272 394 355 110 91 244 359 532 
693 8 366 233 187 406 361 47 497 462 
694 9 397 553 246 533 75 35 127 413 405 
DEPOT_SECTION
   1
   -1
EOF
