NAME :  X-n749-kX-w299-c9.cctp
COMMENT : 	Adapted by Maziero, Usberti and Cavellucci from the Uchoa, Pecin, Pessoa, Poggi, Subramanian, and Vidal (2013)
TYPE :  CCTP
DIMENSION :    749
EDGE_WEIGHT_TYPE : 	EUC_2D	
CAPACITY : 	396
VERTICES_WITHIN_COVERAGE :  9
VERTICES_WITH_DEMAND : 	299
NODE_COORD_SECTION
1 643 512
2 707 407
3 394 355
4 140 470
5 364 215
6 493 857
7 117 466
8 462 38
9 551 479
10 545 460
11 423 274
12 440 602
13 525 357
14 574 994
15 387 377
16 583 424
17 16 481
18 615 427
19 511 799
20 110 518
21 223 506
22 163 520
23 834 419
24 442 482
25 42 547
26 478 421
27 372 108
28 320 252
29 731 372
30 341 234
31 787 331
32 433 254
33 555 397
34 640 350
35 565 185
36 320 196
37 64 374
38 283 411
39 46 582
40 328 453
41 779 448
42 602 152
43 466 934
44 280 317
45 403 425
46 482 80
47 504 575
48 649 348
49 388 331
50 518 731
51 550 364
52 745 421
53 384 205
54 236 226
55 602 498
56 670 80
57 380 177
58 135 333
59 594 841
60 189 250
61 682 470
62 515 19
63 311 39
64 398 363
65 217 615
66 530 879
67 410 679
68 382 240
69 146 456
70 543 339
71 316 436
72 397 382
73 507 783
74 436 314
75 88 469
76 127 428
77 158 431
78 639 444
79 722 341
80 121 445
81 470 876
82 452 69
83 82 446
84 353 318
85 220 551
86 534 495
87 502 5
88 411 463
89 338 218
90 282 593
91 457 514
92 321 215
93 363 948
94 524 256
95 642 783
96 722 576
97 265 503
98 113 541
99 638 920
100 523 805
101 722 444
102 364 408
103 310 484
104 519 392
105 240 338
106 662 429
107 603 451
108 336 290
109 759 337
110 64 496
111 490 148
112 297 386
113 167 488
114 402 351
115 424 152
116 472 108
117 580 538
118 157 385
119 695 410
120 104 462
121 404 98
122 114 450
123 456 111
124 756 305
125 446 59
126 711 772
127 86 489
128 557 516
129 440 70
130 44 553
131 618 456
132 404 261
133 460 908
134 542 837
135 379 268
136 633 383
137 331 210
138 706 444
139 570 378
140 218 347
141 47 445
142 514 367
143 175 505
144 198 390
145 586 552
146 386 95
147 855 567
148 734 396
149 301 140
150 93 530
151 791 501
152 417 932
153 389 341
154 479 232
155 527 829
156 378 185
157 447 23
158 665 479
159 306 896
160 527 14
161 517 904
162 441 419
163 325 83
164 766 356
165 213 449
166 337 208
167 62 529
168 523 506
169 470 121
170 510 286
171 620 439
172 79 545
173 426 246
174 335 881
175 772 362
176 486 62
177 156 404
178 418 385
179 393 293
180 511 494
181 650 348
182 830 577
183 271 262
184 411 558
185 691 255
186 646 356
187 696 414
188 728 486
189 445 131
190 123 427
191 832 697
192 452 828
193 373 318
194 502 188
195 202 424
196 424 669
197 37 391
198 527 551
199 467 76
200 47 399
201 519 673
202 177 563
203 694 337
204 123 536
205 451 780
206 432 394
207 379 160
208 343 284
209 661 442
210 513 508
211 545 767
212 109 240
213 512 821
214 398 332
215 178 479
216 604 453
217 446 505
218 662 382
219 98 478
220 619 86
221 516 265
222 138 412
223 440 331
224 111 379
225 313 75
226 391 814
227 378 124
228 345 109
229 140 505
230 369 214
231 411 92
232 471 938
233 295 494
234 406 535
235 674 546
236 507 9
237 337 217
238 557 465
239 694 200
240 143 453
241 488 429
242 68 566
243 594 723
244 397 360
245 671 843
246 801 435
247 142 482
248 323 793
249 6 644
250 515 950
251 119 570
252 367 377
253 147 488
254 414 917
255 339 119
256 108 87
257 96 431
258 666 440
259 605 490
260 575 507
261 532 463
262 691 613
263 115 540
264 202 497
265 48 487
266 452 152
267 518 830
268 45 426
269 5 557
270 473 812
271 655 506
272 571 78
273 98 491
274 468 325
275 452 156
276 65 509
277 493 503
278 128 283
279 439 366
280 542 852
281 722 697
282 327 183
283 689 497
284 643 790
285 87 460
286 518 247
287 595 425
288 329 840
289 345 290
290 69 439
291 358 159
292 121 388
293 719 414
294 577 932
295 644 669
296 487 810
297 456 549
298 419 419
299 220 574
300 396 468
301 527 214
302 458 24
303 527 678
304 91 444
305 634 503
306 355 117
307 660 435
308 149 516
309 121 467
310 365 233
311 564 673
312 643 335
313 948 666
314 594 567
315 368 64
316 448 908
317 470 869
318 305 267
319 354 303
320 469 868
321 582 349
322 727 340
323 735 436
324 460 476
325 715 554
326 461 906
327 179 434
328 498 36
329 456 827
330 304 429
331 367 144
332 212 389
333 479 327
334 188 416
335 604 443
336 558 409
337 489 275
338 371 88
339 513 866
340 77 520
341 388 135
342 322 335
343 277 459
344 412 274
345 629 454
346 187 463
347 403 56
348 537 411
349 693 319
350 603 794
351 371 214
352 506 171
353 98 529
354 476 2
355 404 102
356 415 273
357 646 464
358 578 488
359 404 330
360 80 541
361 512 538
362 13 417
363 109 606
364 482 173
365 654 46
366 14 285
367 483 231
368 501 824
369 95 565
370 526 585
371 664 331
372 56 415
373 560 452
374 398 275
375 388 344
376 350 350
377 148 546
378 419 366
379 37 552
380 510 758
381 154 358
382 588 23
383 317 496
384 335 338
385 610 553
386 101 531
387 597 86
388 123 393
389 682 434
390 779 374
391 118 357
392 478 137
393 458 252
394 496 396
395 235 313
396 725 432
397 492 69
398 443 349
399 429 390
400 443 58
401 596 262
402 340 304
403 361 281
404 358 258
405 289 187
406 313 208
407 497 189
408 297 425
409 443 516
410 543 458
411 797 465
412 513 45
413 416 336
414 564 201
415 435 16
416 357 400
417 537 509
418 364 62
419 709 500
420 539 440
421 179 201
422 492 865
423 429 5
424 126 408
425 667 984
426 265 491
427 541 338
428 399 351
429 100 480
430 327 163
431 678 434
432 173 106
433 438 63
434 327 276
435 98 557
436 346 168
437 135 440
438 386 214
439 345 84
440 79 687
441 516 484
442 773 468
443 244 603
444 45 401
445 87 537
446 261 108
447 390 262
448 451 812
449 384 935
450 448 83
451 515 532
452 489 973
453 657 919
454 338 317
455 114 522
456 334 393
457 293 326
458 648 460
459 420 336
460 393 348
461 334 288
462 672 434
463 177 517
464 350 158
465 643 781
466 514 33
467 662 863
468 254 350
469 402 378
470 332 925
471 710 395
472 388 325
473 256 400
474 207 297
475 532 516
476 800 371
477 64 440
478 574 924
479 398 75
480 509 86
481 455 472
482 478 223
483 31 603
484 120 491
485 141 450
486 468 101
487 268 677
488 85 472
489 387 214
490 426 270
491 381 324
492 178 485
493 457 865
494 562 354
495 567 453
496 640 442
497 413 912
498 403 427
499 523 918
500 348 343
501 389 370
502 453 486
503 573 379
504 191 580
505 666 551
506 423 683
507 319 275
508 612 413
509 459 44
510 683 490
511 786 466
512 428 878
513 596 138
514 473 859
515 592 373
516 381 210
517 127 314
518 716 359
519 384 243
520 93 482
521 760 471
522 194 604
523 377 303
524 768 315
525 727 512
526 421 623
527 109 807
528 409 79
529 55 365
530 508 407
531 399 120
532 729 403
533 197 490
534 492 445
535 338 393
536 146 443
537 241 369
538 641 437
539 716 603
540 646 486
541 598 569
542 132 542
543 384 384
544 617 237
545 609 513
546 449 444
547 808 393
548 626 449
549 773 960
550 670 376
551 777 492
552 146 551
553 449 809
554 828 575
555 360 508
556 94 660
557 473 382
558 470 821
559 434 322
560 763 520
561 170 460
562 354 262
563 44 445
564 301 175
565 717 388
566 123 484
567 843 415
568 69 466
569 796 452
570 332 777
571 413 237
572 351 384
573 721 522
574 821 294
575 185 440
576 396 325
577 272 191
578 419 258
579 391 760
580 515 18
581 637 988
582 876 412
583 327 110
584 90 512
585 630 373
586 680 354
587 224 510
588 564 151
589 528 173
590 474 967
591 414 347
592 135 481
593 455 897
594 453 24
595 332 558
596 516 867
597 562 814
598 418 933
599 148 784
600 511 480
601 551 776
602 725 450
603 641 263
604 469 558
605 101 446
606 43 517
607 517 138
608 123 383
609 567 415
610 399 115
611 99 504
612 209 156
613 724 617
614 570 935
615 664 488
616 479 56
617 432 59
618 755 709
619 649 209
620 351 149
621 387 178
622 80 463
623 360 169
624 541 838
625 640 488
626 298 260
627 287 721
628 382 315
629 659 867
630 322 258
631 205 652
632 616 354
633 218 21
634 529 714
635 828 384
636 630 396
637 374 408
638 558 250
639 331 335
640 477 75
641 43 364
642 404 366
643 590 632
644 526 74
645 353 335
646 571 270
647 83 360
648 459 934
649 196 555
650 202 337
651 200 385
652 123 437
653 682 409
654 409 376
655 476 39
656 461 174
657 531 448
658 467 127
659 566 402
660 549 831
661 379 273
662 133 461
663 469 68
664 302 430
665 66 510
666 517 292
667 557 57
668 380 411
669 89 524
670 544 311
671 429 219
672 539 887
673 498 861
674 451 15
675 445 659
676 400 240
677 298 186
678 437 355
679 250 655
680 534 558
681 456 479
682 506 804
683 148 404
684 308 962
685 296 419
686 368 320
687 466 505
688 388 190
689 577 164
690 417 375
691 535 830
692 784 347
693 435 53
694 393 173
695 520 751
696 611 658
697 644 335
698 683 655
699 111 557
700 453 44
701 215 464
702 416 198
703 491 848
704 261 548
705 334 468
706 558 308
707 180 394
708 535 942
709 656 628
710 446 325
711 647 503
712 624 371
713 271 71
714 364 389
715 468 103
716 217 249
717 550 410
718 339 322
719 532 826
720 96 395
721 543 380
722 30 452
723 60 500
724 357 65
725 358 152
726 577 491
727 718 433
728 232 501
729 346 235
730 358 411
731 663 543
732 459 113
733 49 567
734 436 854
735 136 439
736 765 305
737 529 87
738 130 452
739 490 841
740 592 865
741 283 390
742 357 323
743 323 281
744 533 53
745 746 699
746 358 957
747 400 325
748 150 462
749 395 247
DEMAND_SECTION
2 86
3 42
4 29
5 22
6 21
7 61
8 22
9 12
10 72
11 71
12 28
13 16
14 14
15 4
16 74
17 64
18 40
19 38
20 64
21 46
22 65
23 82
24 99
25 65
26 53
27 1
28 13
29 29
30 68
31 64
32 37
33 52
34 47
35 7
36 86
37 88
38 9
39 36
40 80
41 91
42 75
43 42
44 75
45 94
46 23
47 48
48 33
49 22
50 63
51 80
52 6
53 21
54 39
55 61
56 55
57 15
58 56
59 35
60 86
61 93
62 32
63 5
64 15
65 14
66 71
67 10
68 57
69 39
70 70
71 19
72 40
73 90
74 42
75 48
76 43
77 35
78 68
79 9
80 63
81 92
82 76
83 79
84 100
85 63
86 37
87 94
88 76
89 93
90 99
91 73
92 68
93 53
94 33
95 59
96 79
97 45
98 10
99 91
100 20
101 39
102 6
103 100
104 29
105 26
106 24
107 29
108 9
109 5
110 52
111 79
112 92
113 89
114 30
115 76
116 25
117 38
118 62
119 71
120 90
121 15
122 35
123 57
124 38
125 74
126 75
127 17
128 55
129 62
130 18
131 89
132 52
133 55
134 20
135 70
136 76
137 13
138 77
139 26
140 52
141 69
142 77
143 48
144 48
145 29
146 80
147 12
148 59
149 11
150 18
151 82
152 27
153 97
154 18
155 28
156 74
157 23
158 60
159 69
160 73
161 80
162 48
163 47
164 32
165 51
166 17
167 20
168 9
169 68
170 52
171 80
172 51
173 93
174 48
175 6
176 60
177 29
178 79
179 27
180 80
181 48
182 6
183 18
184 13
185 54
186 99
187 26
188 54
189 64
190 91
191 7
192 61
193 15
194 54
195 5
196 39
197 95
198 98
199 40
200 55
201 6
202 3
203 32
204 82
205 43
206 66
207 46
208 55
209 2
210 79
211 62
212 67
213 14
214 31
215 70
216 77
217 2
218 33
219 91
220 56
221 64
222 73
223 21
224 46
225 81
226 87
227 3
228 49
229 51
230 68
231 21
232 44
233 43
234 84
235 21
236 25
237 84
238 36
239 56
240 62
241 66
242 34
243 58
244 96
245 76
246 96
247 28
248 48
249 56
250 73
251 64
252 59
253 88
254 7
255 1
256 57
257 96
258 2
259 82
260 42
261 85
262 28
263 54
264 3
265 94
266 46
267 89
268 57
269 82
270 61
271 29
272 9
273 35
274 98
275 55
276 47
277 98
278 3
279 83
280 53
281 33
282 71
283 87
284 40
285 1
286 97
287 38
288 22
289 74
290 52
291 82
292 96
293 62
294 83
295 28
296 61
297 75
298 44
299 76
300 56
COVERAGE_SECTION
2 9 119 471 187 293 565 532 653 727 148 
3 9 244 428 460 64 114 375 153 642 501 
4 9 662 247 592 748 69 240 253 309 485 
5 9 230 351 310 516 53 438 489 89 237 
6 9 673 422 703 739 514 339 596 317 320 
7 9 309 120 122 662 566 738 80 219 429 
8 9 509 700 655 302 594 157 616 674 125 
9 9 238 10 410 86 261 358 373 726 495 
10 9 410 238 261 373 657 9 420 495 86 
11 9 490 356 344 578 32 132 374 173 447 
12 9 526 184 604 297 675 47 196 234 67 
13 9 142 70 427 51 721 104 494 394 33 
14 9 614 294 581 708 478 250 452 499 425 
15 9 501 543 72 469 64 244 252 642 654 
16 9 287 609 335 659 336 508 18 495 107 
17 9 722 265 606 563 141 723 110 568 276 
18 9 171 508 335 287 548 107 216 538 78 
19 9 682 100 73 213 296 368 267 155 719 
20 9 455 353 386 611 150 584 204 669 98 
21 9 587 728 264 533 97 701 85 426 463 
22 9 463 308 143 229 377 113 552 253 492 
23 9 567 635 246 547 582 569 411 476 41 
24 9 502 681 481 324 217 687 409 91 88 
25 9 130 379 733 167 606 242 39 172 269 
26 9 241 534 394 530 162 546 557 104 206 
27 9 227 146 306 338 228 610 531 341 355 
28 9 630 318 507 626 434 30 743 729 562 
29 9 518 565 148 471 532 79 322 164 2 
30 9 729 89 237 310 137 166 28 92 404 
31 9 692 524 109 164 175 736 124 476 390 
32 9 173 578 490 11 393 356 571 344 132 
33 9 336 659 717 721 609 348 139 503 51 
34 9 186 48 181 312 697 632 585 712 371 
35 9 414 689 588 589 301 42 513 352 194 
36 9 406 282 137 92 166 677 237 89 564 
37 9 529 641 647 200 197 444 720 372 224 
38 9 685 408 741 664 330 112 473 71 343 
39 9 733 483 242 130 379 25 269 172 369 
40 9 705 71 330 664 103 408 383 685 343 
41 9 569 511 442 411 246 521 52 551 323 
42 9 513 689 588 35 414 387 220 619 589 
43 9 232 648 133 326 316 590 593 452 598 
44 9 457 468 105 395 342 639 183 318 743 
45 9 498 298 668 637 162 88 206 72 102 
46 9 640 397 199 176 663 616 486 715 480 
47 9 370 198 680 361 604 451 297 475 210 
48 9 181 34 186 312 697 371 585 586 632 
49 9 472 153 214 491 576 375 747 359 628 
50 9 634 695 380 211 73 303 601 201 19 
51 9 494 721 139 13 70 503 427 33 321 
52 9 323 396 532 148 293 727 101 602 2 
53 9 516 438 489 351 688 230 156 5 621 
54 9 716 183 577 60 421 405 626 677 612 
55 9 259 545 358 726 260 305 625 131 216 
56 9 365 220 387 513 42 272 382 667 239 
57 9 621 156 694 688 207 623 53 291 516 
58 9 517 391 381 278 608 224 118 292 647 
59 9 740 597 660 350 134 280 624 691 719 
60 9 716 421 474 54 278 395 212 183 650 
61 9 158 510 615 283 258 138 209 458 357 
62 9 580 160 236 466 87 328 412 744 354 
63 9 225 163 713 724 439 418 315 583 338 
64 9 244 642 3 501 428 114 460 469 654 
65 9 522 443 631 299 504 679 85 649 202 
66 9 672 596 339 161 280 673 422 499 624 
67 9 506 196 675 526 12 579 201 205 303 
68 9 519 749 310 676 447 438 489 135 351 
69 9 240 748 485 536 662 4 738 437 735 
70 9 427 494 13 51 670 706 142 321 721 
71 9 330 664 40 408 685 705 38 343 456 
72 9 469 15 543 654 501 642 64 178 690 
73 9 19 682 380 100 296 695 213 211 368 
74 9 559 710 223 459 413 274 359 398 747 
75 9 488 285 622 219 520 429 120 568 127 
76 9 190 652 437 735 80 222 424 536 738 
77 9 536 327 735 437 485 177 240 69 222 
78 9 496 538 345 548 458 171 357 209 307 
79 9 322 518 203 29 349 109 586 164 565 
80 9 652 122 738 437 735 76 190 605 662 
81 9 317 320 493 514 422 593 6 326 673 
82 9 125 129 400 433 450 199 663 617 693 
83 9 304 285 290 622 477 605 257 75 568 
84 9 742 319 454 686 718 645 402 193 500 
85 9 299 649 504 587 704 21 202 728 463 
86 9 417 168 441 475 9 180 210 600 128 
87 9 236 580 62 354 160 466 328 412 655 
88 9 300 24 498 45 546 298 481 502 681 
89 9 237 166 137 30 92 729 5 406 36 
90 9 443 704 595 299 65 679 85 487 522 
91 9 687 217 409 502 24 297 681 277 324 
92 9 137 406 237 89 166 36 30 729 282 
93 9 746 449 470 152 598 684 254 497 174 
94 9 286 221 170 638 666 337 301 367 646 
95 9 465 284 350 245 126 59 243 467 597 
96 9 325 539 613 262 573 235 505 525 731 
97 9 426 233 728 21 587 704 343 103 383 
98 9 263 204 386 699 353 455 542 435 20 
99 9 453 629 294 467 478 581 425 614 740 
100 9 19 682 213 719 155 267 73 691 368 
101 9 602 396 727 323 138 293 52 2 187 
102 9 730 637 416 668 714 572 535 252 543 
103 9 383 233 705 40 343 426 71 97 330 
104 9 530 394 142 348 721 13 33 717 51 
105 9 468 140 395 537 650 44 474 457 332 
106 9 307 462 258 209 431 389 538 496 78 
107 9 216 335 131 171 548 345 18 287 16 
108 9 461 208 289 402 743 434 319 507 403 
109 9 164 524 692 175 31 124 322 736 79 
110 9 723 276 665 265 127 340 568 606 584 
111 9 392 364 352 607 658 169 266 275 656 
112 9 741 38 685 456 408 535 473 330 664 
113 9 492 215 143 253 247 561 533 463 748 
114 9 428 3 460 244 64 591 642 153 375 
115 9 266 275 189 694 341 531 656 610 621 
116 9 715 486 169 732 123 658 46 392 199 
117 9 145 260 128 314 385 541 545 55 726 
118 9 177 683 707 381 222 608 388 292 424 
119 9 187 2 653 471 293 389 431 565 462 
120 9 7 122 605 75 219 285 309 429 488 
121 9 355 231 146 610 528 531 479 27 338 
122 9 80 605 7 120 652 738 309 662 437 
123 9 732 715 116 486 169 658 189 450 392 
124 9 736 524 109 31 322 79 692 164 175 
125 9 400 433 82 129 693 617 700 509 450 
126 9 465 95 284 281 618 245 745 467 629 
127 9 520 273 219 429 488 75 611 110 584 
128 9 260 417 475 86 117 726 168 358 9 
129 9 433 82 400 125 617 450 693 199 663 
130 9 25 379 733 242 39 167 172 606 360 
131 9 345 548 216 107 171 335 78 496 18 
132 9 447 344 374 578 356 749 676 11 490 
133 9 326 316 593 648 43 232 81 317 320 
134 9 624 660 691 280 719 155 267 597 213 
135 9 661 447 374 403 404 519 132 562 749 
136 9 585 636 712 218 186 34 632 508 48 
137 9 166 237 89 92 36 406 30 282 729 
138 9 101 727 602 396 389 323 431 187 293 
139 9 503 515 33 51 659 494 721 321 336 
140 9 650 105 537 468 395 332 651 144 474 
141 9 563 477 722 268 290 568 372 83 622 
142 9 13 104 721 394 51 70 427 530 557 
143 9 463 22 113 492 215 533 264 308 253 
144 9 651 332 707 334 195 118 177 140 327 
145 9 117 314 541 385 545 128 260 680 55 
146 9 338 121 27 355 479 610 231 528 531 
147 9 182 554 151 560 551 411 511 442 569 
148 9 532 565 293 29 471 52 2 396 323 
149 9 430 564 583 255 677 405 282 446 620 
150 9 353 669 386 445 360 584 340 20 172 
151 9 551 560 511 411 442 521 569 41 188 
152 9 598 254 497 449 316 648 43 133 326 
153 9 375 460 49 214 428 3 114 472 576 
154 9 367 482 393 286 337 407 194 221 32 
155 9 719 691 267 134 213 624 660 100 368 
156 9 57 621 688 694 53 623 207 516 230 
157 9 594 674 302 415 8 700 509 423 693 
158 9 615 61 540 510 357 458 625 271 283 
159 9 174 470 288 684 93 746 449 248 497 
160 9 62 580 236 466 87 412 328 744 354 
161 9 499 66 672 596 339 708 250 422 673 
162 9 298 546 206 399 26 45 498 178 241 
163 9 225 439 583 228 724 255 418 306 63 
164 9 175 109 692 390 31 476 29 524 322 
165 9 701 195 575 346 327 334 533 561 215 
166 9 137 237 89 92 36 406 30 282 5 
167 9 340 665 276 360 606 172 445 25 669 
168 9 210 475 417 86 180 441 451 600 277 
169 9 658 116 732 123 392 715 486 189 111 
170 9 666 221 337 94 286 670 333 706 274 
171 9 548 18 335 131 345 78 496 107 216 
172 9 360 445 150 435 167 669 242 340 353 
173 9 32 578 571 490 132 671 676 11 356 
174 9 159 288 470 93 449 746 497 684 226 
175 9 164 390 692 109 476 31 29 524 547 
176 9 397 616 640 46 663 199 655 328 412 
177 9 683 118 222 707 77 424 334 388 76 
178 9 690 399 654 206 469 378 72 642 279 
179 9 374 523 661 628 344 135 356 447 193 
180 9 441 210 600 168 277 86 417 475 261 
181 9 48 186 34 697 312 371 586 585 550 
182 9 554 147 151 560 551 96 613 325 411 
183 9 626 318 28 54 507 630 743 44 716 
184 9 234 297 12 409 604 91 217 526 555 
185 9 603 239 619 349 544 371 124 203 736 
186 9 34 48 181 312 697 585 712 136 632 
187 9 119 2 653 293 389 471 431 727 462 
188 9 419 525 521 602 573 283 101 510 138 
189 9 266 658 123 732 275 169 115 392 116 
190 9 76 652 80 437 735 424 222 122 738 
191 9 618 745 281 182 313 554 147 613 126 
192 9 329 448 553 558 270 734 493 514 296 
193 9 686 628 491 523 472 742 49 84 319 
194 9 407 352 364 589 301 111 482 656 367 
195 9 334 575 327 165 144 332 707 651 346 
196 9 506 67 675 526 12 201 579 303 184 
197 9 200 444 641 372 37 529 362 268 563 
198 9 680 361 451 47 370 475 417 168 210 
199 9 663 640 46 82 450 616 176 486 397 
200 9 444 197 372 268 37 529 641 362 477 
201 9 303 634 311 50 675 695 643 380 370 
202 9 649 504 552 377 299 522 22 85 463 
203 9 349 586 79 371 518 322 181 48 550 
204 9 263 98 542 455 20 386 699 353 377 
205 9 553 448 270 558 296 329 192 73 682 
206 9 399 178 690 162 298 279 654 378 469 
207 9 57 694 331 621 291 623 725 156 341 
208 9 289 108 461 403 434 402 743 319 562 
209 9 258 307 106 462 431 496 538 78 389 
210 9 168 180 277 475 417 441 451 86 600 
211 9 601 695 380 73 100 50 19 597 682 
212 9 278 517 421 60 58 366 716 474 391 
213 9 267 368 155 682 100 719 19 691 296 
214 9 359 576 747 49 472 153 375 460 413 
215 9 492 113 346 561 533 143 264 253 748 
216 9 107 335 131 171 548 345 18 287 16 
217 9 409 91 502 687 24 681 324 481 297 
218 9 550 136 186 585 586 653 636 48 181 
219 9 429 520 75 273 488 127 120 285 7 
220 9 387 272 56 365 513 42 667 382 588 
221 9 94 286 170 666 337 638 367 154 301 
222 9 424 683 76 177 190 388 735 77 437 
223 9 710 559 74 398 459 678 413 274 591 
224 9 292 608 388 720 391 424 647 222 683 
225 9 163 439 63 583 713 724 228 255 418 
226 9 579 553 448 734 192 329 288 205 570 
227 9 341 27 531 331 610 306 146 355 725 
228 9 255 306 583 439 27 163 338 227 620 
229 9 308 253 247 484 592 22 566 455 113 
230 9 351 5 516 53 438 489 310 68 156 
231 9 121 355 528 479 146 610 531 129 347 
232 9 43 648 590 133 326 316 452 593 250 
233 9 103 383 426 97 343 705 40 71 728 
234 9 184 409 217 297 555 91 24 604 687 
235 9 505 731 325 271 283 711 573 96 510 
236 9 87 580 62 160 466 328 354 412 655 
237 9 89 137 166 92 30 729 406 5 36 
238 9 10 373 9 410 495 261 358 420 657 
239 9 619 185 603 544 42 401 513 349 56 
240 9 69 485 536 748 662 738 437 735 4 
241 9 26 534 530 394 546 657 104 162 557 
242 9 733 172 39 130 369 360 435 25 379 
243 9 311 211 634 696 601 350 295 50 465 
244 9 64 3 428 642 114 460 501 375 469 
245 9 467 629 284 95 465 59 453 126 740 
246 9 569 41 411 511 23 442 547 567 521 
247 9 592 253 4 566 748 229 662 484 69 
248 9 570 288 226 579 627 174 159 553 487 
249 9 483 39 440 269 733 556 379 130 242 
250 9 708 499 452 590 161 232 43 614 648 
251 9 699 369 435 98 263 542 552 204 363 
252 9 714 572 543 15 501 416 72 102 376 
253 9 247 592 229 4 113 566 748 484 308 
254 9 497 152 598 316 449 512 593 133 326 
255 9 228 583 306 620 27 439 331 725 163 
256 9 432 612 633 421 212 446 713 60 54 
257 9 304 605 83 122 190 290 652 80 285 
258 9 209 307 462 106 431 389 538 496 78 
259 9 55 545 358 726 305 260 625 131 216 
260 9 726 358 128 55 117 259 545 9 417 
261 9 410 10 657 420 9 238 441 600 373 
262 9 539 613 709 698 96 325 505 235 295 
263 9 98 204 386 542 699 455 353 20 150 
264 9 533 21 587 492 143 215 728 463 701 
265 9 110 723 276 665 568 606 17 127 722 
266 9 275 189 656 115 658 392 169 364 111 
267 9 155 213 719 691 368 624 100 134 682 
268 9 372 141 563 477 444 200 290 722 362 
269 9 379 25 130 733 39 483 606 167 242 
270 9 558 296 448 329 553 192 368 682 739 
271 9 711 615 305 540 625 158 510 283 731 
272 9 667 387 737 644 744 220 382 480 513 
273 9 520 429 127 219 611 484 584 488 75 
274 9 333 710 223 74 559 398 678 459 279 
275 9 266 656 189 115 392 658 364 111 169 
276 9 665 723 110 340 167 606 584 265 669 
277 9 180 210 687 600 168 441 451 91 361 
278 9 517 212 58 60 391 381 474 647 650 
279 9 678 398 378 690 399 178 206 591 654 
280 9 624 134 660 691 155 719 66 596 339 
281 9 745 618 698 126 613 295 262 539 709 
282 9 36 430 436 137 166 564 406 677 92 
283 9 510 419 615 61 158 271 188 525 573 
284 9 95 465 350 245 126 59 467 629 243 
285 9 622 75 488 83 304 120 568 605 219 
286 9 94 221 301 367 170 337 638 154 666 
287 9 16 18 335 508 107 171 216 609 659 
288 9 174 248 159 570 226 470 579 512 734 
289 9 208 108 461 402 319 403 434 743 454 
290 9 477 83 141 304 563 622 268 372 568 
291 9 725 464 623 620 436 331 207 57 430 
292 9 388 608 224 424 720 222 391 683 118 
293 9 2 532 396 727 471 148 187 119 565 
294 9 614 478 708 499 672 14 99 250 161 
295 9 696 698 709 643 262 243 311 281 613 
296 9 270 368 558 682 19 213 739 73 329 
297 9 604 91 409 217 687 184 234 12 47 
298 9 45 498 162 206 399 178 546 668 72 
299 9 85 504 649 443 522 65 202 704 587 
300 9 88 498 45 24 298 555 546 481 668 
301 9 286 194 407 414 589 94 367 35 352 
302 9 594 157 674 8 509 700 655 415 354 
303 9 201 634 311 50 695 643 243 380 675 
304 9 83 605 257 285 120 622 290 122 75 
305 9 711 625 271 540 545 55 259 615 158 
306 9 228 255 27 227 583 331 620 338 439 
307 9 106 209 258 462 431 538 496 389 78 
308 9 229 22 143 253 463 377 542 113 204 
309 9 7 662 566 738 120 122 4 592 80 
310 9 5 68 230 729 351 519 30 404 438 
311 9 303 201 643 696 634 243 50 295 695 
312 9 697 48 34 181 186 371 632 585 712 
313 9 191 147 182 554 618 745 151 281 613 
314 9 541 145 385 117 545 680 128 260 643 
315 9 418 724 338 439 479 146 347 27 528 
316 9 133 326 593 648 43 254 497 512 232 
317 9 320 81 514 493 422 6 673 703 593 
318 9 626 507 630 28 743 434 183 461 108 
319 9 402 84 289 742 454 108 208 686 403 
320 9 317 81 514 493 422 6 673 703 593 
321 9 494 515 139 503 632 51 70 427 712 
322 9 79 518 29 109 203 349 164 124 524 
323 9 396 101 602 727 52 293 138 532 2 
324 9 681 481 502 24 687 217 546 91 277 
325 9 96 573 235 525 505 539 731 419 560 
326 9 133 593 316 43 648 81 232 317 320 
327 9 575 334 77 195 561 346 536 165 177 
328 9 466 412 655 62 580 236 616 176 87 
329 9 192 558 448 553 270 734 296 514 739 
330 9 664 408 685 71 38 40 343 112 741 
331 9 725 291 620 207 464 227 341 623 306 
332 9 651 144 707 537 195 334 140 473 650 
333 9 274 710 223 398 74 559 678 170 666 
334 9 195 327 707 575 144 651 77 177 332 
335 9 107 216 171 18 131 287 548 345 16 
336 9 717 609 659 33 348 16 139 721 503 
337 9 170 221 666 393 94 286 154 367 333 
338 9 146 27 315 439 418 724 479 228 306 
339 9 596 673 66 422 6 703 280 672 739 
340 9 669 584 665 276 167 150 445 360 353 
341 9 227 531 331 610 207 27 725 355 291 
342 9 639 384 718 454 500 457 645 376 84 
343 9 426 664 233 408 330 103 685 71 97 
344 9 356 11 374 132 490 578 447 179 32 
345 9 548 131 78 496 171 357 458 538 216 
346 9 561 215 575 492 701 533 165 327 113 
347 9 479 528 617 693 315 433 231 418 129 
348 9 717 336 33 104 420 530 609 659 721 
349 9 203 371 79 586 322 518 181 312 697 
350 9 284 95 465 597 59 601 211 660 243 
351 9 230 5 516 438 53 489 310 68 688 
352 9 194 407 589 364 111 607 392 656 301 
353 9 386 150 669 445 20 455 98 584 263 
354 9 87 302 674 236 594 157 655 8 328 
355 9 121 231 610 146 531 528 479 27 227 
356 9 344 11 490 132 578 374 32 447 173 
357 9 458 345 78 540 496 158 548 625 209 
358 9 726 260 55 259 9 238 128 495 373 
359 9 214 747 576 413 49 459 472 153 591 
360 9 172 445 150 669 340 167 353 386 435 
361 9 451 198 210 475 680 168 47 417 277 
362 9 268 197 444 200 722 563 372 141 477 
363 9 251 369 699 435 556 242 98 263 552 
364 9 656 407 352 194 111 275 392 266 589 
365 9 56 220 382 387 272 667 513 42 744 
366 9 641 529 37 647 212 197 278 517 200 
367 9 154 482 393 286 337 407 194 221 301 
368 9 213 267 296 739 682 155 703 19 100 
369 9 435 699 251 172 242 360 445 98 263 
370 9 47 680 198 361 451 604 145 475 314 
371 9 697 312 181 48 586 34 186 203 349 
372 9 268 200 444 477 290 141 197 563 83 
373 9 495 238 10 410 420 9 657 261 16 
374 9 344 132 447 356 179 661 135 11 578 
375 9 153 460 3 49 428 114 214 244 472 
376 9 500 645 384 639 742 718 84 252 342 
377 9 552 542 204 22 308 202 263 98 251 
378 9 690 654 642 178 279 591 64 469 678 
379 9 25 130 733 39 269 167 242 606 172 
380 9 695 73 50 211 19 601 682 634 100 
381 9 118 58 391 608 707 292 177 683 388 
382 9 667 272 160 744 387 220 365 62 580 
383 9 103 233 705 40 555 97 426 343 71 
384 9 639 342 500 718 645 376 454 84 742 
385 9 541 314 145 117 545 731 305 55 505 
386 9 353 150 669 445 20 98 455 263 584 
387 9 220 272 667 513 382 42 737 365 644 
388 9 292 608 424 224 222 683 720 190 76 
389 9 431 462 258 106 209 307 187 653 138 
390 9 175 476 164 692 547 109 31 29 148 
391 9 224 608 58 292 647 381 388 517 720 
392 9 658 111 169 116 266 732 275 123 189 
393 9 32 154 173 367 482 490 337 578 11 
394 9 530 104 557 26 142 241 348 13 534 
395 9 105 474 140 650 468 44 537 457 183 
396 9 727 323 101 602 293 138 52 532 2 
397 9 176 46 640 616 663 480 199 412 328 
398 9 678 279 223 710 459 559 378 591 413 
399 9 206 178 690 654 279 378 469 162 298 
400 9 125 433 693 617 129 82 700 509 450 
401 9 646 544 638 603 706 414 670 94 619 
402 9 454 319 108 289 461 718 84 208 742 
403 9 208 289 562 661 135 319 404 108 523 
404 9 562 135 403 310 661 729 30 68 208 
405 9 677 564 577 36 406 282 92 430 137 
406 9 92 36 137 166 237 89 677 282 405 
407 9 194 352 364 589 301 482 656 111 367 
408 9 685 664 330 38 71 741 112 343 40 
409 9 217 91 687 502 24 297 681 234 324 
410 9 10 261 238 657 373 420 9 495 441 
411 9 511 569 442 41 246 551 151 521 23 
412 9 466 328 744 62 580 176 397 644 160 
413 9 459 591 359 214 747 114 428 559 576 
414 9 35 301 689 589 638 588 42 194 544 
415 9 423 157 674 594 302 700 8 509 693 
416 9 102 730 714 572 637 535 456 252 668 
417 9 475 86 168 128 210 180 451 9 441 
418 9 315 724 338 439 479 347 146 163 27 
419 9 283 525 188 573 510 61 615 158 602 
420 9 657 410 10 261 373 348 238 495 717 
421 9 60 612 716 54 212 577 432 278 474 
422 9 673 6 703 514 339 317 320 596 739 
423 9 415 674 157 594 302 700 8 354 693 
424 9 222 388 190 76 292 683 608 652 177 
425 9 581 453 99 14 294 549 614 478 629 
426 9 97 233 343 728 21 587 103 383 701 
427 9 70 13 494 670 51 706 142 321 721 
428 9 114 3 460 244 64 375 153 591 642 
429 9 219 520 273 75 127 488 120 7 484 
430 9 282 436 464 620 564 291 725 36 623 
431 9 389 462 258 106 307 209 653 187 119 
432 9 612 256 446 421 633 713 577 149 54 
433 9 129 400 617 125 693 82 450 700 509 
434 9 743 507 461 108 208 630 289 318 28 
435 9 369 699 98 172 445 263 360 251 386 
436 9 464 623 291 430 620 725 282 331 207 
437 9 735 536 485 652 738 76 80 240 190 
438 9 489 516 53 351 230 5 688 68 310 
439 9 163 724 228 338 418 315 583 225 306 
440 9 556 249 363 483 39 599 242 369 251 
441 9 600 180 86 168 210 261 277 417 9 
442 9 511 521 41 411 551 569 151 246 188 
443 9 65 299 90 522 679 85 504 704 631 
444 9 200 197 372 268 37 362 529 641 477 
445 9 360 150 172 669 353 386 340 435 584 
446 9 713 149 225 583 163 612 564 255 228 
447 9 135 132 374 661 749 519 68 676 344 
448 9 553 192 329 558 270 205 296 734 739 
449 9 93 152 598 746 254 497 470 316 512 
450 9 82 129 199 433 125 400 663 486 715 
451 9 361 198 475 210 168 417 680 277 180 
452 9 590 250 232 43 648 708 499 133 326 
453 9 99 629 467 425 581 245 294 478 740 
454 9 718 402 84 639 742 319 384 645 342 
455 9 20 386 204 353 263 98 150 611 669 
456 9 535 572 416 714 730 102 252 112 637 
457 9 44 342 639 384 454 468 718 402 105 
458 9 357 78 345 496 209 538 158 548 540 
459 9 413 591 359 559 223 214 114 747 678 
460 9 375 3 428 153 114 244 64 214 49 
461 9 108 208 289 743 434 402 507 319 403 
462 9 431 258 389 106 307 209 653 187 538 
463 9 143 22 308 113 264 492 533 215 229 
464 9 291 620 725 436 623 331 430 207 282 
465 9 95 284 350 245 126 243 59 467 597 
466 9 412 62 580 328 160 236 744 87 655 
467 9 629 245 453 99 740 59 284 95 465 
468 9 105 537 140 44 395 457 741 473 650 
469 9 72 654 642 15 501 690 64 178 244 
470 9 93 159 746 174 684 449 254 497 152 
471 9 565 2 119 293 532 148 187 29 653 
472 9 49 491 576 214 628 747 153 193 359 
473 9 38 741 537 112 685 332 408 468 664 
474 9 395 650 716 60 140 105 468 183 44 
475 9 417 168 86 210 451 128 180 361 198 
476 9 390 547 175 692 635 164 31 109 23 
477 9 290 141 83 563 268 372 568 304 622 
478 9 294 614 708 499 672 161 740 66 99 
479 9 528 347 231 146 121 355 338 315 418 
480 9 737 644 397 46 176 640 412 744 616 
481 9 324 681 502 24 546 217 687 91 88 
482 9 154 367 393 407 194 286 671 301 364 
483 9 39 733 249 379 130 242 269 25 369 
484 9 566 592 273 429 229 247 309 7 611 
485 9 240 69 536 738 437 735 662 748 4 
486 9 715 116 732 123 169 46 199 658 450 
487 9 679 627 631 443 65 90 522 299 570 
488 9 75 622 285 520 219 127 429 568 120 
489 9 438 516 53 351 230 5 688 68 310 
490 9 11 356 578 344 32 132 173 374 571 
491 9 472 628 49 193 686 576 153 214 747 
492 9 215 113 143 533 346 561 264 253 463 
493 9 320 317 81 514 734 512 593 422 6 
494 9 51 321 70 139 427 503 721 515 13 
495 9 373 238 10 410 9 420 16 107 261 
496 9 78 538 345 548 171 458 209 307 357 
497 9 254 152 598 316 449 512 593 133 326 
498 9 45 298 668 637 88 162 300 102 206 
499 9 161 708 250 672 66 614 478 596 339 
500 9 376 645 384 639 742 718 84 342 454 
501 9 15 64 244 72 469 543 3 642 428 
502 9 681 24 324 481 217 687 91 409 546 
503 9 139 515 659 33 51 494 721 321 336 
504 9 202 522 649 299 85 65 552 377 443 
505 9 235 731 271 325 711 385 305 283 96 
506 9 67 196 675 526 12 579 201 205 303 
507 9 743 434 318 630 461 28 108 208 626 
508 9 18 287 636 171 16 335 136 538 107 
509 9 700 8 655 125 302 400 594 616 157 
510 9 283 615 61 158 419 271 540 711 625 
511 9 411 442 569 41 521 551 246 151 323 
512 9 734 493 593 316 497 254 81 320 317 
513 9 42 689 588 387 35 220 272 414 589 
514 9 317 320 81 493 6 422 703 673 739 
515 9 503 139 321 632 712 494 585 659 136 
516 9 53 438 489 351 230 5 688 156 310 
517 9 58 278 391 381 647 224 608 292 212 
518 9 79 29 322 565 203 471 586 148 349 
519 9 68 749 676 447 310 135 132 438 489 
520 9 219 429 127 273 488 75 120 285 611 
521 9 442 511 551 41 188 411 569 602 151 
522 9 504 65 299 202 631 649 443 85 552 
523 9 628 193 179 686 491 319 472 403 84 
524 9 736 124 109 31 692 164 175 322 79 
525 9 573 419 188 560 283 325 510 521 551 
526 9 12 675 196 67 506 184 604 297 234 
527 9 599 440 556 631 249 627 363 487 679 
528 9 479 231 121 347 355 146 617 129 433 
529 9 641 37 647 197 200 444 372 720 224 
530 9 394 104 348 241 26 142 534 717 557 
531 9 610 341 355 227 121 146 27 231 331 
532 9 148 293 565 471 2 52 396 29 727 
533 9 264 492 215 143 346 113 21 701 463 
534 9 241 26 657 600 530 546 261 324 441 
535 9 456 572 416 714 730 102 252 637 112 
536 9 485 240 437 735 69 77 738 748 662 
537 9 468 105 140 473 332 651 741 144 650 
538 9 496 78 307 548 171 209 345 106 458 
539 9 613 262 96 325 698 709 235 505 731 
540 9 625 711 615 158 305 271 357 458 345 
541 9 314 385 145 117 545 643 680 260 128 
542 9 204 377 263 552 98 699 455 251 308 
543 9 15 72 501 252 469 714 64 637 654 
544 9 401 603 619 646 638 414 35 185 689 
545 9 55 259 305 260 117 711 726 358 385 
546 9 162 481 324 681 26 24 298 88 241 
547 9 635 476 390 23 567 246 175 692 164 
548 9 345 131 171 78 496 538 216 107 335 
549 9 425 453 581 99 467 629 245 126 294 
550 9 218 586 186 181 48 653 136 34 585 
551 9 151 442 521 511 560 411 41 569 188 
552 9 377 542 204 202 251 263 98 22 308 
553 9 448 192 329 270 558 205 296 734 739 
554 9 182 147 151 560 551 96 613 411 325 
555 9 383 705 234 300 103 595 40 233 88 
556 9 440 363 483 249 39 251 369 242 435 
557 9 394 279 26 206 530 142 398 399 678 
558 9 270 329 192 296 448 553 739 368 703 
559 9 74 223 710 459 413 398 359 591 678 
560 9 551 151 525 573 188 521 442 419 325 
561 9 346 748 215 69 575 492 113 240 327 
562 9 404 403 208 135 661 729 289 434 30 
563 9 141 722 268 477 290 372 568 83 622 
564 9 677 405 282 36 430 577 149 406 92 
565 9 471 148 532 2 29 293 518 119 187 
566 9 484 592 309 7 247 4 429 253 662 
567 9 23 582 635 547 246 569 476 411 41 
568 9 622 488 75 285 83 477 290 127 520 
569 9 411 41 511 246 442 521 551 151 23 
570 9 248 579 288 226 627 174 205 487 553 
571 9 676 173 749 578 671 32 132 519 68 
572 9 714 535 252 416 456 102 730 543 637 
573 9 525 419 325 188 283 560 510 235 96 
574 9 31 524 736 692 124 109 476 164 175 
575 9 327 195 346 334 561 77 165 701 536 
576 9 747 214 472 359 49 491 153 628 375 
577 9 405 677 564 406 36 54 92 282 149 
578 9 173 490 32 132 11 356 344 571 676 
579 9 226 570 205 248 553 448 67 506 192 
580 9 62 236 160 466 87 328 412 744 354 
581 9 425 14 99 453 294 614 478 708 629 
582 9 567 23 635 547 246 476 569 411 41 
583 9 255 228 163 306 439 225 149 27 620 
584 9 611 669 340 150 353 20 273 386 127 
585 9 712 136 186 636 632 34 48 181 218 
586 9 203 550 371 181 48 218 186 518 349 
587 9 21 728 264 533 85 97 426 701 463 
588 9 689 35 513 42 589 607 414 352 194 
589 9 352 194 407 607 35 301 588 111 364 
590 9 452 232 43 648 250 133 326 316 598 
591 9 413 114 459 428 359 378 244 460 642 
592 9 247 4 566 253 484 309 662 7 748 
593 9 326 133 316 81 317 320 493 512 648 
594 9 302 157 674 8 415 700 509 655 423 
595 9 555 90 383 704 233 103 234 184 97 
596 9 339 66 673 422 6 280 672 703 161 
597 9 660 134 691 624 719 155 100 601 59 
598 9 152 254 497 449 316 648 43 133 326 
599 9 527 440 556 631 627 487 679 248 363 
600 9 441 180 86 261 210 168 277 657 10 
601 9 211 100 597 695 73 380 19 682 719 
602 9 101 323 396 727 138 52 188 293 521 
603 9 544 401 185 619 646 312 371 697 349 
604 9 297 47 91 361 409 12 451 687 184 
605 9 304 122 120 257 83 80 285 652 7 
606 9 167 276 665 723 25 110 265 340 130 
607 9 111 352 589 392 364 588 169 658 194 
608 9 292 388 224 424 391 720 222 683 118 
609 9 336 659 16 717 33 287 348 503 139 
610 9 531 355 121 227 341 146 231 27 528 
611 9 584 273 20 127 669 455 520 429 353 
612 9 421 432 446 577 54 405 149 716 564 
613 9 539 262 96 698 325 709 281 745 235 
614 9 294 478 708 499 250 672 14 161 66 
615 9 158 540 510 271 711 625 61 283 357 
616 9 176 663 655 397 640 199 509 46 8 
617 9 433 693 400 125 129 82 700 347 450 
618 9 745 281 126 191 698 613 539 262 295 
619 9 544 239 603 185 42 401 414 689 35 
620 9 725 464 291 331 436 623 430 207 255 
621 9 57 694 156 688 207 53 623 516 291 
622 9 285 75 488 568 83 304 219 520 120 
623 9 291 436 464 725 207 57 620 156 331 
624 9 134 691 660 280 719 155 267 597 213 
625 9 540 305 711 271 615 357 158 458 259 
626 9 318 28 630 507 183 434 743 461 108 
627 9 487 570 679 248 631 579 288 443 65 
628 9 193 491 472 523 686 49 576 747 214 
629 9 467 245 453 99 740 59 284 95 465 
630 9 28 507 318 434 743 626 30 461 562 
631 9 65 679 522 443 487 504 299 202 90 
632 9 712 34 585 186 515 312 48 136 321 
633 9 713 63 432 446 225 163 256 612 583 
634 9 50 303 695 201 380 311 211 243 601 
635 9 547 476 567 23 390 582 692 246 175 
636 9 136 585 508 712 18 218 538 186 171 
637 9 668 102 730 416 714 543 252 572 15 
638 9 646 94 286 401 221 301 414 706 666 
639 9 384 342 718 454 500 645 376 84 742 
640 9 46 199 663 176 397 616 82 486 715 
641 9 529 37 197 200 444 647 372 362 720 
642 9 64 244 654 469 3 114 378 428 501 
643 9 696 311 541 295 314 709 303 370 145 
644 9 737 480 744 412 397 667 176 466 46 
645 9 500 742 376 84 384 718 686 639 454 
646 9 638 401 706 94 670 221 544 286 666 
647 9 37 529 224 391 720 641 608 292 388 
648 9 43 232 133 316 326 590 593 598 152 
649 9 202 85 504 299 463 22 377 522 552 
650 9 140 105 474 395 651 537 381 144 332 
651 9 144 332 707 334 195 140 118 537 177 
652 9 80 76 190 437 735 122 738 485 536 
653 9 119 187 2 389 431 462 106 471 218 
654 9 469 690 642 72 178 378 64 244 501 
655 9 8 616 509 328 302 700 176 594 663 
656 9 275 364 266 111 407 392 115 194 352 
657 9 420 261 410 10 373 238 495 9 348 
658 9 169 392 732 123 116 189 715 486 266 
659 9 336 33 609 717 139 503 16 348 721 
660 9 134 624 691 719 597 155 280 267 100 
661 9 135 447 374 403 179 404 562 132 519 
662 9 738 4 240 309 69 485 7 748 80 
663 9 199 640 616 82 46 176 397 125 450 
664 9 330 408 685 71 38 40 343 112 741 
665 9 276 723 110 340 167 584 606 669 127 
666 9 170 221 337 670 94 706 286 333 427 
667 9 744 272 644 737 382 412 387 466 160 
668 9 637 102 730 416 45 543 714 498 72 
669 9 150 353 584 340 445 386 360 20 611 
670 9 706 427 70 666 170 494 646 13 51 
671 9 571 702 173 32 676 578 489 438 393 
672 9 66 161 596 339 280 499 624 673 134 
673 9 6 422 703 339 596 739 514 317 320 
674 9 157 594 302 415 423 8 354 700 509 
675 9 196 506 67 526 12 201 303 634 47 
676 9 749 571 519 68 132 447 578 173 489 
677 9 405 564 36 577 406 282 92 430 137 
678 9 398 279 378 223 591 459 413 690 710 
679 9 487 631 65 443 90 522 627 299 504 
680 9 198 370 361 451 47 475 128 417 117 
681 9 324 481 502 24 217 687 91 546 409 
682 9 19 100 213 296 73 368 267 155 270 
683 9 177 222 118 424 388 77 292 76 608 
684 9 470 746 93 159 449 174 152 598 254 
685 9 408 330 664 38 71 741 112 343 473 
686 9 193 742 491 84 628 523 472 645 319 
687 9 91 217 502 409 277 681 324 24 481 
688 9 156 621 57 53 694 516 438 489 351 
689 9 588 35 42 513 414 589 607 301 352 
690 9 654 378 178 469 642 399 72 64 206 
691 9 719 155 134 624 660 267 280 213 100 
692 9 31 175 164 109 390 476 524 736 124 
693 9 617 400 433 125 129 700 82 509 8 
694 9 621 57 688 156 207 53 623 702 115 
695 9 380 50 211 73 634 601 19 100 682 
696 9 643 295 311 709 243 698 303 541 262 
697 9 312 48 181 34 371 186 632 585 586 
698 9 709 295 262 613 281 539 696 745 96 
699 9 435 251 98 263 369 204 542 386 353 
700 9 509 8 125 400 594 693 302 157 433 
701 9 165 346 533 264 575 215 728 195 21 
702 9 671 688 53 489 438 694 621 516 571 
703 9 739 6 673 422 514 368 339 317 320 
704 9 85 97 299 90 587 728 21 426 443 
705 9 40 103 383 71 233 555 330 664 408 
706 9 670 70 427 646 666 494 321 170 51 
707 9 144 651 334 118 177 332 683 195 327 
708 9 250 499 614 161 294 478 452 672 66 
709 9 262 698 295 696 539 643 613 505 541 
710 9 223 559 74 274 398 459 678 413 333 
711 9 271 305 540 625 615 158 510 357 545 
712 9 585 136 632 34 636 186 515 48 181 
713 9 446 225 63 163 583 633 149 439 228 
714 9 252 416 572 102 543 637 730 15 535 
715 9 486 116 732 123 169 658 46 199 450 
716 9 60 54 474 183 421 395 577 626 650 
717 9 336 348 33 609 659 721 420 16 104 
718 9 454 84 639 384 402 742 645 342 500 
719 9 691 155 134 267 624 660 213 100 280 
720 9 224 292 388 608 424 257 647 37 190 
721 9 51 33 104 139 13 503 717 142 348 
722 9 563 141 268 17 477 265 362 290 568 
723 9 110 276 665 265 606 340 127 167 584 
724 9 418 315 439 338 163 146 479 225 27 
725 9 291 620 464 331 623 436 207 57 430 
726 9 358 260 55 259 9 128 238 495 545 
727 9 396 101 138 323 602 293 2 187 52 
728 9 21 587 264 97 426 533 701 85 165 
729 9 30 89 310 237 404 5 166 562 137 
730 9 102 416 637 668 714 535 572 456 252 
731 9 505 235 271 711 305 283 325 385 615 
732 9 123 715 116 169 486 658 189 392 450 
733 9 39 130 242 379 25 172 167 360 483 
734 9 493 512 192 329 320 317 514 81 448 
735 9 437 536 485 652 76 738 80 240 190 
736 9 124 524 109 31 692 164 322 79 175 
737 9 644 480 744 397 667 272 412 46 176 
738 9 662 80 485 240 437 735 69 122 309 
739 9 703 6 368 673 422 514 558 213 267 
740 9 59 280 660 134 672 624 597 478 66 
741 9 112 38 473 685 408 330 664 537 468 
742 9 84 686 645 193 718 319 454 500 491 
743 9 434 507 461 108 208 318 630 289 28 
744 9 412 644 667 466 737 62 160 328 580 
745 9 618 281 698 126 613 191 539 262 295 
746 9 93 449 470 684 152 598 254 497 174 
747 9 576 359 214 472 49 153 413 491 628 
748 9 69 240 4 485 662 536 561 247 738 
749 9 676 519 68 447 132 571 135 578 374 
DEPOT_SECTION
   1
   -1
EOF
