NAME :  X-n716-kX-w286-c9.cctp
COMMENT : 	Adapted by Maziero, Usberti and Cavellucci from the Uchoa, Pecin, Pessoa, Poggi, Subramanian, and Vidal (2013)
TYPE :  CCTP
DIMENSION :    715
EDGE_WEIGHT_TYPE : 	EUC_2D	
CAPACITY : 	1007
VERTICES_WITHIN_COVERAGE :  9
VERTICES_WITH_DEMAND : 	286
NODE_COORD_SECTION
1 377 105
2 535 93
3 820 625
4 689 745
5 807 568
6 589 169
7 649 756
8 821 693
9 567 240
10 517 211
11 598 141
12 903 670
13 713 679
14 574 89
15 395 116
16 829 560
17 409 30
18 804 653
19 918 527
20 829 641
21 828 559
22 559 118
23 591 816
24 985 650
25 510 71
26 528 66
27 556 132
28 568 115
29 692 731
30 877 663
31 703 728
32 820 568
33 716 754
34 790 391
35 613 71
36 898 518
37 838 501
38 465 142
39 440 163
40 859 635
41 907 620
42 532 157
43 791 140
44 463 11
45 894 947
46 883 591
47 718 559
48 697 747
49 928 495
50 877 488
51 732 699
52 747 648
53 541 167
54 801 767
55 817 673
56 495 114
57 853 634
58 769 733
59 592 630
60 481 157
61 832 750
62 630 650
63 858 405
64 774 793
65 393 33
66 918 650
67 842 625
68 781 709
69 670 731
70 698 682
71 888 510
72 691 227
73 607 583
74 684 755
75 719 538
76 561 258
77 657 827
78 712 85
79 686 764
80 620 4
81 801 588
82 802 595
83 651 724
84 558 156
85 679 745
86 815 769
87 466 111
88 544 45
89 884 664
90 720 830
91 700 661
92 765 754
93 525 725
94 486 50
95 743 668
96 765 682
97 679 662
98 677 739
99 821 657
100 678 742
101 627 767
102 597 221
103 484 73
104 709 772
105 738 931
106 564 124
107 619 81
108 841 603
109 807 381
110 817 571
111 822 587
112 547 622
113 768 501
114 676 748
115 861 546
116 981 603
117 671 700
118 954 787
119 506 265
120 535 190
121 711 647
122 951 510
123 673 817
124 664 807
125 568 712
126 802 650
127 813 632
128 752 771
129 541 571
130 649 901
131 782 710
132 734 199
133 626 25
134 459 77
135 708 753
136 896 709
137 516 250
138 724 727
139 717 623
140 621 24
141 813 655
142 606 693
143 717 802
144 341 76
145 390 94
146 533 205
147 731 603
148 628 35
149 871 644
150 953 650
151 972 653
152 911 704
153 426 136
154 462 6
155 737 617
156 799 558
157 856 548
158 426 177
159 650 737
160 698 750
161 677 68
162 882 489
163 500 9
164 706 709
165 555 389
166 676 409
167 618 687
168 724 495
169 526 133
170 769 171
171 813 596
172 493 12
173 569 840
174 800 914
175 814 628
176 761 651
177 449 703
178 444 124
179 459 88
180 780 712
181 743 689
182 671 749
183 780 634
184 666 798
185 757 743
186 935 662
187 703 732
188 446 133
189 840 701
190 716 790
191 689 226
192 544 125
193 719 724
194 542 166
195 698 689
196 763 420
197 791 644
198 526 115
199 688 744
200 641 803
201 913 536
202 773 597
203 704 820
204 703 717
205 883 666
206 812 727
207 695 972
208 483 119
209 458 155
210 569 802
211 818 695
212 680 669
213 645 788
214 431 259
215 604 723
216 702 777
217 777 847
218 849 641
219 793 567
220 785 663
221 892 555
222 328 354
223 494 71
224 723 547
225 817 501
226 630 116
227 682 664
228 654 801
229 770 590
230 819 644
231 440 119
232 568 904
233 825 582
234 805 573
235 619 286
236 444 89
237 734 438
238 455 238
239 802 575
240 531 665
241 611 583
242 882 653
243 629 743
244 432 156
245 941 611
246 654 19
247 827 604
248 517 50
249 673 241
250 873 575
251 805 702
252 538 133
253 873 905
254 382 39
255 572 101
256 724 757
257 659 792
258 724 720
259 696 688
260 528 89
261 841 589
262 458 136
263 399 884
264 474 156
265 395 137
266 464 23
267 787 798
268 449 182
269 472 104
270 558 0
271 719 534
272 826 574
273 510 126
274 564 190
275 576 211
276 827 635
277 531 155
278 553 135
279 586 5
280 532 92
281 539 408
282 571 678
283 524 221
284 831 657
285 715 782
286 573 132
287 941 698
288 501 712
289 786 9
290 397 88
291 528 185
292 614 113
293 370 164
294 722 24
295 676 561
296 810 607
297 839 712
298 791 642
299 565 17
300 906 703
301 497 60
302 897 655
303 933 544
304 905 584
305 796 690
306 619 848
307 426 263
308 560 205
309 794 660
310 500 633
311 777 677
312 701 755
313 538 23
314 439 226
315 659 216
316 479 165
317 762 652
318 635 649
319 603 716
320 469 60
321 961 442
322 830 674
323 906 771
324 610 158
325 908 677
326 380 165
327 644 481
328 582 14
329 724 774
330 898 676
331 647 742
332 523 98
333 685 113
334 848 868
335 981 544
336 676 692
337 680 745
338 645 758
339 557 68
340 757 755
341 686 747
342 799 670
343 516 261
344 507 53
345 785 686
346 672 53
347 495 73
348 617 30
349 375 182
350 398 104
351 587 644
352 632 164
353 687 765
354 530 37
355 656 509
356 708 738
357 670 841
358 420 201
359 832 651
360 669 756
361 693 707
362 834 40
363 790 543
364 456 235
365 971 447
366 758 803
367 762 602
368 578 210
369 721 751
370 708 762
371 622 645
372 701 683
373 537 199
374 820 588
375 734 650
376 841 717
377 488 202
378 741 780
379 788 773
380 991 514
381 640 746
382 849 646
383 879 660
384 865 695
385 697 803
386 537 90
387 478 251
388 652 757
389 589 6
390 588 132
391 832 604
392 553 791
393 863 485
394 722 716
395 811 641
396 477 61
397 653 665
398 943 769
399 417 157
400 577 15
401 623 524
402 917 694
403 894 565
404 563 48
405 732 557
406 877 596
407 520 80
408 746 900
409 719 547
410 785 617
411 833 635
412 682 720
413 708 619
414 717 744
415 576 805
416 724 645
417 624 678
418 420 66
419 684 762
420 603 661
421 565 102
422 658 696
423 657 772
424 685 550
425 420 118
426 611 73
427 477 191
428 739 646
429 696 742
430 680 629
431 499 127
432 630 1
433 458 130
434 814 606
435 703 731
436 540 79
437 704 774
438 794 695
439 809 734
440 636 81
441 667 716
442 866 744
443 908 653
444 537 119
445 592 805
446 805 793
447 615 727
448 611 127
449 579 90
450 854 854
451 524 75
452 758 738
453 489 114
454 494 94
455 737 606
456 528 65
457 547 656
458 559 88
459 522 61
460 482 815
461 488 816
462 817 608
463 890 512
464 678 165
465 995 478
466 544 195
467 757 607
468 814 524
469 801 670
470 901 581
471 709 580
472 924 348
473 945 660
474 607 77
475 734 731
476 695 744
477 648 914
478 516 34
479 531 66
480 400 777
481 709 609
482 854 545
483 739 759
484 850 405
485 745 749
486 956 623
487 674 735
488 522 149
489 767 665
490 668 719
491 700 119
492 856 825
493 884 343
494 738 650
495 704 884
496 686 655
497 669 715
498 613 404
499 839 634
500 673 770
501 458 198
502 535 155
503 681 673
504 612 153
505 680 186
506 508 183
507 617 696
508 854 424
509 752 788
510 609 792
511 815 832
512 727 873
513 682 693
514 539 196
515 657 736
516 621 216
517 747 614
518 786 784
519 941 669
520 629 62
521 799 640
522 512 85
523 790 810
524 659 773
525 814 655
526 723 624
527 904 688
528 614 81
529 766 472
530 622 737
531 746 775
532 724 690
533 553 87
534 488 46
535 728 755
536 629 541
537 545 91
538 683 771
539 759 838
540 770 472
541 828 706
542 947 526
543 571 297
544 891 583
545 617 861
546 909 572
547 473 73
548 684 261
549 857 723
550 949 759
551 549 106
552 771 552
553 776 859
554 669 741
555 607 102
556 496 70
557 681 708
558 624 784
559 548 78
560 864 673
561 952 875
562 651 752
563 709 747
564 724 748
565 266 39
566 625 743
567 894 666
568 928 560
569 707 731
570 511 817
571 622 699
572 779 670
573 805 653
574 714 810
575 912 739
576 652 689
577 620 693
578 508 130
579 773 560
580 528 154
581 653 486
582 534 55
583 453 106
584 820 653
585 707 784
586 816 606
587 618 298
588 798 672
589 720 862
590 614 45
591 493 26
592 747 740
593 757 655
594 504 689
595 845 653
596 551 125
597 734 628
598 705 719
599 463 8
600 680 929
601 678 618
602 576 77
603 574 577
604 478 93
605 624 110
606 801 601
607 716 610
608 924 825
609 692 799
610 490 168
611 644 822
612 569 6
613 757 397
614 873 635
615 629 137
616 623 728
617 723 618
618 778 727
619 701 727
620 655 71
621 878 620
622 629 757
623 834 753
624 883 622
625 582 30
626 852 520
627 828 545
628 737 691
629 698 610
630 660 626
631 710 688
632 725 765
633 653 735
634 724 719
635 829 553
636 783 886
637 635 6
638 853 652
639 759 729
640 598 56
641 731 454
642 699 762
643 931 436
644 877 690
645 646 849
646 672 660
647 692 743
648 733 600
649 782 574
650 723 64
651 479 75
652 560 127
653 418 158
654 610 838
655 406 120
656 509 118
657 645 98
658 627 101
659 852 709
660 999 816
661 793 527
662 742 669
663 616 172
664 458 301
665 700 223
666 747 764
667 677 767
668 654 102
669 687 680
670 902 705
671 529 653
672 769 686
673 810 979
674 891 663
675 836 883
676 917 552
677 580 241
678 828 605
679 650 340
680 845 598
681 494 195
682 903 617
683 652 236
684 957 745
685 720 631
686 573 182
687 716 702
688 698 762
689 535 124
690 480 176
691 661 559
692 520 195
693 887 583
694 536 133
695 609 48
696 533 641
697 929 673
698 906 679
699 721 79
700 887 598
701 634 37
702 990 612
703 927 659
704 654 624
705 552 100
706 846 570
707 658 676
708 525 68
709 892 591
710 462 157
711 909 770
712 649 951
713 863 795
714 619 603
715 869 503
DEMAND_SECTION
2 47
3 21
4 19
5 37
6 40
7 79
8 60
9 88
10 84
11 75
12 12
13 42
14 21
15 91
16 6
17 57
18 7
19 66
20 7
21 99
22 75
23 4
24 85
25 10
26 29
27 6
28 20
29 7
30 50
31 26
32 29
33 99
34 45
35 57
36 14
37 33
38 2
39 38
40 43
41 64
42 85
43 84
44 46
45 53
46 45
47 48
48 48
49 85
50 60
51 2
52 17
53 12
54 99
55 43
56 40
57 29
58 13
59 29
60 26
61 66
62 45
63 34
64 33
65 6
66 72
67 34
68 16
69 36
70 69
71 10
72 10
73 12
74 97
75 87
76 24
77 57
78 17
79 86
80 76
81 81
82 30
83 10
84 36
85 28
86 41
87 53
88 7
89 40
90 46
91 28
92 28
93 62
94 51
95 30
96 98
97 53
98 5
99 15
100 27
101 37
102 68
103 11
104 14
105 71
106 97
107 49
108 50
109 43
110 65
111 19
112 42
113 88
114 96
115 57
116 65
117 36
118 28
119 50
120 38
121 84
122 8
123 69
124 29
125 86
126 99
127 29
128 78
129 79
130 23
131 68
132 50
133 26
134 26
135 57
136 10
137 84
138 64
139 35
140 27
141 3
142 18
143 63
144 100
145 45
146 35
147 7
148 7
149 29
150 90
151 49
152 86
153 100
154 75
155 18
156 32
157 29
158 15
159 47
160 26
161 27
162 4
163 57
164 88
165 94
166 73
167 64
168 49
169 89
170 76
171 13
172 57
173 27
174 4
175 34
176 2
177 93
178 27
179 26
180 67
181 95
182 54
183 67
184 5
185 31
186 26
187 40
188 40
189 81
190 27
191 100
192 96
193 35
194 26
195 48
196 45
197 31
198 36
199 46
200 85
201 29
202 11
203 46
204 44
205 5
206 51
207 47
208 2
209 72
210 48
211 81
212 47
213 26
214 48
215 18
216 47
217 15
218 39
219 1
220 57
221 34
222 65
223 3
224 40
225 46
226 66
227 7
228 23
229 29
230 44
231 21
232 72
233 44
234 46
235 1
236 91
237 29
238 86
239 18
240 53
241 24
242 78
243 36
244 50
245 13
246 1
247 19
248 66
249 95
250 92
251 67
252 85
253 77
254 56
255 71
256 11
257 99
258 4
259 100
260 26
261 78
262 24
263 2
264 61
265 73
266 62
267 43
268 1
269 89
270 39
271 63
272 8
273 89
274 94
275 57
276 79
277 46
278 41
279 85
280 15
281 10
282 64
283 2
284 27
285 1
286 28
287 21
COVERAGE_SECTION
2 9 280 386 260 537 332 436 705 533 551 
3 9 175 127 276 411 462 20 395 230 586 
4 9 199 341 647 476 48 429 337 85 160 
5 9 234 239 110 32 156 219 272 81 16 
6 9 686 324 663 504 11 274 84 390 286 
7 9 388 338 562 381 331 423 159 360 524 
8 9 211 541 251 55 189 322 305 297 438 
9 9 677 76 275 368 102 308 283 146 274 
10 9 283 692 146 373 514 120 291 681 506 
11 9 390 504 448 324 286 6 615 292 663 
12 9 330 325 698 567 674 302 443 527 89 
13 9 631 372 70 532 195 259 91 687 669 
14 9 449 255 602 458 421 533 705 28 339 
15 9 350 655 265 145 425 290 153 231 399 
16 9 21 635 32 272 627 110 706 233 5 
17 9 65 254 418 266 44 154 599 290 145 
18 9 573 126 141 525 309 395 521 197 584 
19 9 201 36 303 676 542 463 49 71 568 
20 9 276 411 230 359 499 584 284 3 99 
21 9 16 635 32 627 272 110 706 5 233 
22 9 106 28 652 596 27 551 192 421 278 
23 9 445 415 210 654 510 173 306 392 558 
24 9 151 150 702 486 473 116 519 186 245 
25 9 407 522 556 347 451 708 223 459 301 
26 9 456 479 708 459 451 582 407 436 25 
27 9 278 652 596 106 22 192 286 252 694 
28 9 22 106 421 652 255 286 596 27 551 
29 9 619 31 187 435 429 647 476 4 199 
30 9 383 89 205 242 674 560 567 149 302 
31 9 619 435 187 569 598 29 204 356 193 
32 9 110 272 16 21 5 233 234 635 111 
33 9 369 135 256 414 563 564 370 535 632 
34 9 109 613 196 484 63 508 237 540 529 
35 9 426 474 528 107 520 640 695 440 590 
36 9 463 71 19 201 162 715 50 221 49 
37 9 225 626 393 715 468 50 627 162 482 
38 9 262 433 209 710 264 188 60 316 178 
39 9 244 158 209 268 653 710 399 153 188 
40 9 57 218 614 149 382 638 67 499 595 
41 9 682 624 621 700 66 443 709 245 302 
42 9 277 502 580 53 194 488 694 169 252 
43 9 170 132 491 699 78 650 333 362 464 
44 9 599 154 266 172 591 163 534 94 320 
45 9 253 675 673 334 561 174 450 608 636 
46 9 406 700 693 709 544 250 470 304 403 
47 9 409 224 405 75 471 271 424 295 648 
48 9 160 476 429 647 4 199 312 341 563 
49 9 122 19 542 36 463 71 201 162 303 
50 9 162 393 715 71 463 36 37 626 49 
51 9 628 532 181 687 394 258 634 631 13 
52 9 428 494 593 375 176 317 95 662 416 
53 9 194 42 502 277 580 84 291 120 488 
54 9 86 379 518 446 267 439 61 623 64 
55 9 322 99 469 141 342 525 588 8 584 
56 9 453 208 431 656 273 454 578 269 604 
57 9 40 218 382 67 499 638 411 614 149 
58 9 618 639 452 185 92 592 180 340 131 
59 9 351 420 371 714 62 112 318 73 241 
60 9 264 316 610 690 710 38 209 262 427 
61 9 623 86 439 206 376 54 442 549 297 
62 9 318 371 397 417 420 704 630 707 167 
63 9 484 508 109 493 34 643 393 50 162 
64 9 267 518 366 509 523 379 128 446 531 
65 9 254 17 418 290 145 144 350 266 44 
66 9 443 703 186 302 12 697 325 473 567 
67 9 499 411 57 218 276 40 20 3 108 
68 9 131 180 618 438 345 305 251 672 58 
69 9 487 554 98 490 100 515 441 412 497 
70 9 372 259 195 669 631 13 503 513 91 
71 9 463 36 715 162 50 19 393 201 626 
72 9 191 665 249 315 548 683 505 132 464 
73 9 241 714 603 536 59 691 401 704 351 
74 9 419 341 79 353 4 85 114 337 199 
75 9 271 409 224 47 405 424 168 471 295 
76 9 9 677 543 343 137 275 368 102 283 
77 9 611 123 357 124 645 228 200 184 257 
78 9 699 650 491 161 333 346 620 668 294 
79 9 353 419 538 74 667 688 642 500 312 
80 9 432 637 140 133 348 389 148 279 701 
81 9 82 239 606 171 234 374 5 111 296 
82 9 606 81 171 296 434 586 374 239 462 
83 9 633 159 515 331 441 490 69 497 381 
84 9 194 53 278 502 27 42 277 286 652 
85 9 337 100 114 98 341 182 199 4 74 
86 9 54 61 623 446 379 518 439 267 206 
87 9 269 583 208 433 604 453 179 178 262 
88 9 582 354 404 313 479 26 339 456 248 
89 9 205 383 30 674 567 242 302 330 12 
90 9 203 574 143 589 385 190 539 609 512 
91 9 496 121 227 70 97 13 212 372 503 
92 9 340 185 452 58 128 485 666 592 483 
93 9 288 594 125 240 282 392 457 671 177 
94 9 534 396 301 320 344 223 556 103 347 
95 9 662 494 593 52 375 181 428 489 628 
96 9 672 311 489 572 345 181 95 662 220 
97 9 227 212 646 496 503 669 91 707 397 
98 9 100 487 85 337 554 114 69 182 199 
99 9 584 525 141 284 230 359 55 573 18 
100 9 85 98 337 114 487 341 554 182 199 
101 9 622 558 338 243 566 7 381 388 213 
102 9 368 275 516 677 9 308 274 686 76 
103 9 651 223 347 547 556 396 301 320 604 
104 9 437 216 370 285 585 642 329 688 632 
105 9 408 495 600 207 512 174 636 589 553 
106 9 652 22 28 27 286 596 278 192 421 
107 9 528 426 35 474 440 520 658 555 605 
108 9 680 391 678 247 261 67 111 462 586 
109 9 34 484 613 63 196 508 493 237 540 
110 9 32 272 5 234 233 16 21 239 111 
111 9 374 233 171 272 110 247 32 261 678 
112 9 696 457 671 59 240 351 310 129 603 
113 9 529 540 661 168 363 225 468 552 271 
114 9 85 182 337 100 98 341 554 74 360 
115 9 157 482 626 706 250 221 627 635 16 
116 9 702 486 245 24 151 150 335 473 568 
117 9 336 513 557 422 497 441 490 576 361 
118 9 398 550 684 608 711 323 660 575 561 
119 9 343 137 387 283 10 76 238 364 664 
120 9 514 291 373 466 146 692 53 194 10 
121 9 416 91 685 375 139 496 526 494 413 
122 9 542 49 19 303 380 335 201 36 465 
123 9 124 77 184 357 228 609 385 257 611 
124 9 184 228 123 257 77 200 611 213 609 
125 9 282 319 215 142 93 447 507 577 167 
126 9 18 573 521 141 197 309 395 525 298 
127 9 175 395 3 230 276 521 20 411 126 
128 9 531 666 378 340 509 483 92 485 185 
129 9 603 112 73 696 241 310 59 671 714 
130 9 477 600 712 545 645 495 306 357 77 
131 9 68 180 618 438 251 305 345 58 672 
132 9 665 170 72 191 505 464 249 315 548 
133 9 140 148 348 701 637 80 590 432 246 
134 9 179 547 236 320 651 396 103 604 269 
135 9 563 312 33 370 160 48 369 414 642 
136 9 670 300 152 527 402 644 698 330 325 
137 9 343 119 283 387 10 76 146 9 373 
138 9 193 258 634 394 475 569 414 356 31 
139 9 526 617 685 413 607 481 597 155 416 
140 9 133 348 148 701 80 590 637 432 695 
141 9 525 584 99 573 18 126 230 395 55 
142 9 507 167 577 571 319 417 215 420 447 
143 9 574 190 285 385 585 203 609 90 216 
144 9 145 254 290 350 15 65 655 418 265 
145 9 290 350 15 655 425 418 265 144 236 
146 9 373 514 120 466 692 10 283 291 308 
147 9 648 455 155 607 617 517 526 481 139 
148 9 701 133 348 140 590 695 520 637 246 
149 9 614 242 40 383 30 638 57 218 382 
150 9 473 151 186 519 486 703 24 697 66 
151 9 24 150 473 486 519 186 702 703 697 
152 9 300 670 402 136 527 698 325 287 330 
153 9 425 188 244 178 231 399 653 655 39 
154 9 599 44 266 172 591 163 534 94 320 
155 9 517 455 597 617 147 526 648 139 467 
156 9 219 5 234 239 363 110 32 649 579 
157 9 482 115 706 635 626 627 16 21 250 
158 9 39 653 244 399 268 358 501 209 153 
159 9 633 331 515 83 381 562 7 554 388 
160 9 48 312 476 429 647 4 135 563 199 
161 9 346 620 78 668 440 657 699 333 650 
162 9 50 393 715 71 463 36 626 37 49 
163 9 172 591 478 44 599 154 266 534 313 
164 9 204 598 687 361 394 31 619 193 258 
165 9 281 498 543 679 587 235 166 327 76 
166 9 498 237 641 679 327 581 613 196 168 
167 9 577 507 417 142 571 420 319 576 62 
168 9 271 641 75 113 529 540 224 409 237 
169 9 694 252 689 488 273 198 444 578 192 
170 9 43 132 491 665 505 464 72 191 333 
171 9 434 586 82 296 374 111 462 606 81 
172 9 163 591 44 599 266 154 478 534 94 
173 9 23 415 210 654 445 306 392 545 510 
174 9 636 675 408 553 105 334 673 217 253 
175 9 127 3 395 276 230 521 20 411 462 
176 9 317 593 52 489 428 494 95 183 572 
177 9 288 594 93 310 480 240 671 696 457 
178 9 231 188 433 262 583 153 425 87 38 
179 9 134 236 583 604 269 547 87 651 103 
180 9 68 131 618 438 58 345 251 305 639 
181 9 628 51 532 662 95 96 672 687 13 
182 9 114 360 554 85 100 337 98 74 487 
183 9 298 197 410 521 176 317 126 220 309 
184 9 124 257 228 123 213 200 524 609 423 
185 9 452 592 340 485 92 639 58 666 483 
186 9 519 703 473 697 66 150 443 325 12 
187 9 435 31 569 619 356 29 429 598 476 
188 9 178 262 433 231 153 38 209 244 583 
189 9 297 541 659 376 8 211 384 549 322 
190 9 285 585 143 329 104 216 437 574 385 
191 9 72 665 249 315 548 683 505 132 464 
192 9 596 444 689 252 694 278 27 652 22 
193 9 138 258 634 394 569 598 31 204 435 
194 9 53 42 502 277 580 84 291 120 488 
195 9 259 70 372 631 669 513 13 361 164 
196 9 613 237 34 641 529 540 109 113 168 
197 9 298 521 126 183 18 309 573 220 395 
198 9 444 689 332 656 169 273 192 694 252 
199 9 4 341 647 476 337 429 48 85 100 
200 9 228 213 611 257 124 184 558 77 510 
201 9 19 676 303 36 221 568 463 403 542 
202 9 229 367 467 410 649 606 81 82 517 
203 9 574 385 90 143 609 123 190 585 285 
204 9 598 164 619 31 361 435 187 569 193 
205 9 89 30 383 674 567 242 302 330 12 
206 9 439 251 541 61 297 376 211 131 618 
207 9 600 712 105 477 130 408 495 512 589 
208 9 453 56 431 87 269 604 656 433 454 
209 9 710 38 264 262 39 60 316 188 433 
210 9 415 392 445 23 173 510 654 558 570 
211 9 8 251 541 55 189 305 322 438 297 
212 9 503 227 97 646 669 496 70 91 336 
213 9 257 200 228 423 524 558 184 124 101 
214 9 307 238 314 364 387 664 358 501 119 
215 9 319 447 616 530 566 142 507 571 243 
216 9 437 104 585 285 642 370 688 190 353 
217 9 553 539 523 636 511 366 267 64 512 
218 9 382 57 40 499 638 595 67 411 20 
219 9 156 239 234 649 5 579 81 110 363 
220 9 309 572 311 342 588 469 489 197 18 
221 9 403 546 676 201 250 470 544 693 115 
222 9 307 214 664 314 238 364 349 358 387 
223 9 347 556 103 301 25 651 396 547 94 
224 9 409 75 47 405 271 471 424 552 295 
225 9 37 468 661 626 627 113 393 363 715 
226 9 605 658 292 615 448 657 555 668 440 
227 9 97 212 503 496 646 669 91 70 372 
228 9 257 124 184 200 213 611 123 77 524 
229 9 202 367 649 467 579 81 410 82 219 
230 9 395 584 20 276 525 99 127 141 359 
231 9 178 188 583 425 433 153 262 87 236 
232 9 173 545 306 654 130 477 23 712 645 
233 9 111 272 374 110 32 261 171 16 234 
234 9 239 5 110 219 32 81 156 272 374 
235 9 587 543 677 683 679 76 9 102 249 
236 9 179 134 583 231 87 269 418 547 604 
237 9 641 196 529 613 540 168 166 113 34 
238 9 364 314 387 214 307 501 377 358 427 
239 9 234 5 219 81 110 156 32 82 649 
240 9 671 457 696 594 282 310 112 288 93 
241 9 73 714 603 536 59 691 704 401 371 
242 9 383 30 89 205 674 149 302 567 614 
243 9 566 530 381 622 616 331 447 159 338 
244 9 39 653 399 153 158 209 188 710 268 
245 9 486 41 682 116 150 66 304 473 702 
246 9 637 701 133 432 148 140 80 346 348 
247 9 678 391 462 586 434 108 171 296 374 
248 9 344 459 478 354 582 26 456 708 479 
249 9 191 683 72 548 315 665 505 516 235 
250 9 693 46 544 406 403 709 700 706 221 
251 9 438 211 305 8 541 131 68 206 345 
252 9 694 689 192 169 444 278 596 27 198 
253 9 675 334 45 450 174 492 561 636 511 
254 9 65 17 418 290 144 145 350 15 236 
255 9 421 14 449 28 458 705 22 106 533 
256 9 535 369 632 33 564 414 483 135 329 
257 9 184 228 213 124 524 423 200 500 123 
258 9 634 394 193 138 475 598 569 687 164 
259 9 195 70 372 669 631 513 13 361 336 
260 9 280 2 386 332 407 451 436 522 537 
261 9 680 108 233 391 111 706 247 272 374 
262 9 433 38 188 178 209 710 231 87 264 
263 9 480 460 461 570 232 173 392 177 210 
264 9 60 316 710 209 38 610 690 262 433 
265 9 655 15 399 153 425 653 326 350 293 
266 9 44 599 154 591 172 534 94 320 163 
267 9 523 64 518 446 379 366 54 509 86 
268 9 501 39 158 209 710 427 244 690 316 
269 9 87 604 208 583 453 179 454 56 134 
270 9 612 299 400 279 328 313 389 625 354 
271 9 75 409 224 47 405 424 168 471 295 
272 9 32 233 110 16 111 21 374 5 706 
273 9 578 656 431 169 56 198 453 689 488 
274 9 686 308 466 275 368 514 373 120 6 
275 9 368 308 102 274 686 9 677 466 514 
276 9 20 411 3 230 499 127 175 359 395 
277 9 42 580 502 488 53 194 169 252 694 
278 9 27 596 652 192 252 106 694 22 286 
279 9 389 328 400 612 299 625 270 80 140 
280 9 2 260 386 332 537 436 407 451 522 
281 9 165 498 543 327 679 664 587 166 581 
282 9 457 125 420 142 351 240 167 507 671 
283 9 10 146 373 692 514 137 120 466 291 
284 9 359 99 584 595 20 322 525 141 230 
285 9 190 585 104 329 216 437 143 632 370 
286 9 106 652 390 27 28 22 278 596 11 
287 9 402 697 519 152 300 186 473 527 325 
288 9 594 93 177 240 671 125 457 282 696 
289 9 362 294 650 699 78 346 161 43 246 
290 9 145 350 15 418 655 425 236 265 254 
291 9 120 692 514 373 466 506 146 53 194 
292 9 605 555 448 226 658 615 11 107 390 
293 9 326 349 265 399 653 15 158 655 358 
294 9 650 699 346 78 161 289 246 620 637 
295 9 424 691 471 47 409 75 224 271 536 
296 9 434 586 462 171 606 82 247 678 3 
297 9 376 189 541 659 549 8 211 206 384 
298 9 197 521 126 183 18 309 573 395 220 
299 9 400 612 328 270 625 279 389 313 404 
300 9 670 152 136 402 527 698 325 330 644 
301 9 556 223 344 347 94 25 534 103 396 
302 9 674 443 567 242 12 89 205 383 330 
303 9 568 676 201 19 542 546 122 221 36 
304 9 470 546 544 709 693 403 46 700 406 
305 9 438 345 251 588 342 469 211 311 68 
306 9 545 654 645 611 23 77 200 173 357 
307 9 214 238 314 364 664 387 358 501 119 
308 9 274 275 368 466 514 373 686 146 120 
309 9 220 342 18 469 126 573 588 197 298 
310 9 696 671 240 112 457 594 129 288 282 
311 9 572 345 672 96 220 489 588 305 342 
312 9 160 135 642 688 48 370 563 476 429 
313 9 354 88 478 299 270 582 248 404 612 
314 9 364 238 358 214 501 307 268 387 158 
315 9 683 249 191 72 505 516 665 548 464 
316 9 60 264 610 690 710 209 427 38 268 
317 9 176 593 489 52 428 494 95 183 220 
318 9 62 371 397 417 704 420 630 707 646 
319 9 215 447 142 616 507 571 530 577 167 
320 9 396 547 651 94 103 134 534 223 301 
321 9 365 643 465 49 122 380 542 162 19 
322 9 55 284 99 8 359 584 211 141 525 
323 9 711 575 398 550 442 713 118 608 684 
324 9 504 663 11 352 6 615 448 390 686 
325 9 698 12 330 527 567 402 697 674 443 
326 9 293 349 265 399 653 158 15 655 244 
327 9 581 355 401 536 166 424 691 168 498 
328 9 400 279 389 612 625 299 270 348 80 
329 9 632 285 104 256 190 378 535 370 437 
330 9 12 698 325 567 527 674 89 205 302 
331 9 159 381 633 562 515 7 338 388 83 
332 9 260 280 2 386 198 522 407 451 537 
333 9 491 668 78 657 161 699 464 620 226 
334 9 450 675 492 253 511 174 636 553 217 
335 9 380 542 122 303 568 116 676 19 465 
336 9 513 117 669 557 422 259 503 195 212 
337 9 85 100 114 341 98 199 4 182 74 
338 9 7 388 562 381 331 622 423 101 524 
339 9 559 533 436 458 404 602 88 479 537 
340 9 92 185 485 666 128 452 483 592 531 
341 9 4 199 337 85 647 74 100 476 114 
342 9 469 588 309 220 18 55 573 126 305 
343 9 119 137 387 283 76 10 9 146 238 
344 9 248 301 459 25 534 556 94 478 223 
345 9 305 311 438 672 572 588 96 342 68 
346 9 161 620 246 701 520 440 148 78 650 
347 9 223 556 103 301 25 651 454 522 396 
348 9 140 133 148 590 701 695 80 637 432 
349 9 326 293 265 358 399 653 158 244 39 
350 9 15 145 290 655 425 265 153 418 231 
351 9 59 420 371 282 457 62 112 318 417 
352 9 663 324 504 615 11 6 448 464 226 
353 9 79 419 538 74 667 688 642 500 312 
354 9 478 88 313 248 582 459 344 456 26 
355 9 581 327 401 536 424 691 295 271 75 
356 9 569 187 435 563 31 414 429 619 48 
357 9 77 123 645 611 124 203 184 228 385 
358 9 158 314 268 501 39 653 399 244 349 
359 9 284 20 584 99 595 230 411 276 382 
360 9 182 114 667 74 85 500 554 337 419 
361 9 557 164 204 412 598 513 195 259 619 
362 9 289 43 294 650 699 78 170 491 161 
363 9 661 156 552 219 579 5 468 649 234 
364 9 238 314 387 214 501 307 377 427 358 
365 9 321 465 643 49 122 380 542 19 162 
366 9 509 64 267 378 531 128 523 518 539 
367 9 467 202 229 517 455 410 155 648 147 
368 9 275 308 102 274 686 677 9 466 514 
369 9 564 33 256 414 535 135 563 632 370 
370 9 135 642 104 312 688 33 437 563 160 
371 9 62 318 420 417 59 351 397 704 167 
372 9 70 195 259 631 13 669 513 91 503 
373 9 514 146 466 120 291 692 10 308 283 
374 9 111 233 171 272 110 247 586 81 82 
375 9 494 428 416 52 95 662 597 121 593 
376 9 297 659 189 541 549 8 206 211 384 
377 9 681 427 690 506 10 501 692 610 316 
378 9 531 128 509 666 329 483 632 285 190 
379 9 518 54 64 267 446 86 92 128 340 
380 9 335 465 122 542 303 49 365 19 321 
381 9 331 243 7 159 338 562 566 388 622 
382 9 218 638 595 57 40 499 359 411 20 
383 9 30 89 205 242 674 567 149 302 560 
384 9 644 659 560 189 549 297 376 30 136 
385 9 609 203 574 143 585 190 216 123 285 
386 9 2 280 537 260 436 332 533 559 705 
387 9 238 364 119 137 343 314 214 377 307 
388 9 7 562 338 331 381 423 360 524 159 
389 9 279 328 400 612 625 299 80 270 140 
390 9 11 286 448 106 28 652 22 27 292 
391 9 678 247 108 680 462 586 261 434 111 
392 9 210 415 445 23 570 173 510 461 558 
393 9 50 162 715 37 71 626 463 36 225 
394 9 258 634 193 138 687 164 598 204 475 
395 9 127 230 521 126 175 573 18 141 525 
396 9 320 547 94 103 651 534 223 301 556 
397 9 707 646 318 576 97 62 212 227 503 
398 9 550 118 684 711 323 575 608 287 152 
399 9 653 244 158 153 39 265 188 326 425 
400 9 328 299 612 279 389 625 270 404 313 
401 9 536 355 327 581 691 241 73 295 424 
402 9 152 300 527 325 670 698 287 697 136 
403 9 221 470 546 544 693 304 250 676 709 
404 9 88 339 625 582 299 602 559 313 354 
405 9 224 47 409 75 271 471 552 579 648 
406 9 46 700 693 709 544 250 621 624 470 
407 9 451 522 260 25 708 26 280 456 332 
408 9 105 512 636 495 589 553 174 217 539 
409 9 224 75 47 271 405 424 471 295 168 
410 9 183 202 606 298 296 367 521 82 197 
411 9 276 499 20 67 3 359 218 230 382 
412 9 557 490 497 29 69 441 361 487 98 
413 9 139 481 607 629 617 526 685 121 147 
414 9 369 564 563 33 356 135 256 535 569 
415 9 210 445 23 392 510 173 654 558 306 
416 9 375 121 428 494 685 597 526 52 139 
417 9 167 577 507 571 142 420 62 576 318 
418 9 290 236 17 134 145 65 350 179 254 
419 9 79 353 74 538 667 500 688 341 642 
420 9 351 371 417 62 167 142 59 318 282 
421 9 255 28 705 458 14 551 22 449 533 
422 9 576 117 336 707 441 497 513 490 557 
423 9 524 388 500 7 338 213 257 360 562 
424 9 295 691 47 409 75 224 271 471 405 
425 9 655 153 231 15 178 350 188 265 583 
426 9 35 474 528 107 520 640 695 440 590 
427 9 690 377 681 501 316 610 268 506 60 
428 9 494 375 52 416 597 593 95 176 662 
429 9 476 647 48 4 160 199 341 29 187 
430 8 601 630 629 704 496 413 646 97 
431 9 578 273 656 56 453 208 169 198 488 
432 9 637 80 133 140 246 348 148 701 389 
433 9 262 188 38 178 87 231 209 583 208 
434 9 586 296 462 171 247 606 678 82 391 
435 9 187 31 569 619 356 29 598 429 204 
436 9 559 386 537 2 280 533 260 451 479 
437 9 216 104 585 370 642 688 285 312 353 
438 9 305 251 345 68 131 180 588 211 311 
439 9 206 61 623 251 618 54 541 86 131 
440 9 107 657 520 620 528 658 35 426 668 
441 9 497 490 69 117 412 557 83 487 422 
442 9 549 623 61 376 659 297 136 575 323 
443 9 66 302 12 567 674 703 325 330 89 
444 9 689 192 198 252 694 596 169 551 22 
445 9 23 415 510 210 558 654 392 173 200 
446 9 267 518 523 54 86 379 64 511 366 
447 9 616 215 530 319 566 243 571 381 507 
448 9 292 11 605 615 226 390 555 504 324 
449 9 14 255 602 421 458 533 28 705 555 
450 9 334 492 675 511 253 713 608 217 446 
451 9 407 708 26 456 479 459 25 260 436 
452 9 185 639 592 58 92 340 485 618 475 
453 9 56 208 431 269 656 454 87 273 604 
454 9 604 56 522 347 453 103 223 269 556 
455 9 147 648 155 517 617 467 607 597 526 
456 9 26 479 708 459 451 582 407 436 25 
457 9 240 671 696 282 112 351 59 310 594 
458 9 533 537 705 14 421 559 255 339 449 
459 9 456 26 708 479 248 582 451 25 344 
460 9 461 570 392 210 480 173 415 93 288 
461 9 460 570 392 210 173 415 480 93 23 
462 9 586 434 296 247 678 171 391 3 606 
463 9 71 36 715 162 50 19 201 393 626 
464 9 505 352 491 333 315 615 191 663 665 
465 9 380 365 321 122 335 542 49 643 19 
466 9 514 373 120 146 291 308 274 692 53 
467 9 367 517 202 455 229 155 648 147 410 
468 9 661 225 627 363 37 635 156 21 626 
469 9 342 588 309 55 18 220 573 141 126 
470 9 304 544 546 709 693 403 46 700 221 
471 9 47 481 607 648 147 629 405 409 224 
472 9 493 63 643 484 321 508 365 109 34 
473 9 186 519 150 703 697 151 66 287 443 
474 9 426 35 528 107 640 555 520 440 695 
475 9 138 258 592 634 193 394 564 414 485 
476 9 429 647 48 4 160 199 341 29 312 
477 9 130 600 712 545 495 645 306 207 357 
478 9 354 248 344 591 313 459 582 88 163 
479 9 26 456 708 459 451 582 436 407 248 
480 9 177 460 461 263 570 288 93 594 392 
481 9 607 413 629 139 617 526 147 685 648 
482 9 157 115 626 627 635 706 16 21 250 
483 9 666 485 535 256 632 531 128 340 564 
484 9 63 508 109 34 493 393 50 643 196 
485 9 592 483 185 340 666 452 535 92 475 
486 9 245 150 116 151 702 473 24 186 703 
487 9 98 69 100 554 85 337 114 182 199 
488 9 580 277 42 502 169 694 252 578 53 
489 9 572 317 593 176 311 96 220 672 95 
490 9 441 497 69 412 487 557 83 117 515 
491 9 333 78 699 668 464 161 657 650 620 
492 9 450 713 511 334 446 675 523 608 86 
493 9 472 63 484 109 508 643 34 321 365 
494 9 375 428 52 416 95 662 593 597 176 
495 9 512 589 408 600 357 90 105 130 203 
496 9 97 227 91 212 646 503 669 121 430 
497 9 441 490 412 557 117 69 83 487 422 
498 9 165 166 281 679 327 581 587 355 543 
499 9 411 67 20 218 276 57 382 359 40 
500 9 667 538 79 419 524 353 360 423 74 
501 9 268 427 377 690 314 681 364 158 358 
502 9 42 277 580 53 194 488 252 694 84 
503 9 212 227 669 97 646 70 496 336 513 
504 9 324 11 663 352 615 448 6 390 292 
505 9 464 315 191 72 665 352 249 132 683 
506 9 692 681 291 610 120 377 10 690 427 
507 9 577 571 167 142 417 319 215 447 616 
508 9 63 484 393 109 50 162 34 643 37 
509 9 378 531 366 128 64 666 329 483 340 
510 9 558 445 23 101 200 415 213 622 210 
511 9 523 446 217 492 267 450 553 334 675 
512 9 589 495 408 90 539 553 217 636 203 
513 9 336 117 669 259 557 195 361 70 503 
514 9 373 466 120 146 291 692 308 274 10 
515 9 633 159 331 83 554 69 487 562 182 
516 9 102 683 315 368 663 275 677 352 6 
517 9 155 467 455 147 367 597 648 617 526 
518 9 379 267 64 446 54 523 86 366 509 
519 9 186 473 697 703 150 287 66 325 151 
520 9 35 440 107 426 590 528 695 701 148 
521 9 298 197 126 395 18 573 127 175 183 
522 9 407 25 260 451 332 454 280 347 708 
523 9 267 64 446 518 366 511 379 217 539 
524 9 423 500 388 257 667 7 360 213 338 
525 9 141 584 99 573 18 230 126 395 284 
526 9 139 617 685 597 155 413 607 416 481 
527 9 698 325 330 402 300 152 670 12 136 
528 9 107 474 426 35 440 555 520 658 640 
529 9 540 113 641 237 168 196 225 661 468 
530 9 566 243 616 447 381 622 215 331 159 
531 9 128 378 666 509 483 329 340 632 485 
532 9 51 628 631 687 13 181 372 164 195 
533 9 458 537 559 705 436 386 2 339 421 
534 9 94 301 396 344 591 320 556 223 103 
535 9 256 369 564 632 33 483 414 485 329 
536 9 401 691 355 241 73 295 424 581 327 
537 9 386 533 2 705 280 436 559 458 551 
538 9 353 667 79 419 500 74 688 642 216 
539 9 217 553 366 90 523 589 64 512 267 
540 9 529 113 641 237 168 196 225 661 468 
541 9 189 297 8 211 376 251 659 206 322 
542 9 122 303 19 201 49 335 568 676 380 
543 9 76 587 235 9 677 343 119 137 102 
544 9 693 709 470 46 304 700 403 406 250 
545 9 306 654 645 611 130 23 77 173 357 
546 9 470 304 403 544 568 676 221 693 709 
547 9 651 103 396 320 134 179 223 604 347 
548 9 249 72 191 665 683 315 235 505 587 
549 9 659 376 297 442 189 384 541 61 623 
550 9 398 684 118 711 575 323 287 152 300 
551 9 705 22 421 537 444 2 533 596 192 
552 9 579 363 649 219 156 661 229 5 239 
553 9 217 539 636 511 408 512 523 589 366 
554 9 98 182 487 100 69 114 85 337 515 
555 9 292 605 658 528 107 448 474 226 426 
556 9 223 347 301 103 25 651 344 396 94 
557 9 361 412 117 497 513 441 336 490 204 
558 9 101 510 213 200 622 338 228 423 257 
559 9 436 533 339 537 458 386 2 280 479 
560 9 30 205 383 644 89 384 638 242 595 
561 9 608 660 253 118 45 450 334 398 492 
562 9 7 388 338 331 381 159 515 633 360 
563 9 135 356 414 33 160 312 48 369 429 
564 9 369 414 535 256 33 563 135 632 356 
565 9 144 254 65 145 290 17 350 15 418 
566 9 243 530 381 616 622 447 331 101 338 
567 9 674 12 89 205 302 330 383 30 242 
568 9 676 303 546 201 304 19 403 470 221 
569 9 187 435 31 356 619 598 193 29 204 
570 9 461 460 392 210 173 415 23 445 93 
571 9 507 577 167 142 417 319 447 616 215 
572 9 311 220 489 345 96 309 588 672 342 
573 9 18 126 141 525 309 395 521 584 99 
574 9 143 203 385 190 90 609 585 285 216 
575 9 711 323 136 152 670 300 550 398 402 
576 9 422 707 117 336 397 417 513 441 497 
577 9 507 167 571 142 417 319 576 215 447 
578 9 273 431 656 169 56 198 488 453 208 
579 9 552 649 219 363 156 229 239 5 234 
580 9 277 42 502 488 53 194 169 694 252 
581 9 327 355 401 536 168 424 691 295 166 
582 9 479 456 26 459 88 708 248 354 451 
583 9 87 231 179 236 269 178 433 188 604 
584 9 99 525 141 230 284 359 20 395 573 
585 9 285 216 437 190 104 329 143 385 609 
586 9 434 462 296 171 247 678 391 606 82 
587 9 235 543 679 677 76 683 548 9 249 
588 9 342 469 309 220 305 55 345 572 18 
589 9 512 495 90 203 408 539 574 357 553 
590 9 695 348 148 640 140 701 133 520 35 
591 9 172 163 534 478 94 266 344 44 248 
592 9 485 185 452 475 639 340 483 58 92 
593 9 176 317 52 489 95 428 494 662 375 
594 9 288 240 93 671 457 310 696 177 125 
595 9 382 638 218 359 284 20 499 57 411 
596 9 192 27 652 278 22 106 252 444 689 
597 9 155 526 685 617 139 428 517 416 375 
598 9 204 31 619 164 435 569 187 193 361 
599 9 154 44 266 172 591 163 534 94 320 
600 9 477 712 130 207 495 105 408 512 589 
601 8 430 630 629 704 413 481 496 139 
602 9 14 449 458 339 255 533 421 559 640 
603 9 73 129 241 112 714 59 536 351 401 
604 9 269 454 651 179 103 547 87 453 134 
605 9 226 658 292 555 448 657 615 107 440 
606 9 82 296 81 171 434 586 462 374 410 
607 9 481 617 413 139 526 147 629 648 455 
608 9 118 323 561 711 398 492 713 550 450 
609 9 385 585 203 216 143 574 123 184 190 
610 9 316 690 60 264 506 427 681 710 377 
611 9 77 200 228 124 645 123 357 184 213 
612 9 299 400 270 328 279 389 625 313 404 
613 9 196 34 237 109 641 529 540 166 484 
614 9 149 40 621 624 57 242 218 382 383 
615 9 226 448 504 352 605 292 324 11 658 
616 9 447 530 566 243 215 319 381 83 159 
617 9 526 139 607 685 155 413 597 147 481 
618 9 58 180 131 68 639 452 185 92 439 
619 9 31 435 187 569 598 29 204 356 429 
620 9 440 161 346 520 657 668 107 701 658 
621 9 624 614 40 406 700 149 682 41 46 
622 9 101 243 566 338 381 7 530 331 388 
623 9 61 86 439 442 206 54 376 549 297 
624 9 621 614 682 41 700 149 40 406 46 
625 9 328 400 299 279 389 404 612 640 695 
626 9 37 715 482 115 157 627 71 393 468 
627 9 635 21 16 32 468 482 110 157 272 
628 9 181 51 532 662 95 687 13 631 96 
629 9 481 413 607 601 139 430 617 526 685 
630 8 704 430 601 318 646 62 496 397 
631 9 13 372 195 70 259 532 687 164 669 
632 9 256 329 535 33 369 483 104 370 564 
633 9 159 515 331 83 69 381 554 562 7 
634 9 258 394 193 138 475 598 687 164 204 
635 9 21 16 627 32 272 110 706 482 5 
636 9 553 174 217 408 675 539 512 511 105 
637 9 432 80 133 140 246 148 348 701 590 
638 9 382 595 218 40 57 149 359 284 499 
639 9 452 58 185 592 618 485 475 92 340 
640 9 695 590 35 426 474 528 602 625 348 
641 9 237 529 168 540 196 113 613 166 271 
642 9 688 312 370 160 353 79 135 437 104 
643 9 321 365 49 162 50 122 465 508 63 
644 9 384 560 205 330 30 89 136 527 567 
645 9 77 357 306 611 545 654 123 124 200 
646 9 97 227 212 496 503 397 707 669 91 
647 9 476 4 199 429 48 341 160 29 337 
648 9 147 455 155 517 607 617 467 481 526 
649 9 219 579 229 239 156 234 81 202 552 
650 9 699 78 294 161 346 491 333 620 668 
651 9 103 547 396 223 347 320 556 604 134 
652 9 106 27 22 596 278 28 286 192 252 
653 9 399 244 158 39 153 265 188 268 326 
654 9 306 545 23 445 611 645 173 510 200 
655 9 15 425 350 265 153 145 290 231 178 
656 9 273 578 431 56 198 453 169 332 208 
657 9 668 658 440 226 605 620 107 292 528 
658 9 605 226 292 657 555 107 440 528 668 
659 9 297 189 376 549 384 541 644 8 211 
660 9 118 398 561 550 608 684 711 323 575 
661 9 363 468 156 552 225 113 579 627 219 
662 9 95 494 181 375 593 52 428 628 489 
663 9 324 352 504 6 11 615 516 686 448 
664 9 214 307 387 119 238 364 343 137 314 
665 9 72 191 249 548 132 315 505 683 464 
666 9 128 483 531 340 485 378 92 535 632 
667 9 500 538 79 419 353 74 360 114 182 
668 9 657 658 226 440 605 620 333 107 161 
669 9 503 70 259 212 195 372 513 336 227 
670 9 300 136 152 527 402 698 325 330 644 
671 9 240 696 457 310 112 594 282 351 288 
672 9 96 311 345 572 489 68 181 131 305 
673 9 174 105 45 253 636 675 408 207 334 
674 9 567 89 205 302 383 242 12 30 330 
675 9 334 450 253 174 636 511 492 553 217 
676 9 568 201 303 546 19 221 403 470 304 
677 9 9 76 102 275 368 308 516 274 543 
678 9 247 391 462 586 108 434 171 296 680 
679 9 587 235 166 498 548 543 249 683 165 
680 9 108 261 391 678 247 111 233 67 374 
681 9 377 427 506 690 692 610 10 316 291 
682 9 41 624 621 700 709 46 304 406 614 
683 9 315 249 516 191 72 548 665 102 505 
684 9 550 398 118 575 287 711 323 152 402 
685 9 526 139 617 597 416 413 121 607 155 
686 9 274 6 308 368 275 84 466 53 194 
687 9 164 532 394 631 51 634 204 258 598 
688 9 642 312 370 353 79 160 135 437 419 
689 9 444 192 252 694 169 198 596 278 27 
690 9 316 610 427 60 264 681 710 377 506 
691 9 295 424 536 355 401 471 241 47 73 
692 9 291 10 120 146 373 506 514 466 283 
693 9 544 46 709 470 700 250 406 304 403 
694 9 252 689 169 192 444 278 596 27 198 
695 9 590 640 348 35 148 520 426 140 701 
696 9 671 457 112 240 310 282 351 594 59 
697 9 186 519 703 325 473 402 698 66 12 
698 9 325 12 330 527 567 402 674 300 697 
699 9 78 650 161 491 333 294 346 620 668 
700 9 46 709 406 693 544 470 304 621 624 
701 9 148 133 140 348 590 520 246 695 637 
702 9 116 486 24 151 245 150 473 335 186 
703 9 186 66 697 519 473 443 12 325 150 
704 8 630 601 430 318 62 371 646 397 
705 9 551 537 421 533 458 2 386 22 255 
706 9 16 261 272 21 157 233 635 32 482 
707 9 397 576 422 646 212 503 336 97 117 
708 9 26 456 479 451 459 407 25 582 436 
709 9 544 46 693 700 470 304 406 250 546 
710 9 209 264 38 60 316 262 39 690 433 
711 9 323 575 398 550 118 442 713 684 608 
712 9 477 600 130 207 495 105 232 545 645 
713 9 492 323 442 623 711 61 86 446 450 
714 8 241 73 59 704 371 630 62 318 
715 9 50 162 393 71 463 626 37 36 115 
DEPOT_SECTION
   1
   -1
EOF
