NAME :  X-n783-kX-w312-c9.cctp
COMMENT : 	Adapted by Maziero, Usberti and Cavellucci from the Uchoa, Pecin, Pessoa, Poggi, Subramanian, and Vidal (2013)
TYPE :  CCTP
DIMENSION :    778
EDGE_WEIGHT_TYPE : 	EUC_2D	
CAPACITY : 	832
VERTICES_WITHIN_COVERAGE :  9
VERTICES_WITH_DEMAND : 	312
NODE_COORD_SECTION
1 909 919
2 878 721
3 969 85
4 591 195
5 955 148
6 587 903
7 994 792
8 625 129
9 544 703
10 461 167
11 37 644
12 615 22
13 773 788
14 384 364
15 51 291
16 109 732
17 570 124
18 692 985
19 62 150
20 358 5
21 188 450
22 674 658
23 676 904
24 815 984
25 710 16
26 74 658
27 576 1000
28 636 695
29 547 92
30 587 397
31 26 150
32 182 561
33 938 462
34 362 928
35 366 835
36 516 892
37 448 923
38 501 445
39 513 799
40 905 388
41 474 791
42 560 782
43 465 552
44 315 645
45 738 396
46 45 915
47 797 871
48 922 643
49 793 586
50 921 458
51 160 295
52 598 257
53 516 221
54 99 169
55 788 634
56 425 751
57 616 680
58 949 444
59 987 459
60 182 279
61 127 354
62 791 822
63 645 609
64 857 386
65 917 154
66 398 480
67 729 688
68 134 510
69 172 2
70 499 737
71 780 565
72 908 477
73 917 341
74 272 553
75 421 876
76 770 2
77 497 623
78 853 27
79 853 521
80 519 196
81 90 822
82 827 901
83 350 168
84 656 56
85 199 924
86 732 55
87 772 748
88 884 973
89 158 430
90 563 13
91 50 959
92 609 223
93 628 860
94 264 436
95 699 764
96 441 479
97 95 246
98 236 627
99 307 893
100 695 302
101 378 639
102 830 30
103 44 339
104 885 644
105 122 603
106 850 732
107 155 865
108 230 346
109 300 719
110 55 954
111 467 494
112 153 641
113 713 82
114 659 564
115 881 18
116 781 654
117 490 806
118 823 569
119 878 496
120 441 898
121 589 516
122 165 614
123 17 749
124 164 778
125 296 858
126 258 488
127 437 866
128 187 88
129 725 988
130 125 619
131 352 701
132 447 517
133 316 80
134 743 575
135 555 373
136 84 140
137 341 827
138 541 567
139 919 768
140 945 924
141 397 932
142 905 944
143 892 37
144 74 227
145 911 617
146 668 697
147 1 96
148 223 299
149 637 118
150 622 958
151 356 127
152 347 777
153 157 190
154 8 497
155 138 78
156 100 192
157 384 598
158 23 228
159 110 163
160 345 464
161 53 628
162 316 705
163 112 361
164 642 405
165 235 578
166 489 621
167 563 916
168 759 215
169 822 262
170 597 310
171 960 837
172 164 988
173 37 513
174 648 247
175 375 402
176 531 205
177 935 676
178 103 549
179 964 651
180 233 241
181 891 112
182 378 472
183 457 893
184 852 861
185 113 701
186 340 913
187 662 198
188 667 718
189 140 332
190 809 908
191 968 908
192 163 857
193 333 418
194 59 136
195 839 123
196 529 215
197 385 380
198 319 417
199 318 216
200 156 119
201 816 160
202 267 210
203 528 320
204 138 787
205 473 713
206 537 114
207 168 838
208 774 825
209 32 510
210 216 372
211 16 935
212 60 733
213 500 37
214 343 363
215 429 41
216 205 398
217 708 298
218 411 109
219 840 359
220 112 603
221 816 310
222 865 775
223 259 348
224 893 516
225 814 607
226 605 162
227 781 239
228 359 199
229 16 739
230 482 214
231 70 526
232 528 103
233 572 770
234 802 517
235 876 469
236 118 571
237 952 781
238 823 795
239 522 595
240 52 336
241 456 367
242 255 413
243 410 194
244 956 21
245 717 142
246 766 880
247 524 825
248 657 640
249 189 232
250 471 339
251 920 809
252 688 98
253 660 781
254 441 81
255 236 735
256 784 692
257 743 446
258 201 32
259 188 957
260 381 605
261 380 904
262 227 263
263 69 94
264 123 416
265 341 341
266 450 482
267 251 533
268 352 591
269 724 967
270 753 539
271 684 924
272 617 989
273 455 500
274 472 926
275 395 683
276 167 357
277 789 678
278 897 272
279 991 492
280 457 837
281 809 754
282 770 852
283 153 799
284 643 455
285 924 995
286 788 75
287 147 318
288 85 634
289 373 184
290 99 998
291 312 527
292 846 684
293 725 123
294 806 813
295 566 172
296 191 307
297 373 125
298 463 353
299 906 762
300 91 96
301 40 521
302 579 597
303 907 73
304 718 33
305 279 156
306 114 156
307 220 648
308 948 992
309 969 895
310 986 791
311 78 292
312 857 236
313 816 111
314 559 896
315 791 579
316 228 922
317 856 201
318 155 8
319 243 347
320 48 593
321 954 72
322 549 308
323 401 200
324 2 686
325 301 649
326 467 112
327 810 8
328 984 28
329 918 370
330 89 382
331 88 406
332 586 337
333 151 693
334 550 217
335 438 295
336 606 719
337 178 588
338 434 358
339 136 341
340 544 174
341 504 41
342 282 685
343 39 476
344 104 90
345 460 557
346 86 722
347 80 399
348 694 749
349 707 652
350 794 129
351 774 72
352 922 819
353 735 359
354 801 212
355 707 226
356 102 861
357 358 730
358 462 414
359 49 853
360 750 829
361 224 328
362 581 819
363 49 715
364 84 563
365 305 734
366 917 652
367 530 838
368 529 296
369 403 43
370 681 779
371 393 11
372 208 154
373 646 369
374 37 206
375 122 294
376 451 649
377 993 339
378 604 580
379 274 509
380 289 185
381 728 595
382 952 690
383 989 745
384 958 560
385 966 296
386 104 963
387 478 854
388 394 459
389 147 617
390 39 967
391 537 957
392 740 958
393 544 247
394 186 913
395 38 939
396 839 23
397 754 893
398 930 149
399 430 951
400 739 15
401 202 774
402 104 669
403 241 910
404 189 181
405 645 128
406 500 603
407 577 997
408 146 161
409 662 708
410 360 721
411 622 159
412 264 483
413 166 281
414 881 938
415 137 613
416 403 69
417 897 132
418 710 807
419 965 334
420 127 729
421 918 559
422 450 19
423 522 569
424 202 666
425 127 378
426 156 913
427 306 328
428 97 971
429 747 419
430 838 961
431 391 886
432 484 126
433 828 28
434 954 279
435 930 285
436 739 507
437 750 567
438 921 125
439 654 832
440 440 878
441 720 914
442 606 394
443 372 600
444 869 892
445 831 124
446 471 928
447 511 594
448 778 117
449 867 996
450 417 918
451 554 923
452 920 808
453 944 824
454 389 203
455 222 972
456 741 70
457 101 132
458 110 652
459 533 564
460 891 336
461 661 893
462 15 879
463 527 56
464 481 860
465 709 388
466 105 381
467 210 937
468 550 23
469 603 51
470 582 48
471 415 206
472 591 850
473 776 80
474 354 660
475 301 884
476 50 500
477 240 938
478 530 386
479 859 502
480 826 779
481 86 854
482 923 289
483 403 612
484 771 629
485 983 321
486 550 820
487 80 276
488 189 636
489 676 601
490 129 319
491 363 577
492 340 524
493 490 220
494 584 523
495 553 110
496 935 660
497 830 469
498 539 52
499 278 487
500 637 548
501 674 905
502 823 923
503 999 837
504 565 337
505 82 851
506 969 38
507 498 300
508 791 314
509 693 895
510 710 695
511 390 537
512 837 407
513 220 391
514 484 78
515 618 221
516 180 686
517 959 960
518 934 765
519 951 543
520 752 859
521 402 222
522 487 708
523 434 776
524 129 119
525 438 308
526 153 438
527 564 929
528 541 777
529 290 772
530 202 468
531 432 949
532 117 642
533 413 752
534 719 52
535 779 106
536 543 161
537 963 277
538 112 459
539 301 817
540 80 48
541 300 770
542 622 470
543 148 130
544 70 782
545 488 540
546 814 887
547 423 243
548 431 107
549 792 289
550 84 21
551 679 989
552 159 535
553 180 610
554 155 207
555 424 341
556 829 839
557 828 485
558 579 290
559 621 918
560 92 563
561 609 789
562 233 130
563 184 475
564 182 513
565 601 785
566 828 106
567 482 409
568 587 627
569 396 611
570 833 257
571 653 648
572 552 862
573 804 553
574 12 198
575 887 275
576 183 925
577 242 857
578 749 551
579 651 13
580 373 643
581 731 963
582 219 275
583 568 499
584 714 734
585 617 325
586 560 470
587 837 631
588 4 304
589 79 917
590 355 877
591 735 76
592 745 354
593 621 723
594 145 377
595 119 768
596 638 271
597 574 247
598 924 493
599 924 402
600 91 336
601 599 6
602 635 887
603 660 944
604 716 219
605 186 35
606 679 861
607 919 121
608 822 482
609 151 384
610 407 860
611 869 930
612 928 75
613 139 615
614 625 969
615 756 128
616 252 842
617 123 311
618 90 412
619 404 744
620 216 14
621 906 567
622 15 55
623 719 567
624 948 717
625 614 496
626 564 906
627 179 656
628 774 462
629 207 724
630 355 609
631 344 833
632 726 657
633 971 896
634 958 954
635 351 186
636 39 94
637 18 167
638 396 368
639 416 570
640 653 463
641 792 716
642 649 420
643 332 103
644 561 229
645 144 320
646 971 672
647 44 186
648 924 415
649 267 418
650 782 427
651 715 867
652 306 493
653 853 704
654 293 285
655 468 127
656 464 700
657 692 310
658 610 428
659 257 608
660 980 789
661 25 7
662 918 803
663 740 837
664 762 527
665 50 710
666 978 624
667 775 736
668 551 199
669 416 970
670 630 871
671 926 116
672 413 103
673 724 481
674 293 786
675 959 178
676 244 56
677 28 579
678 465 381
679 342 15
680 267 887
681 339 737
682 219 933
683 750 110
684 533 943
685 116 72
686 708 481
687 556 836
688 421 584
689 777 841
690 664 334
691 340 957
692 138 690
693 185 939
694 895 564
695 384 127
696 221 151
697 164 405
698 788 509
699 171 394
700 33 379
701 987 917
702 810 274
703 892 692
704 267 798
705 881 293
706 1 227
707 935 348
708 441 344
709 527 995
710 487 506
711 395 580
712 405 978
713 557 620
714 966 509
715 571 996
716 835 166
717 57 410
718 214 405
719 462 92
720 734 399
721 69 747
722 589 624
723 272 760
724 936 678
725 84 652
726 525 364
727 908 779
728 600 19
729 548 288
730 33 90
731 479 319
732 717 960
733 360 458
734 204 29
735 799 441
736 602 46
737 372 106
738 707 678
739 884 598
740 401 345
741 889 818
742 288 295
743 453 130
744 587 936
745 169 316
746 271 407
747 428 772
748 461 415
749 926 968
750 61 305
751 435 146
752 653 395
753 820 279
754 637 547
755 302 267
756 620 2
757 973 397
758 58 455
759 561 40
760 147 381
761 452 610
762 963 618
763 948 761
764 850 189
765 785 845
766 65 388
767 900 613
768 668 101
769 445 170
770 660 387
771 57 176
772 373 307
773 365 297
774 117 1000
775 765 916
776 62 12
777 428 75
778 387 877
DEMAND_SECTION
2 85
3 34
4 47
5 49
6 75
7 87
8 13
9 92
10 85
11 3
12 18
13 87
14 96
15 72
16 38
17 5
18 59
19 75
20 81
21 68
22 99
23 66
24 67
25 33
26 30
27 73
28 61
29 18
30 37
31 81
32 36
33 17
34 31
35 25
36 85
37 12
38 44
39 60
40 5
41 23
42 58
43 29
44 9
45 13
46 1
47 100
48 88
49 53
50 30
51 66
52 47
53 35
54 55
55 83
56 20
57 84
58 36
59 50
60 76
61 70
62 80
63 79
64 44
65 26
66 60
67 80
68 40
69 60
70 46
71 62
72 50
73 32
74 18
75 3
76 16
77 30
78 4
79 68
80 6
81 34
82 93
83 58
84 10
85 45
86 27
87 90
88 77
89 98
90 40
91 41
92 30
93 58
94 63
95 78
96 67
97 51
98 32
99 25
100 26
101 25
102 25
103 67
104 99
105 41
106 66
107 47
108 86
109 18
110 19
111 85
112 23
113 14
114 79
115 48
116 93
117 9
118 80
119 34
120 19
121 79
122 21
123 20
124 44
125 24
126 60
127 14
128 87
129 88
130 23
131 29
132 12
133 61
134 90
135 12
136 84
137 20
138 85
139 68
140 60
141 21
142 53
143 29
144 67
145 84
146 86
147 86
148 60
149 2
150 64
151 77
152 10
153 85
154 81
155 92
156 93
157 12
158 63
159 79
160 97
161 41
162 50
163 70
164 39
165 21
166 40
167 99
168 29
169 21
170 46
171 96
172 38
173 48
174 24
175 89
176 12
177 96
178 41
179 62
180 57
181 5
182 60
183 5
184 72
185 35
186 6
187 6
188 51
189 52
190 77
191 59
192 17
193 78
194 60
195 23
196 24
197 92
198 60
199 99
200 79
201 37
202 66
203 1
204 44
205 29
206 2
207 38
208 65
209 11
210 72
211 50
212 46
213 7
214 96
215 79
216 78
217 17
218 53
219 21
220 30
221 47
222 62
223 62
224 59
225 81
226 25
227 20
228 55
229 19
230 54
231 28
232 12
233 61
234 100
235 46
236 41
237 96
238 58
239 56
240 71
241 51
242 78
243 72
244 18
245 7
246 79
247 90
248 74
249 82
250 85
251 100
252 29
253 98
254 99
255 5
256 72
257 9
258 92
259 48
260 2
261 27
262 57
263 54
264 96
265 70
266 64
267 27
268 14
269 95
270 55
271 89
272 86
273 36
274 18
275 7
276 91
277 66
278 20
279 49
280 11
281 57
282 100
283 33
284 31
285 65
286 33
287 80
288 27
289 77
290 49
291 46
292 86
293 28
294 51
295 32
296 66
297 94
298 80
299 60
300 62
301 17
302 86
303 33
304 16
305 94
306 54
307 21
308 55
309 53
310 85
311 93
312 32
313 24
COVERAGE_SECTION
2 9 106 653 703 292 299 222 139 727 624 
3 9 321 612 506 671 328 438 607 303 5 
4 9 92 295 226 515 668 644 334 411 340 
5 9 398 675 65 438 671 607 417 3 181 
6 9 626 167 314 744 527 559 451 602 472 
7 9 310 660 237 503 383 763 171 453 518 
8 9 149 405 411 226 768 17 252 295 4 
9 9 70 522 336 205 233 528 57 593 656 
10 9 769 751 743 655 432 230 326 243 471 
11 9 161 26 725 288 320 324 677 665 363 
12 9 728 756 601 736 469 579 470 84 90 
13 9 208 62 87 294 360 238 281 667 689 
14 9 638 197 740 175 214 555 265 338 772 
15 9 750 311 487 240 103 588 600 97 144 
16 9 420 346 185 595 721 212 692 333 204 
17 9 495 206 29 536 232 295 226 8 340 
18 9 551 129 732 269 581 603 392 271 614 
19 9 194 136 771 31 647 54 457 637 159 
20 9 679 371 369 416 215 133 422 777 643 
21 9 530 563 89 526 697 718 216 699 564 
22 9 571 248 349 146 738 409 510 632 28 
23 9 501 461 509 271 603 606 602 441 651 
24 9 430 449 502 88 190 611 392 414 82 
25 9 304 400 534 86 579 76 456 591 113 
26 9 725 288 402 458 161 11 532 665 185 
27 9 407 715 272 709 391 614 150 744 684 
28 9 57 409 146 593 336 188 571 22 248 
29 9 495 232 206 17 463 498 759 470 514 
30 9 442 658 135 164 478 332 504 373 642 
31 9 637 19 194 647 771 574 374 636 136 
32 9 337 552 564 553 122 165 236 389 415 
33 9 50 58 72 598 59 648 714 279 235 
34 9 186 261 141 691 431 590 450 778 99 
35 9 631 137 590 778 610 431 152 539 75 
36 9 314 464 572 451 626 167 387 684 274 
37 9 274 446 120 183 450 531 399 440 141 
38 9 567 358 748 111 266 710 586 478 96 
39 9 117 247 528 41 367 486 42 687 70 
40 9 329 599 648 64 73 707 460 757 58 
41 9 117 39 523 280 747 70 247 56 387 
42 9 233 528 486 565 362 561 39 687 247 
43 9 345 545 132 710 639 273 688 111 423 
44 9 325 474 342 630 580 162 101 268 131 
45 9 720 429 465 353 592 257 650 628 735 
46 9 395 589 211 110 91 462 390 359 481 
47 9 546 765 246 282 689 190 82 556 520 
48 9 366 496 145 177 104 767 724 179 762 
49 9 315 71 225 118 573 437 55 484 134 
50 9 33 72 58 598 648 235 599 119 224 
51 9 413 745 287 60 645 296 375 490 617 
52 9 597 92 558 515 596 644 174 170 393 
53 9 196 176 80 493 334 230 393 668 644 
54 9 159 306 156 136 457 19 771 408 194 
55 9 484 116 225 277 49 587 315 256 632 
56 9 533 747 619 523 205 41 656 357 410 
57 9 28 336 593 571 409 146 248 568 22 
58 9 33 50 648 59 599 72 757 598 279 
59 9 279 58 33 714 757 50 598 648 72 
60 9 413 51 296 582 745 148 249 262 287 
61 9 339 163 425 189 594 760 466 490 609 
62 9 208 294 689 765 282 13 238 360 556 
63 9 489 248 571 114 378 22 722 568 500 
64 9 512 219 40 460 329 599 648 73 735 
65 9 398 438 417 607 5 671 675 181 764 
66 9 388 182 96 733 266 160 511 273 132 
67 9 510 738 632 349 584 256 277 116 146 
68 9 552 564 178 538 563 236 231 560 32 
69 9 318 605 258 734 620 155 128 550 676 
70 9 522 205 656 9 528 41 39 117 56 
71 9 315 49 573 437 578 270 134 664 118 
72 9 50 598 235 33 119 224 58 479 648 
73 9 707 460 329 40 419 482 435 705 599 
74 9 267 379 165 291 659 126 499 652 412 
75 9 127 440 610 120 431 778 183 450 261 
76 9 400 327 304 25 433 86 102 351 534 
77 9 166 406 447 239 761 376 423 713 459 
78 9 396 102 433 115 143 327 303 286 566 
79 9 479 119 224 557 608 234 118 235 497 
80 9 176 196 53 668 340 334 493 230 536 
81 9 505 481 356 544 359 204 595 283 107 
82 9 190 546 502 47 444 184 611 430 556 
83 9 635 289 228 151 297 454 695 199 323 
84 9 579 768 12 252 469 736 113 534 149 
85 9 576 394 467 693 682 316 259 477 403 
86 9 534 456 591 304 113 400 25 351 473 
87 9 667 281 641 13 256 584 480 238 277 
88 9 449 414 142 749 285 611 430 308 24 
89 9 526 697 21 264 699 609 760 563 538 
90 9 468 759 601 728 470 498 736 12 469 
91 9 110 390 395 211 46 428 589 386 290 
92 9 515 4 52 597 174 644 596 187 334 
93 9 670 602 439 472 461 606 559 6 362 
94 9 649 242 746 412 126 499 198 718 513 
95 9 348 370 584 253 418 188 409 510 146 
96 9 266 273 111 132 66 388 710 182 748 
97 9 144 487 311 156 375 15 750 374 617 
98 9 307 659 488 165 424 553 627 325 337 
99 8 475 125 186 680 590 34 403 631 
100 9 657 217 690 596 353 174 592 355 585 
101 9 580 474 569 260 483 630 443 157 275 
102 9 433 396 78 327 115 143 286 76 351 
103 9 240 750 700 600 15 588 766 311 330 
104 9 366 767 48 145 739 703 587 496 292 
105 9 220 130 415 613 389 236 532 122 288 
106 9 653 2 222 281 292 480 703 641 299 
107 9 192 207 426 356 394 283 576 481 85 
108 9 319 361 223 210 513 148 296 216 718 
109 9 365 162 342 681 723 541 529 131 357 
110 9 91 390 395 46 211 589 428 386 290 
111 9 273 266 710 96 132 545 43 38 345 
112 9 389 122 613 627 415 130 488 532 553 
113 9 591 252 456 534 86 293 683 304 768 
114 9 500 754 489 63 378 623 248 381 625 
115 9 143 78 396 102 433 303 327 612 244 
116 9 55 277 484 256 632 225 587 67 641 
117 9 41 39 247 280 387 367 464 528 486 
118 9 573 49 315 225 71 234 79 587 739 
119 9 479 224 235 79 72 598 557 497 50 
120 9 183 440 37 75 450 127 274 446 431 
121 9 494 583 625 586 542 754 500 378 138 
122 9 553 389 613 415 337 112 488 130 105 
123 9 229 212 363 665 721 544 324 346 16 
124 9 283 204 401 595 207 420 629 16 192 
125 9 475 99 539 680 616 577 631 137 590 
126 9 412 499 379 267 652 94 530 74 291 
127 9 440 75 610 120 183 280 387 464 431 
128 9 200 155 605 543 258 734 562 676 524 
129 9 269 581 732 18 392 551 441 271 603 
130 9 415 613 105 220 389 532 112 458 122 
131 9 410 357 162 681 474 275 109 365 580 
132 9 273 111 266 96 43 710 345 545 511 
133 9 643 151 737 679 297 676 695 305 20 
134 9 437 381 578 623 270 71 315 49 664 
135 9 478 726 504 30 332 442 203 322 170 
136 9 457 19 194 54 306 159 300 771 263 
137 9 631 35 539 152 590 125 674 778 475 
138 9 459 423 239 447 302 406 713 545 494 
139 9 299 518 727 763 237 662 452 251 352 
140 9 191 634 309 633 517 701 142 749 414 
141 9 450 261 34 399 531 669 431 712 37 
142 9 414 749 88 611 140 285 634 517 444 
143 9 115 303 78 612 396 102 433 244 321 
144 9 97 374 156 487 158 647 771 54 311 
145 9 767 48 739 366 104 496 621 762 694 
146 9 409 188 28 22 510 738 571 593 57 
147 9 730 636 622 31 263 194 637 19 300 
148 9 582 361 296 262 60 108 319 745 180 
149 9 405 8 768 411 226 252 84 17 469 
150 9 614 272 559 603 744 407 27 715 6 
151 9 297 737 695 643 83 218 289 635 133 
152 9 681 357 541 137 674 631 410 529 365 
153 9 554 408 404 249 159 306 156 543 54 
154 9 209 173 343 301 476 758 231 677 717 
155 9 685 344 524 200 128 300 543 605 457 
156 9 54 159 306 144 771 97 136 408 647 
157 9 260 443 569 711 483 491 630 268 688 
158 9 706 374 574 647 144 637 771 15 97 
159 9 306 54 156 457 136 408 524 19 543 
160 9 733 182 193 388 652 198 66 492 175 
161 9 11 288 320 26 725 677 458 220 402 
162 9 109 365 131 342 681 410 357 325 474 
163 9 61 466 425 330 339 600 594 189 760 
164 9 752 642 770 373 442 658 284 30 640 
165 9 659 74 267 98 32 337 553 307 488 
166 9 77 406 447 761 239 376 423 713 345 
167 9 626 451 527 314 6 744 684 391 36 
168 9 227 354 604 355 702 169 201 549 245 
169 9 570 702 753 549 312 227 221 354 508 
170 9 585 558 332 504 322 52 729 596 597 
171 9 453 503 352 251 452 660 310 662 7 
172 9 259 774 693 455 386 290 576 428 467 
173 9 209 301 476 154 231 343 758 677 364 
174 9 596 515 92 52 187 355 100 597 604 
175 9 197 14 638 193 214 198 733 388 740 
176 9 196 80 668 53 334 340 644 393 493 
177 9 724 496 382 366 48 646 179 624 703 
178 9 560 364 236 231 68 220 105 552 301 
179 9 646 496 666 762 177 724 382 48 366 
180 9 262 582 249 202 148 60 404 654 755 
181 9 417 607 438 671 303 65 612 195 398 
182 9 388 66 733 160 96 492 511 175 193 
183 9 120 440 37 127 274 446 75 464 387 
184 9 556 444 546 82 47 741 190 294 502 
185 9 692 16 420 402 346 333 458 725 26 
186 9 34 99 590 261 691 475 431 778 141 
187 9 515 174 355 411 604 92 226 4 405 
188 9 409 146 28 348 593 510 584 95 738 
189 9 339 645 287 490 61 617 745 276 163 
190 9 82 502 546 47 775 246 397 430 444 
191 9 633 309 701 140 634 517 171 142 749 
192 9 107 207 426 283 356 394 576 204 85 
193 9 198 175 160 733 214 746 197 649 182 
194 9 19 136 31 771 457 263 636 300 637 
195 9 445 566 313 716 201 350 181 417 448 
196 9 176 53 80 334 668 393 644 493 340 
197 9 14 638 175 740 214 338 555 265 193 
198 9 193 746 649 160 94 175 733 214 242 
199 9 380 228 635 202 755 83 289 305 454 
200 9 543 524 408 128 155 306 457 344 685 
201 9 716 350 445 195 764 313 354 566 317 
202 9 380 180 199 305 262 755 696 654 249 
203 9 322 368 507 729 504 726 731 135 558 
204 9 283 595 124 81 207 420 16 401 544 
205 9 522 656 70 56 376 9 533 523 747 
206 9 232 495 29 17 536 432 463 340 498 
207 9 192 107 283 204 124 356 401 426 577 
208 9 689 62 765 360 282 294 663 13 520 
209 9 173 301 476 154 343 231 758 677 364 
210 9 513 216 108 718 319 361 223 699 276 
211 9 395 46 390 91 110 462 589 359 428 
212 9 721 363 665 346 229 123 16 544 185 
213 9 341 463 498 514 468 422 759 90 719 
214 9 265 14 197 175 427 638 193 198 740 
215 9 369 422 777 416 254 371 719 672 514 
216 9 718 513 210 699 697 242 21 276 609 
217 9 100 657 690 353 592 355 596 174 604 
218 9 672 548 695 777 737 254 297 416 751 
219 9 64 512 221 460 508 40 705 73 329 
220 9 105 130 415 613 236 389 532 288 560 
221 9 508 753 549 702 169 219 570 705 227 
222 9 480 299 727 106 238 741 139 2 281 
223 9 319 108 361 210 427 513 742 746 148 
224 9 119 479 598 79 72 694 235 421 621 
225 9 49 587 315 55 118 484 71 573 116 
226 9 411 4 8 295 17 405 149 515 92 
227 9 168 354 702 169 549 570 753 604 355 
228 9 635 289 454 83 323 199 521 243 471 
229 9 123 363 212 665 721 324 544 346 16 
230 9 493 53 80 196 176 10 769 547 471 
231 9 301 476 173 178 364 209 560 343 68 
232 9 206 29 495 17 463 432 514 498 536 
233 9 42 528 565 561 362 486 336 39 593 
234 9 698 573 608 557 664 79 71 270 118 
235 9 119 72 479 50 497 224 557 598 608 
236 9 178 560 105 220 364 415 130 613 389 
237 9 763 518 660 139 310 662 452 7 251 
238 9 480 294 62 281 556 222 13 208 765 
239 9 447 406 423 459 138 77 166 713 302 
240 9 103 750 600 15 700 311 766 588 330 
241 9 298 678 338 708 250 555 358 748 567 
242 9 649 746 94 513 718 216 210 198 223 
243 9 323 471 454 521 289 769 228 547 751 
244 9 506 328 321 612 3 143 303 115 671 
245 9 293 615 683 252 113 768 448 591 535 
246 9 397 520 282 47 775 765 689 546 663 
247 9 367 486 39 687 117 572 528 387 464 
248 9 571 22 63 489 349 57 146 28 738 
249 9 554 180 60 262 404 582 153 413 51 
250 9 298 731 708 241 338 678 525 507 555 
251 9 452 662 352 453 727 741 139 237 518 
252 9 768 113 293 405 591 84 245 149 534 
253 9 370 95 348 439 561 418 565 188 593 
254 9 777 719 548 672 326 416 218 215 514 
255 9 629 723 401 529 109 342 365 704 541 
256 9 277 641 116 667 67 87 55 292 484 
257 9 429 628 673 650 720 686 45 735 436 
258 9 734 605 620 69 676 318 128 155 685 
259 9 693 467 576 85 455 172 682 394 316 
260 9 157 443 569 483 630 711 268 491 101 
261 9 431 778 34 141 590 450 186 75 610 
262 9 582 180 148 60 249 296 413 361 202 
263 9 300 636 344 730 194 540 136 457 685 
264 9 618 331 526 89 425 466 697 760 609 
265 9 214 427 772 14 773 197 740 638 175 
266 9 96 273 111 132 710 66 388 38 748 
267 9 74 379 126 165 412 499 291 652 564 
268 9 491 630 443 260 157 711 569 101 483 
269 9 581 732 392 129 18 551 441 271 775 
270 9 578 664 437 436 71 134 623 698 573 
271 9 501 23 509 603 441 461 732 269 581 
272 9 614 150 407 27 715 744 551 603 559 
273 9 111 132 266 96 710 545 43 345 66 
274 9 446 37 183 120 531 399 36 450 440 
275 9 580 101 131 474 410 357 619 376 483 
276 9 594 609 760 339 189 699 61 745 287 
277 9 256 116 641 55 484 292 667 67 632 
278 9 575 705 482 435 312 434 460 537 570 
279 9 714 59 33 58 519 598 384 50 72 
280 9 387 464 127 440 117 41 75 610 183 
281 9 480 87 667 641 238 106 13 294 222 
282 9 689 765 520 208 246 360 47 663 62 
283 9 204 124 207 595 401 192 107 81 420 
284 9 640 542 642 658 164 625 752 686 770 
285 9 308 749 88 517 634 142 449 414 140 
286 9 473 351 535 448 313 456 566 683 591 
287 9 645 189 490 745 339 617 51 375 61 
288 9 725 26 458 161 532 402 220 130 105 
289 9 228 635 454 83 323 243 471 521 695 
290 9 774 428 386 110 91 172 390 589 395 
291 9 492 652 379 74 499 267 412 126 160 
292 9 653 703 106 2 587 104 277 256 641 
293 9 245 683 615 113 252 591 448 456 535 
294 9 62 238 208 556 765 480 689 13 282 
295 9 340 536 668 4 226 17 176 334 80 
296 9 745 60 51 148 413 361 582 287 645 
297 9 695 151 737 218 672 643 83 289 548 
298 9 241 250 708 678 338 731 555 525 567 
299 9 139 727 518 763 222 662 452 251 2 
300 9 344 263 685 457 524 136 540 155 194 
301 9 173 209 476 231 154 343 677 364 560 
302 9 722 378 568 713 138 239 459 423 63 
303 9 612 143 181 321 671 607 438 417 115 
304 9 25 534 86 400 456 591 113 76 84 
305 9 380 562 202 696 372 83 199 643 635 
306 9 159 54 457 408 136 156 524 543 19 
307 9 424 98 488 627 659 516 553 122 112 
308 9 285 749 517 634 142 88 140 449 701 
309 9 633 191 701 140 171 634 503 517 453 
310 9 660 7 237 383 503 763 171 453 518 
311 9 487 750 15 375 600 97 617 240 103 
312 9 570 317 169 764 575 278 753 702 354 
313 9 566 445 195 350 535 448 286 201 473 
314 9 626 167 451 6 527 572 36 744 684 
315 9 49 71 573 118 225 437 134 578 484 
316 8 682 403 477 467 85 394 576 693 
317 9 764 312 716 354 201 570 169 65 195 
318 9 69 605 258 734 620 155 550 685 540 
319 9 108 223 361 210 513 148 216 718 296 
320 9 677 161 364 11 560 288 220 725 26 
321 9 3 612 506 303 244 671 328 607 438 
322 9 729 368 203 504 558 332 170 507 393 
323 9 243 454 471 521 289 228 547 635 769 
324 9 665 11 229 363 123 212 26 161 725 
325 9 44 342 474 162 659 630 98 109 580 
326 9 655 719 432 743 548 514 254 751 777 
327 9 433 102 396 76 78 286 400 115 351 
328 9 506 244 321 3 612 303 143 115 671 
329 9 40 707 73 599 460 648 419 757 64 
330 9 466 347 331 766 618 163 425 717 600 
331 9 618 347 330 766 466 717 264 425 163 
332 9 504 170 585 322 135 558 30 203 442 
333 9 692 516 185 420 627 112 402 16 424 
334 9 644 668 196 176 393 53 80 597 340 
335 8 525 555 731 708 547 250 507 740 
336 9 593 28 57 409 188 233 9 146 565 
337 9 553 32 122 389 613 415 488 552 105 
338 9 708 555 241 298 740 638 678 250 14 
339 9 189 61 645 490 287 163 617 276 594 
340 9 536 295 668 80 176 334 196 4 53 
341 9 213 463 498 514 468 759 422 90 232 
342 9 109 162 325 44 365 255 131 307 98 
343 9 476 758 209 154 173 301 231 717 538 
344 9 300 685 263 155 524 457 540 136 543 
345 9 43 545 132 639 688 761 273 710 406 
346 9 16 212 721 185 363 665 420 402 595 
347 9 331 618 330 766 717 466 264 163 425 
348 9 95 584 370 188 253 409 510 146 418 
349 9 632 738 22 67 510 248 571 146 489 
350 9 448 535 313 445 201 615 566 195 683 
351 9 473 286 456 535 591 86 448 683 313 
352 9 251 452 662 453 741 171 727 237 139 
353 9 592 45 465 720 429 657 217 100 508 
354 9 227 168 169 201 764 570 317 716 312 
355 9 604 168 187 174 217 227 100 596 245 
356 9 481 505 81 107 359 192 589 207 426 
357 9 410 681 131 152 619 162 365 109 533 
358 9 748 567 678 241 38 298 338 96 266 
359 9 505 481 462 81 356 46 589 544 395 
360 8 663 208 282 520 689 765 62 418 
361 9 108 319 148 296 223 210 582 745 513 
362 9 687 486 472 565 561 42 233 572 367 
363 9 665 212 346 721 229 123 324 16 26 
364 9 560 178 236 231 320 220 105 677 301 
365 9 109 162 681 541 529 723 357 674 342 
366 9 48 496 177 724 104 145 767 179 703 
367 9 247 687 486 572 39 117 362 387 464 
368 9 729 322 203 507 558 393 504 731 597 
369 9 215 416 371 777 422 254 20 672 218 
370 8 253 95 348 418 584 439 188 409 
371 9 369 20 215 679 422 416 777 254 672 
372 9 696 404 562 153 408 200 543 128 305 
373 9 770 752 164 690 442 642 585 30 465 
374 9 647 158 574 771 706 144 637 31 19 
375 9 617 490 645 287 51 189 311 413 487 
376 9 761 166 77 656 483 275 406 569 205 
377 9 485 419 385 707 757 537 434 73 329 
378 9 302 500 722 754 63 568 114 494 713 
379 9 499 126 412 267 652 291 74 492 94 
380 9 305 202 199 635 83 228 696 562 180 
381 9 134 623 437 578 489 484 71 270 349 
382 9 724 177 646 624 496 179 366 48 703 
383 9 763 660 310 7 624 237 518 382 139 
384 9 519 421 621 714 762 694 666 145 598 
385 9 537 434 485 419 435 482 377 707 73 
386 9 428 290 774 110 589 91 172 390 395 
387 9 464 280 127 183 440 117 36 247 367 
388 9 66 182 733 160 96 175 266 193 273 
389 9 613 415 122 130 112 105 553 220 532 
390 9 91 110 395 211 46 428 589 386 290 
391 9 684 451 527 709 167 715 744 407 27 
392 9 581 269 732 129 441 775 18 271 397 
393 9 644 597 334 196 53 729 176 668 368 
394 9 576 85 693 426 467 682 316 259 403 
395 9 211 91 110 46 390 589 462 428 386 
396 9 102 433 78 327 115 143 76 286 351 
397 9 246 775 520 441 282 651 47 190 689 
398 9 65 5 438 607 671 417 675 181 612 
399 9 531 669 37 450 712 141 446 274 120 
400 9 304 25 76 86 534 456 591 351 327 
401 9 124 629 255 283 204 704 723 207 595 
402 9 458 725 532 26 185 288 692 333 130 
403 8 316 477 682 680 467 85 577 394 
404 9 153 372 554 696 408 249 543 562 200 
405 9 149 8 768 411 226 252 187 84 245 
406 9 447 77 166 239 423 761 459 138 713 
407 9 27 715 272 709 614 391 150 744 527 
408 9 153 543 306 159 200 524 404 554 54 
409 9 188 146 28 593 510 22 348 57 738 
410 9 357 131 681 162 619 275 152 365 109 
411 9 226 8 405 149 4 187 295 515 17 
412 9 126 499 379 652 94 267 530 291 649 
413 9 51 60 745 296 287 645 375 617 490 
414 9 611 142 88 444 430 749 449 502 82 
415 9 613 389 130 105 220 122 112 532 553 
416 9 369 777 672 215 254 218 548 737 371 
417 9 181 438 607 65 671 398 195 5 303 
418 8 370 663 95 360 253 348 651 439 
419 9 485 377 707 385 73 434 537 329 435 
420 9 16 185 595 692 346 333 204 124 721 
421 9 621 694 519 384 224 739 767 145 598 
422 9 215 213 369 341 371 777 254 514 416 
423 9 459 138 239 447 406 545 43 77 166 
424 9 307 627 516 488 98 112 333 629 553 
425 9 594 760 466 163 61 609 264 330 339 
426 9 394 576 693 85 107 259 192 467 682 
427 9 265 742 654 214 223 755 319 773 772 
428 9 386 290 774 110 91 589 390 395 172 
429 9 720 45 257 650 465 628 735 353 592 
430 9 24 502 611 449 88 414 190 82 142 
431 9 778 261 610 75 590 450 141 127 440 
432 9 655 326 743 719 10 514 232 751 206 
433 9 102 396 78 327 115 286 76 143 351 
434 9 537 385 435 482 485 419 278 575 73 
435 9 482 434 537 278 385 575 705 73 419 
436 9 664 673 270 686 578 698 628 257 437 
437 9 134 578 270 71 623 381 664 315 49 
438 9 607 671 417 398 65 181 5 612 303 
439 8 93 606 670 253 602 370 418 461 
440 9 127 75 120 183 610 280 387 464 37 
441 9 509 271 397 23 775 732 501 651 392 
442 9 30 658 164 373 752 642 770 135 332 
443 9 260 157 630 268 491 569 711 483 101 
444 9 184 611 82 414 502 546 190 142 556 
445 9 195 566 313 350 201 716 448 535 181 
446 9 274 37 183 120 531 399 450 36 440 
447 9 239 406 423 77 166 459 138 713 545 
448 9 535 350 615 683 473 313 286 351 566 
449 9 88 430 24 285 414 142 749 611 308 
450 9 141 37 120 531 399 261 431 75 440 
451 9 167 527 626 314 684 744 391 6 36 
452 9 251 662 352 453 727 741 139 237 518 
453 9 171 352 251 452 662 237 660 310 741 
454 9 323 243 521 289 471 228 635 83 547 
455 7 259 467 477 682 316 693 85 
456 9 591 86 534 113 351 473 683 304 286 
457 9 136 306 524 159 54 300 194 344 19 
458 9 532 402 725 288 26 130 112 415 613 
459 9 138 423 239 447 406 545 302 713 494 
460 9 73 329 705 707 40 219 482 64 575 
461 9 501 23 602 509 606 670 271 93 559 
462 9 359 46 211 395 505 589 481 110 91 
463 9 498 341 213 759 468 29 232 514 90 
464 9 387 280 183 127 440 36 367 117 120 
465 9 720 45 353 429 770 592 752 373 257 
466 9 330 163 425 331 347 618 61 264 594 
467 9 682 85 316 693 259 477 576 394 455 
468 9 90 759 498 463 470 341 728 213 601 
469 9 736 470 12 728 759 601 756 84 90 
470 9 736 469 759 728 90 468 12 498 601 
471 8 243 323 521 454 547 289 769 228 
472 9 362 93 687 572 670 486 6 314 602 
473 9 351 286 535 456 448 683 591 86 313 
474 9 580 101 131 44 275 630 325 162 260 
475 9 99 125 680 186 590 403 577 616 539 
476 9 173 209 301 343 231 154 758 178 364 
477 7 316 682 403 467 455 85 259 
478 9 726 135 567 30 504 678 38 203 332 
479 9 79 119 557 224 235 608 497 72 234 
480 9 238 281 222 294 106 13 62 556 87 
481 9 505 356 81 359 589 107 46 544 462 
482 9 435 278 434 575 537 705 385 73 460 
483 9 569 260 157 443 688 711 101 580 639 
484 9 55 116 49 225 277 632 315 381 134 
485 9 377 419 385 537 434 707 435 482 73 
486 9 687 247 367 362 42 572 39 528 472 
487 9 311 15 97 750 375 144 617 600 490 
488 9 627 553 122 307 424 112 389 98 337 
489 9 63 114 248 381 571 623 22 349 500 
490 9 617 645 189 287 339 375 61 51 745 
491 9 268 443 157 711 260 630 569 511 483 
492 9 291 652 511 491 160 182 268 379 733 
493 9 230 53 80 196 176 10 334 393 668 
494 9 121 583 625 586 754 500 378 138 459 
495 9 206 29 17 232 536 463 498 295 340 
496 9 177 724 366 48 179 382 646 145 762 
497 9 608 557 735 479 235 119 234 628 79 
498 9 463 759 468 341 29 213 470 90 232 
499 9 412 126 379 652 291 94 267 74 649 
500 9 754 114 378 625 121 494 63 489 302 
501 9 23 461 271 509 603 602 606 441 559 
502 9 190 82 546 430 611 444 47 775 414 
503 9 171 7 310 660 453 309 633 237 191 
504 9 332 322 135 203 170 726 558 729 585 
505 9 481 356 81 359 589 544 462 46 107 
506 9 328 244 321 3 612 303 143 671 115 
507 9 731 368 203 250 729 322 335 525 298 
508 9 221 549 702 753 169 592 219 570 353 
509 9 23 501 271 461 441 651 606 602 603 
510 9 738 67 584 632 146 349 188 409 22 
511 9 639 711 491 492 688 66 132 157 182 
512 9 64 219 735 650 497 40 235 608 557 
513 9 718 216 210 242 108 699 319 746 649 
514 9 719 326 341 254 213 432 463 232 655 
515 9 92 4 174 52 187 597 596 644 226 
516 9 333 424 627 692 629 488 112 307 420 
517 9 634 308 749 140 285 701 191 142 633 
518 9 139 763 237 299 727 662 452 251 624 
519 9 384 421 714 621 598 694 224 279 762 
520 9 282 246 663 360 689 397 765 651 208 
521 8 471 323 454 243 547 289 228 635 
522 9 205 656 70 9 376 56 41 77 523 
523 9 747 56 533 41 619 117 280 205 70 
524 9 543 200 457 344 306 155 300 408 159 
525 8 335 555 708 731 250 338 298 740 
526 9 89 697 21 264 538 563 699 609 530 
527 9 451 167 626 744 314 684 6 391 559 
528 9 42 233 39 486 247 70 362 117 565 
529 9 541 674 723 704 365 539 109 152 681 
530 9 563 21 564 526 89 126 412 718 94 
531 9 399 669 37 450 141 712 446 274 120 
532 9 458 130 402 288 725 415 613 112 105 
533 9 56 619 747 523 357 410 152 275 41 
534 9 86 304 456 591 113 25 400 252 351 
535 9 448 473 350 683 286 615 351 313 566 
536 9 340 295 668 80 17 176 206 495 196 
537 9 434 385 435 482 485 419 278 377 575 
538 9 264 526 618 89 758 68 331 347 476 
539 9 674 704 125 137 529 631 541 616 152 
540 9 550 776 685 263 344 300 636 730 155 
541 9 529 674 723 365 704 539 152 109 681 
542 9 284 625 640 658 121 642 583 586 494 
543 9 200 524 408 306 457 159 155 128 344 
544 9 721 81 212 595 123 346 16 204 229 
545 9 43 345 710 423 132 111 459 273 138 
546 9 82 190 47 502 184 246 556 765 444 
547 8 521 471 323 243 454 335 230 525 
548 9 672 218 254 743 777 719 326 751 655 
549 9 702 508 753 221 169 227 570 354 592 
550 9 776 540 685 661 318 344 263 300 622 
551 9 18 129 732 603 269 581 614 272 150 
552 9 564 32 68 236 337 178 563 560 105 
553 9 122 337 488 389 112 613 415 627 32 
554 9 153 249 404 408 156 159 306 54 97 
555 9 708 338 740 525 638 241 298 14 250 
556 9 184 294 62 238 765 47 546 689 208 
557 9 608 497 479 234 79 698 119 235 735 
558 9 170 729 322 52 597 332 504 368 585 
559 9 602 6 744 150 461 603 670 614 501 
560 9 364 178 236 231 220 105 320 130 677 
561 9 565 362 233 42 253 439 472 486 593 
562 9 696 372 305 128 404 676 200 380 543 
563 9 530 21 564 526 89 68 552 697 538 
564 9 552 563 32 68 530 21 267 337 126 
565 9 561 233 362 42 253 528 486 593 336 
566 9 313 445 195 350 535 286 448 201 473 
567 9 358 748 678 38 241 478 298 726 338 
568 9 722 302 713 378 57 63 571 248 239 
569 9 483 260 157 443 711 101 688 580 630 
570 9 169 753 702 312 549 227 354 221 575 
571 9 248 22 63 57 28 146 489 349 409 
572 9 687 367 314 472 486 247 626 36 362 
573 9 118 71 315 49 234 698 664 270 225 
574 9 374 706 158 637 647 31 771 144 19 
575 9 278 705 482 435 312 570 460 169 434 
576 9 394 693 85 426 467 259 682 316 477 
577 9 616 680 403 125 704 475 316 539 99 
578 9 270 437 134 664 71 623 436 381 315 
579 9 756 12 84 728 601 25 736 469 304 
580 9 101 474 630 260 569 443 483 157 275 
581 9 269 392 732 129 18 441 551 775 271 
582 9 262 148 60 180 296 249 361 413 51 
583 9 121 494 586 625 542 138 459 710 658 
584 9 348 95 510 67 188 370 738 409 146 
585 9 170 332 690 558 373 504 596 322 442 
586 9 583 121 494 625 542 38 658 30 710 
587 9 225 55 104 292 739 116 49 118 484 
588 9 15 103 750 240 311 706 158 700 487 
589 9 46 110 395 91 386 428 356 481 390 
590 9 778 261 431 186 35 631 34 99 137 
591 9 456 86 113 534 683 351 473 304 293 
592 9 353 45 720 465 508 429 217 657 100 
593 9 336 28 57 409 188 146 565 561 233 
594 9 760 609 425 61 276 699 697 163 339 
595 9 204 16 420 124 283 544 721 346 81 
596 9 174 52 515 92 170 585 558 100 657 
597 9 644 52 393 334 92 558 729 515 668 
598 9 72 33 50 224 714 119 235 58 519 
599 9 648 40 329 58 757 707 50 73 33 
600 9 163 240 61 617 490 750 339 311 330 
601 9 728 756 12 90 736 469 470 759 468 
602 9 670 461 93 559 501 23 6 606 472 
603 9 271 150 501 23 614 559 551 461 18 
604 9 355 168 187 227 174 245 217 354 100 
605 9 258 734 69 620 318 128 676 155 685 
606 8 651 461 509 439 23 501 670 93 
607 9 438 671 417 181 398 65 5 612 303 
608 9 557 497 234 479 698 735 79 628 235 
609 9 760 594 699 425 697 276 61 264 163 
610 9 75 778 127 431 440 35 120 261 280 
611 9 414 444 142 430 88 502 82 190 449 
612 9 303 321 671 3 607 438 143 181 506 
613 9 415 389 130 105 122 112 220 532 553 
614 9 150 272 603 744 559 407 27 551 715 
615 9 683 448 293 535 350 245 473 591 351 
616 9 577 704 125 680 539 475 403 674 99 
617 9 490 375 645 287 189 339 51 600 61 
618 9 331 347 330 264 717 466 766 425 538 
619 9 533 56 747 523 357 410 275 681 152 
620 9 734 258 605 69 676 318 128 155 685 
621 9 694 421 739 767 145 519 384 224 79 
622 9 730 147 636 661 776 540 263 550 300 
623 9 134 381 437 578 270 489 664 114 71 
624 9 382 724 177 763 383 518 646 496 139 
625 9 542 121 494 583 284 640 754 500 586 
626 9 167 314 451 6 527 744 572 684 36 
627 9 488 424 112 516 307 122 333 553 389 
628 9 735 257 650 698 429 608 673 497 436 
629 9 255 516 401 424 333 124 627 723 307 
630 9 268 443 260 157 491 101 580 569 483 
631 9 137 35 590 539 125 152 778 475 610 
632 9 349 738 67 510 22 484 116 381 55 
633 9 309 191 701 140 634 171 503 517 453 
634 9 517 140 749 308 191 701 285 142 633 
635 9 228 83 289 454 199 323 151 243 380 
636 9 730 263 147 622 194 300 31 19 540 
637 9 31 574 647 771 374 19 194 158 706 
638 9 14 197 740 338 555 175 708 214 241 
639 9 688 711 511 157 483 345 569 260 43 
640 9 284 542 642 625 658 686 164 752 673 
641 9 256 667 87 277 281 106 653 116 292 
642 9 164 752 770 284 658 640 442 373 542 
643 9 133 151 737 297 695 83 305 218 416 
644 9 334 597 393 668 196 176 4 52 53 
645 9 287 189 490 339 617 745 51 375 61 
646 9 179 382 177 724 496 666 624 762 48 
647 9 771 374 637 574 19 31 158 144 194 
648 9 599 40 58 50 329 33 757 72 707 
649 9 746 242 94 198 513 718 216 412 193 
650 9 735 429 628 257 45 720 512 497 608 
651 8 509 606 520 663 397 441 360 246 
652 9 499 291 379 412 492 126 160 733 267 
653 9 292 106 2 703 641 281 104 277 256 
654 9 742 755 427 262 148 223 199 773 180 
655 9 326 743 432 719 751 10 548 769 514 
656 9 205 522 70 376 56 275 533 619 9 
657 9 100 217 690 353 596 592 373 585 174 
658 9 442 30 164 642 284 542 752 640 586 
659 9 98 165 307 74 325 44 488 267 553 
660 9 310 7 237 763 383 453 171 503 518 
661 9 776 622 550 540 730 636 147 263 300 
662 9 452 251 352 727 453 741 139 237 518 
663 8 360 520 282 208 689 651 418 765 
664 9 270 578 436 698 234 71 437 573 134 
665 9 363 212 346 721 229 123 324 26 16 
666 9 762 179 646 496 48 145 177 366 384 
667 9 87 641 281 256 13 277 584 67 480 
668 9 334 176 340 196 295 80 644 536 4 
669 9 712 399 531 141 450 37 34 446 274 
670 9 93 602 461 472 439 559 606 6 501 
671 9 607 438 398 417 181 65 612 5 303 
672 9 218 548 777 416 254 695 737 297 743 
673 9 686 436 257 628 664 270 429 698 640 
674 9 529 541 704 539 723 365 152 137 109 
675 9 5 398 65 438 607 671 417 3 181 
676 9 734 258 620 605 128 562 133 69 696 
677 9 320 161 364 301 11 560 173 231 209 
678 9 241 298 358 567 748 338 250 708 555 
679 9 20 371 369 133 416 643 215 737 777 
680 8 475 403 577 99 125 616 316 477 
681 9 357 410 365 131 162 152 109 541 529 
682 8 467 316 85 477 403 693 576 259 
683 9 615 293 448 535 591 473 456 351 113 
684 9 391 451 527 167 626 709 36 314 744 
685 9 344 155 300 540 524 263 550 200 457 
686 9 673 436 257 640 628 284 664 270 429 
687 9 486 367 572 362 247 472 42 39 314 
688 9 639 711 483 569 157 761 260 345 443 
689 9 765 282 208 62 360 520 47 663 294 
690 9 657 373 100 585 770 217 752 596 465 
691 7 34 186 141 261 712 99 669 
692 9 333 185 402 420 516 458 16 112 532 
693 9 576 259 85 467 394 682 426 316 455 
694 9 621 421 739 224 767 145 79 519 384 
695 9 297 737 151 218 672 548 83 751 643 
696 9 372 562 404 305 128 200 153 202 380 
697 9 699 609 89 760 594 526 216 264 425 
698 9 234 664 608 270 557 573 436 628 71 
699 9 697 609 760 594 216 276 89 718 425 
700 9 766 717 103 240 347 330 331 618 466 
701 9 191 633 309 140 634 517 749 503 171 
702 9 753 169 549 570 221 508 227 312 354 
703 9 2 653 177 724 292 366 104 496 48 
704 9 674 529 723 539 541 616 577 125 401 
705 9 575 278 482 460 435 73 570 312 753 
706 9 158 574 374 647 637 144 771 588 15 
707 9 73 329 419 460 40 485 599 377 482 
708 9 338 555 298 241 250 525 740 678 731 
709 9 391 715 27 407 684 527 451 744 167 
710 9 111 273 545 132 266 43 96 345 38 
711 9 157 639 688 260 443 569 491 483 511 
712 9 669 399 531 141 450 34 691 37 261 
713 9 568 302 722 239 447 138 406 77 459 
714 9 279 519 598 384 59 33 72 58 50 
715 9 27 407 709 272 391 614 744 150 684 
716 9 201 764 317 445 195 350 354 313 566 
717 9 766 347 331 618 700 330 758 466 264 
718 9 216 513 210 242 699 697 21 649 746 
719 9 326 254 514 548 655 777 743 432 672 
720 9 45 429 465 353 592 257 650 628 770 
721 9 212 346 544 363 665 16 123 229 595 
722 9 568 302 713 378 63 57 571 248 239 
723 9 529 541 674 704 365 255 109 539 162 
724 9 177 496 382 366 646 48 179 624 703 
725 9 26 288 402 458 532 161 11 130 220 
726 9 478 135 203 504 250 322 567 678 298 
727 9 139 299 662 518 452 251 352 222 741 
728 9 601 12 756 736 469 470 90 759 468 
729 9 322 368 558 203 393 597 507 504 170 
730 9 636 147 263 622 194 300 31 540 19 
731 9 250 507 298 525 708 335 203 241 368 
732 9 269 581 392 129 18 441 551 271 603 
733 9 160 182 388 66 193 175 198 652 492 
734 9 258 605 620 69 676 318 128 155 685 
735 9 650 628 497 608 512 557 257 429 698 
736 9 469 470 12 728 601 759 756 90 84 
737 9 297 695 151 218 643 672 416 548 133 
738 9 510 67 349 632 22 146 409 584 188 
739 9 767 145 694 621 104 421 587 48 366 
740 9 555 638 14 338 197 708 772 525 241 
741 9 251 352 452 662 727 222 453 184 139 
742 9 654 755 427 223 148 262 319 265 361 
743 9 655 326 751 432 548 10 719 769 218 
744 9 527 167 6 451 559 626 150 314 614 
745 9 287 51 296 645 189 413 60 490 276 
746 9 649 242 94 198 513 718 223 193 210 
747 9 523 56 533 619 41 117 280 205 70 
748 9 358 567 678 241 38 298 338 96 266 
749 9 285 142 308 517 634 88 140 414 449 
750 9 15 311 240 487 103 600 588 375 617 
751 9 743 769 10 655 548 218 326 672 432 
752 9 770 164 642 373 442 658 465 284 690 
753 9 702 169 570 549 221 508 227 312 705 
754 9 500 114 378 625 121 494 63 489 302 
755 9 654 742 199 427 202 773 180 262 772 
756 9 12 601 728 579 736 469 90 470 84 
757 9 599 648 58 329 377 707 59 419 40 
758 9 343 717 476 538 618 331 347 209 173 
759 9 468 470 498 90 463 736 469 728 601 
760 9 594 609 425 699 697 276 61 163 339 
761 9 166 376 688 77 406 483 345 639 569 
762 9 666 179 48 496 145 646 366 384 767 
763 9 518 237 139 299 660 383 624 727 310 
764 9 317 716 201 312 354 195 445 570 417 
765 9 689 282 208 62 47 520 294 360 246 
766 9 347 717 330 331 700 618 466 103 163 
767 9 145 739 104 48 366 621 694 421 496 
768 9 252 149 405 84 113 8 293 245 534 
769 9 10 751 743 243 471 655 323 230 432 
770 9 752 373 164 642 465 690 442 658 284 
771 9 647 19 374 31 194 637 54 136 156 
772 8 773 265 740 14 555 214 525 638 
773 8 772 265 740 427 14 214 755 335 
774 9 290 428 386 172 110 91 259 390 589 
775 9 397 246 190 441 392 47 546 502 520 
776 9 550 661 540 622 685 263 730 636 300 
777 9 254 416 548 672 215 218 719 369 326 
778 9 431 610 261 590 75 35 127 450 440 
DEPOT_SECTION
   1
   -1
EOF
