NAME :  X-n766-kX-w76-c11.cctp
COMMENT : 	Adapted by Maziero, Usberti and Cavellucci from the Uchoa, Pecin, Pessoa, Poggi, Subramanian, and Vidal (2013)
TYPE :  CCTP
DIMENSION :    473
EDGE_WEIGHT_TYPE : 	EUC_2D	
CAPACITY : 	166
VERTICES_WITHIN_COVERAGE :  11
VERTICES_WITH_DEMAND : 	76
NODE_COORD_SECTION
1 0 0
2 409 418
3 378 220
4 469 585
5 91 695
6 455 648
7 86 403
8 493 292
9 124 630
10 43 202
11 961 668
12 538 143
13 114 523
14 273 287
15 884 865
16 551 791
17 609 232
18 69 625
19 191 484
20 562 650
21 858 506
22 688 951
23 174 158
24 175 404
25 314 484
26 210 517
27 574 158
28 76 499
29 136 195
30 47 593
31 87 897
32 526 650
33 683 60
34 437 962
35 863 428
36 866 335
37 16 391
38 948 422
39 1 945
40 13 299
41 404 889
42 974 290
43 59 281
44 966 52
45 815 145
46 238 897
47 546 414
48 297 370
49 421 143
50 292 86
51 420 958
52 661 796
53 98 757
54 15 722
55 599 669
56 287 134
57 925 251
58 115 179
59 449 945
60 487 960
61 683 779
62 628 855
63 290 322
64 145 109
65 356 887
66 416 654
67 899 981
68 228 187
69 634 10
70 673 503
71 999 237
72 280 64
73 407 977
74 417 841
75 773 52
76 922 376
77 270 503
78 998 123
79 353 527
80 19 697
81 326 401
82 156 557
83 232 556
84 272 248
85 383 472
86 659 930
87 62 513
88 108 723
89 127 359
90 765 936
91 199 264
92 595 746
93 808 393
94 194 803
95 879 138
96 329 531
97 544 840
98 384 143
99 350 231
100 213 582
101 158 64
102 381 518
103 281 153
104 991 305
105 322 68
106 378 996
107 941 397
108 89 16
109 796 357
110 759 988
111 938 366
112 224 487
113 852 200
114 948 17
115 816 580
116 243 75
117 55 873
118 585 640
119 841 326
120 41 67
121 445 424
122 897 432
123 404 444
124 411 117
125 167 197
126 502 596
127 724 799
128 137 619
129 121 457
130 847 277
131 658 690
132 508 997
133 601 692
134 884 98
135 610 664
136 845 965
137 554 127
138 817 205
139 612 861
140 142 905
141 735 77
142 990 120
143 63 415
144 97 810
145 459 337
146 664 488
147 148 748
148 876 902
149 30 706
150 434 176
151 604 49
152 464 151
153 734 742
154 390 613
155 879 972
156 957 393
157 351 361
158 614 200
159 840 412
160 162 699
161 166 217
162 640 833
163 309 407
164 468 408
165 560 636
166 29 716
167 885 881
168 28 821
169 639 287
170 973 213
171 37 615
172 273 325
173 517 434
174 0 537
175 843 863
176 929 542
177 705 899
178 207 798
179 911 610
180 339 859
181 316 810
182 365 275
183 313 107
184 104 662
185 982 715
186 27 603
187 71 270
188 301 17
189 376 970
190 451 280
191 322 295
192 21 95
193 552 836
194 957 868
195 911 695
196 456 521
197 266 379
198 23 325
199 157 140
200 689 733
201 971 840
202 187 599
203 160 281
204 942 581
205 283 191
206 243 947
207 701 533
208 688 457
209 882 105
210 880 403
211 727 763
212 570 595
213 623 916
214 841 842
215 752 33
216 853 91
217 224 467
218 252 39
219 184 424
220 117 489
221 972 425
222 895 182
223 668 858
224 289 178
225 490 992
226 308 253
227 270 351
228 143 955
229 423 495
230 288 575
231 647 818
232 585 134
233 874 685
234 812 27
235 346 184
236 306 312
237 66 672
238 692 808
239 963 854
240 406 262
241 592 596
242 78 96
243 406 574
244 218 533
245 615 657
246 486 290
247 579 792
248 58 395
249 290 79
250 656 508
251 454 572
252 49 808
253 902 700
254 801 148
255 968 613
256 309 508
257 484 528
258 417 871
259 590 883
260 588 906
261 85 837
262 50 718
263 939 795
264 105 219
265 679 87
266 935 858
267 637 841
268 43 674
269 3 542
270 783 185
271 539 977
272 960 56
273 587 221
274 581 900
275 194 248
276 207 151
277 273 573
278 234 860
279 859 230
280 249 328
281 725 828
282 81 319
283 417 151
284 29 337
285 28 797
286 903 544
287 180 278
288 894 511
289 146 870
290 622 795
291 104 80
292 775 9
293 227 95
294 894 959
295 560 381
296 337 243
297 555 699
298 348 195
299 725 18
300 547 135
301 503 150
302 588 394
303 525 398
304 542 437
305 942 842
306 552 921
307 669 79
308 638 718
309 34 333
310 403 892
311 384 624
312 575 146
313 883 410
314 415 834
315 659 480
316 775 47
317 520 443
318 643 534
319 410 356
320 610 14
321 641 50
322 856 433
323 638 485
324 537 185
325 367 202
326 959 121
327 437 871
328 898 946
329 654 71
330 816 858
331 848 841
332 933 277
333 909 533
334 522 831
335 986 393
336 590 404
337 771 974
338 542 759
339 236 287
340 432 394
341 950 392
342 519 148
343 406 224
344 912 370
345 893 908
346 402 173
347 515 391
348 525 148
349 976 323
350 541 414
351 260 372
352 398 168
353 514 765
354 931 992
355 539 292
356 538 113
357 491 269
358 549 360
359 497 533
360 908 293
361 683 466
362 562 673
363 467 137
364 610 675
365 641 54
366 431 793
367 328 389
368 524 908
369 858 6
370 317 132
371 604 158
372 983 457
373 511 585
374 907 343
375 627 247
376 901 332
377 689 533
378 546 156
379 355 930
380 588 246
381 404 127
382 388 924
383 930 112
384 395 917
385 507 405
386 615 262
387 876 977
388 435 108
389 48 799
390 905 895
391 166 836
392 539 424
393 919 958
394 477 915
395 839 150
396 673 566
397 442 171
398 837 336
399 885 892
400 384 474
401 862 505
402 309 275
403 992 289
404 390 123
405 359 186
406 629 740
407 544 788
408 974 260
409 770 156
410 353 228
411 539 312
412 373 696
413 859 428
414 998 458
415 829 360
416 526 761
417 908 981
418 502 274
419 923 363
420 698 99
421 909 979
422 986 411
423 413 713
424 668 73
425 556 420
426 557 187
427 552 849
428 346 216
429 769 505
430 919 370
431 989 314
432 479 893
433 639 494
434 820 824
435 372 659
436 342 391
437 633 204
438 927 980
439 602 251
440 346 250
441 656 459
442 558 601
443 768 185
444 966 113
445 494 697
446 807 418
447 975 299
448 649 646
449 989 457
450 341 236
451 936 356
452 943 386
453 485 338
454 788 498
455 332 64
456 408 844
457 937 404
458 864 155
459 503 291
460 385 875
461 415 607
462 407 837
463 671 15
464 269 160
465 482 896
466 924 466
467 922 957
468 744 71
469 914 314
470 432 103
471 429 662
472 358 858
473 512 303
DEMAND_SECTION
2 85
3 89
4 71
5 68
6 52
7 76
8 57
9 73
10 89
11 100
12 61
13 92
14 99
15 56
16 91
17 71
18 69
19 79
20 93
21 61
22 94
23 63
24 89
25 88
26 100
27 96
28 92
29 75
30 69
31 72
32 86
33 77
34 68
35 81
36 100
37 95
38 68
39 71
40 79
41 55
42 73
43 82
44 67
45 91
46 96
47 62
48 76
49 53
50 78
51 53
52 61
53 100
54 70
55 57
56 99
57 61
58 55
59 66
60 57
61 70
62 73
63 84
64 80
65 84
66 94
67 53
68 99
69 61
70 96
71 80
72 67
73 87
74 91
75 58
76 84
77 96
COVERAGE_SECTION
2 8 123 340 121 85 164 400 319 436 
3 11 325 410 343 99 428 298 405 450 440 296 235 
4 11 251 126 373 461 257 359 243 6 196 154 32 
5 11 88 237 184 262 268 53 149 166 160 80 9 
6 10 471 66 461 445 4 126 32 154 311 251 
7 11 143 248 89 129 37 282 284 309 24 220 28 
8 8 246 459 418 473 357 190 355 453 
9 11 128 184 18 202 237 5 160 82 30 171 268 
10 11 264 187 58 43 29 40 192 242 282 125 161 
11 7 185 255 195 253 179 204 233 
12 10 300 348 378 342 137 356 301 312 27 324 
13 11 220 28 87 82 129 19 26 30 128 244 202 
14 10 339 172 402 63 84 236 280 226 191 227 
15 11 167 399 390 148 175 331 345 214 266 305 330 
16 9 407 247 338 416 193 353 97 334 427 
17 7 439 375 273 380 386 158 437 
18 11 171 30 186 237 184 9 268 128 5 80 149 
19 11 112 217 26 244 219 220 129 77 82 24 83 
20 11 165 362 118 32 55 297 442 135 245 364 212 
21 11 401 288 333 286 454 322 466 35 413 176 122 
22 7 86 177 213 90 110 337 223 
23 11 199 276 125 29 64 161 68 58 293 264 275 
24 11 219 89 129 217 19 7 351 197 112 220 280 
25 11 256 77 96 79 85 400 102 163 81 112 217 
26 11 244 112 19 83 217 77 100 82 277 202 13 
27 8 312 232 378 371 426 300 137 12 
28 11 87 220 13 129 143 174 269 7 30 82 248 
29 11 58 125 161 264 23 199 275 276 64 203 68 
30 11 186 171 18 269 174 87 237 268 9 184 128 
31 11 117 140 261 289 228 144 168 252 39 391 389 
32 10 20 165 362 297 445 126 442 118 373 212 
33 9 424 307 265 329 365 420 321 463 141 
34 11 51 59 73 60 225 189 382 384 394 106 310 
35 11 413 322 313 159 210 122 446 93 466 344 415 
36 10 119 398 376 374 415 469 344 360 130 419 
37 11 248 143 284 309 198 7 40 282 89 43 28 
38 11 457 221 107 156 341 452 422 335 372 466 122 
39 11 117 31 168 261 228 252 140 285 389 289 144 
40 11 198 309 284 43 187 282 37 10 248 264 143 
41 11 310 258 460 384 327 382 456 65 74 462 472 
42 9 447 403 104 431 408 349 332 71 57 
43 11 187 282 40 198 309 284 264 10 203 89 248 
44 10 272 114 444 326 383 142 78 134 209 369 
45 10 254 395 409 458 270 138 443 95 113 216 
46 11 278 206 391 140 289 94 178 180 228 181 65 
47 10 350 392 425 304 303 173 295 317 347 385 
48 11 197 227 367 351 163 81 63 436 172 157 236 
49 11 283 381 124 352 150 397 346 98 404 388 470 
50 11 249 72 183 105 455 56 116 370 218 293 103 
51 11 34 73 59 189 382 384 106 60 310 41 379 
52 11 231 61 238 290 162 267 223 127 406 62 200 
53 11 88 147 144 5 262 389 252 166 261 285 149 
54 11 166 149 80 262 268 237 285 5 389 53 252 
55 11 135 364 245 133 118 362 20 165 297 448 131 
56 11 103 370 464 183 224 50 249 205 72 293 116 
57 10 332 360 408 170 42 469 279 447 71 222 
58 11 29 264 125 199 23 161 10 64 242 276 291 
59 11 34 51 60 394 73 465 432 384 225 382 310 
60 11 225 59 132 394 34 271 368 465 51 432 306 
61 11 52 238 127 200 211 231 153 290 281 406 162 
62 11 139 267 162 223 231 259 290 213 260 274 52 
63 11 172 236 227 14 280 191 48 402 351 197 339 
64 11 199 101 291 23 242 276 58 293 29 125 116 
65 11 472 460 180 379 310 41 382 384 258 456 462 
66 8 471 6 311 435 461 154 423 412 
67 10 417 421 155 294 387 438 393 467 354 328 
68 11 276 464 205 23 125 224 103 161 275 84 56 
69 7 320 463 321 365 151 329 33 
70 11 146 250 315 377 433 361 323 207 318 441 208 
71 10 408 170 403 42 447 104 57 332 431 349 
72 11 249 50 218 116 105 188 455 183 293 56 370 
73 11 51 189 34 106 59 382 384 379 60 225 310 
74 9 314 456 462 258 327 460 41 366 310 
75 10 316 215 468 292 141 234 299 216 420 33 
76 11 430 344 419 111 452 451 107 341 457 374 156 
77 11 256 25 112 217 244 26 83 96 277 230 19 
78 10 142 444 326 383 272 44 170 71 114 134 
79 10 96 102 256 25 400 85 243 229 230 77 
80 11 149 166 54 268 262 237 5 171 18 184 88 
81 11 367 163 436 48 157 197 351 227 25 2 63 
82 10 202 13 100 128 244 26 83 220 9 19 
83 10 244 100 277 26 230 202 77 112 82 19 
84 10 226 14 402 339 205 296 191 450 224 236 
85 9 400 123 102 229 2 79 25 121 96 
86 10 22 213 177 223 260 62 139 259 274 267 
87 11 28 13 220 174 269 30 129 186 143 82 171 
88 11 5 53 147 262 160 184 237 166 149 268 144 
89 11 7 282 24 248 143 203 219 287 309 129 284 
90 4 337 110 177 22 
91 11 275 287 203 339 161 125 84 14 280 68 29 
92 8 406 247 308 133 338 290 297 16 
93 11 446 159 109 415 322 413 398 35 210 119 313 
94 8 178 391 278 147 289 144 46 53 
95 10 458 209 134 395 222 216 383 45 113 254 
96 9 79 256 25 102 230 77 277 400 85 
97 7 193 427 334 16 407 247 259 
98 8 404 381 352 283 346 49 124 405 
99 10 410 450 428 296 440 3 325 298 182 405 
100 8 202 83 244 277 82 26 230 128 
101 11 64 291 199 293 108 116 242 23 218 276 120 
102 9 79 400 85 229 96 243 256 25 196 
103 11 464 56 224 205 370 183 68 50 235 276 249 
104 7 431 403 447 42 349 408 332 
105 7 455 249 50 183 72 188 370 
106 11 189 73 51 34 379 382 384 59 310 41 65 
107 11 457 341 452 156 38 76 111 430 419 344 451 
108 11 291 120 242 101 192 64 199 293 23 58 116 
109 9 415 93 398 119 446 159 36 130 413 
110 4 337 90 22 136 
111 10 451 419 76 430 452 344 341 107 156 457 
112 11 217 19 26 244 77 83 219 256 25 24 100 
113 9 279 138 222 458 395 45 95 270 254 
114 11 44 272 369 383 444 134 326 209 142 78 216 
115 6 21 454 401 429 286 179 
116 11 293 218 72 249 50 56 183 105 188 276 101 
117 11 31 261 168 252 389 144 285 39 289 140 391 
118 11 20 165 55 245 135 362 364 241 212 442 133 
119 10 398 36 415 130 109 376 374 469 93 360 
120 11 192 242 291 108 64 101 58 10 199 29 23 
121 6 164 340 2 123 385 173 
122 11 313 35 210 413 322 466 457 38 107 159 76 
123 9 2 85 400 121 229 340 164 102 436 
124 7 381 404 470 388 49 283 98 
125 11 161 29 23 58 199 275 276 68 264 91 287 
126 10 373 4 251 442 32 359 212 6 165 257 
127 6 281 238 211 61 153 52 
128 9 9 184 202 82 18 160 100 5 237 
129 11 220 28 7 13 219 143 19 24 87 248 89 
130 9 119 279 398 36 360 113 376 469 138 
131 9 308 448 364 200 245 135 133 406 55 
132 11 225 271 60 34 59 306 394 368 51 73 465 
133 10 364 55 135 245 362 308 297 92 118 406 
134 10 209 216 95 383 458 395 326 45 444 222 
135 11 245 364 55 133 118 448 362 20 131 165 308 
136 6 387 155 294 67 328 417 
137 7 300 356 12 312 378 232 348 
138 7 113 270 279 443 254 395 45 
139 11 62 259 267 162 274 260 231 213 223 427 193 
140 11 289 228 31 391 261 117 46 278 144 206 94 
141 8 468 420 75 215 316 33 265 299 
142 10 78 444 326 383 272 44 170 134 209 114 
143 11 248 7 37 129 28 89 284 309 220 87 198 
144 11 261 252 389 53 168 285 391 117 289 147 31 
145 4 453 319 246 8 
146 10 315 70 250 323 433 361 441 208 318 377 
147 10 88 53 160 94 178 5 144 391 184 262 
148 9 399 345 167 390 15 328 175 294 331 
149 11 166 80 54 262 268 237 5 88 53 184 18 
150 7 397 283 346 49 352 152 363 
151 4 320 321 365 69 
152 6 363 397 150 301 49 283 
153 7 211 200 127 61 238 281 52 
154 8 311 461 243 66 435 471 6 251 
155 11 387 294 67 417 421 328 136 393 467 438 354 
156 10 341 107 452 457 335 38 111 422 221 76 
157 9 436 367 81 48 319 163 236 63 191 
158 4 437 17 273 371 
159 11 413 322 35 446 93 210 313 415 122 109 398 
160 7 147 88 184 5 9 128 53 
161 11 125 29 275 91 23 264 287 58 203 68 199 
162 11 267 231 62 223 139 290 52 238 61 259 247 
163 11 81 367 436 48 197 351 157 227 25 63 172 
164 7 121 340 385 347 173 303 2 
165 11 20 118 442 32 362 212 55 241 135 245 297 
166 11 149 54 80 262 268 237 5 88 53 285 389 
167 9 399 15 148 390 345 175 331 266 214 
168 11 285 252 389 117 261 144 53 31 54 166 262 
169 4 386 375 439 17 
170 10 71 408 57 332 42 403 222 447 78 326 
171 11 186 30 18 268 237 269 184 80 174 9 149 
172 11 63 280 227 236 14 351 48 339 197 191 402 
173 9 317 392 304 350 385 47 303 425 347 
174 11 269 87 186 30 28 171 18 13 220 143 268 
175 8 214 331 330 15 434 167 148 399 
176 9 333 286 204 288 179 466 401 21 255 
177 6 22 86 223 90 281 213 
178 8 94 391 278 147 289 46 160 181 
179 8 204 255 286 176 11 333 233 195 
180 10 472 65 460 181 456 462 41 310 379 258 
181 3 180 472 65 
182 9 440 240 296 99 450 191 410 402 3 
183 9 370 50 249 56 105 455 72 103 464 
184 11 5 9 237 18 128 88 268 160 262 171 149 
185 9 11 195 253 263 255 233 201 179 305 
186 11 171 30 18 269 174 268 237 80 87 184 9 
187 11 43 282 264 40 198 309 10 284 203 29 58 
188 8 72 218 105 455 249 50 116 183 
189 11 106 73 379 51 382 384 34 59 310 65 41 
190 3 246 357 8 
191 9 236 402 63 226 182 14 440 296 172 
192 11 120 242 291 108 10 64 58 101 199 264 29 
193 7 97 427 334 16 407 247 259 
194 6 239 266 305 201 390 15 
195 6 253 233 11 185 179 255 
196 8 257 229 359 251 4 243 102 373 
197 11 351 227 48 163 172 280 63 367 81 436 236 
198 11 284 309 40 43 282 37 187 248 143 7 89 
199 11 23 64 276 58 125 29 101 161 291 293 68 
200 9 61 153 211 131 308 406 52 127 238 
201 7 239 305 194 266 263 390 15 
202 9 100 82 128 83 9 244 26 277 160 
203 11 287 91 275 161 339 264 125 89 282 29 187 
204 8 176 255 179 286 333 288 11 401 
205 10 224 464 103 68 56 84 235 298 226 370 
206 11 46 278 228 140 379 289 65 180 189 391 106 
207 9 377 70 396 250 146 318 315 361 433 
208 7 361 441 315 146 70 323 250 
209 10 134 216 95 383 458 395 45 222 326 444 
210 11 313 35 413 122 322 159 344 76 430 457 419 
211 7 153 127 61 200 238 281 52 
212 6 442 241 165 118 20 373 
213 11 260 86 274 259 139 62 306 223 22 267 177 
214 8 331 175 434 330 15 167 399 148 
215 11 316 75 299 292 468 141 234 33 463 420 265 
216 11 134 209 95 395 458 45 234 254 383 369 75 
217 11 112 19 26 77 219 244 24 83 25 256 197 
218 11 116 72 188 249 293 50 105 455 183 101 56 
219 11 24 217 19 129 112 89 351 220 197 26 7 
220 11 129 13 28 87 19 82 7 143 219 26 24 
221 11 422 38 372 156 335 449 341 457 107 414 452 
222 10 458 95 113 279 395 57 209 383 138 170 
223 9 267 162 62 231 177 238 139 52 281 
224 10 205 103 464 56 370 235 298 68 428 405 
225 11 132 60 271 34 59 51 394 73 368 306 465 
226 10 402 296 84 450 440 191 99 14 410 428 
227 11 351 172 197 280 48 63 236 14 163 367 339 
228 11 140 31 289 206 46 117 391 261 278 39 144 
229 9 196 400 85 102 123 257 121 79 2 
230 6 277 83 96 256 77 100 
231 11 162 267 52 290 62 223 238 61 139 247 127 
232 5 312 27 371 137 300 
233 4 253 195 179 11 
234 11 292 316 75 369 215 216 468 299 141 134 209 
235 10 298 405 325 428 410 99 3 450 352 98 
236 11 63 191 172 402 14 227 48 226 280 157 182 
237 11 268 5 184 18 262 149 80 166 171 88 54 
238 9 61 52 127 281 231 223 211 162 267 
239 7 194 201 305 266 263 390 15 
240 4 343 182 190 3 
241 5 212 442 118 165 20 
242 11 291 120 192 64 108 101 199 58 10 23 29 
243 10 461 154 251 311 102 4 79 196 66 229 
244 11 26 83 112 100 19 77 82 217 277 202 230 
245 10 135 364 55 118 448 133 20 131 362 165 
246 7 8 459 357 418 473 190 453 
247 9 16 407 290 92 338 193 97 416 427 
248 11 143 7 37 284 309 89 198 282 129 28 40 
249 11 50 72 105 183 455 116 56 218 370 188 293 
250 10 70 146 433 315 318 323 377 441 361 207 
251 10 4 243 196 461 257 126 359 373 6 154 
252 11 389 285 168 261 144 117 53 262 54 166 31 
253 6 195 233 11 185 179 263 
254 8 45 409 395 270 443 138 458 113 
255 9 204 11 179 176 286 333 195 185 253 
256 10 25 96 77 79 230 102 277 85 400 112 
257 5 359 196 251 4 373 
258 11 327 41 310 456 74 460 462 314 384 382 472 
259 11 274 260 139 62 213 427 306 193 97 267 162 
260 11 274 259 213 306 139 368 62 427 86 97 193 
261 11 144 252 117 389 168 31 289 285 53 391 140 
262 11 166 149 54 80 268 5 237 88 53 184 389 
263 10 305 201 266 239 194 15 185 167 253 331 
264 11 29 58 161 187 10 125 43 203 23 275 199 
265 5 307 424 420 33 329 
266 9 305 194 239 201 390 15 167 399 263 
267 11 162 62 231 139 223 290 52 259 238 213 247 
268 11 237 80 149 166 262 5 18 54 171 184 186 
269 11 174 87 186 30 171 28 18 13 220 268 143 
270 6 443 409 138 254 45 395 
271 11 132 225 60 306 368 260 274 394 59 465 34 
272 10 44 114 444 383 326 142 78 134 209 216 
273 8 17 380 158 439 426 375 437 386 
274 10 260 259 306 213 139 368 427 62 97 193 
275 11 91 287 161 203 339 125 68 84 29 14 23 
276 11 23 68 199 293 125 464 103 64 161 56 29 
277 7 230 83 100 244 77 96 256 
278 10 46 178 94 391 206 289 181 140 180 472 
279 8 113 130 138 222 57 458 360 395 
280 11 172 227 63 339 351 14 197 236 48 191 402 
281 6 127 238 223 61 211 52 
282 11 43 309 187 284 198 89 40 248 7 203 37 
283 11 49 352 346 381 150 397 98 124 404 152 388 
284 11 309 198 40 282 37 43 248 187 143 7 89 
285 11 389 168 252 144 261 54 53 117 166 262 149 
286 9 333 176 288 204 401 21 179 466 115 
287 11 203 91 275 339 161 125 280 14 29 264 84 
288 11 333 401 286 21 176 466 122 204 322 35 413 
289 11 140 391 31 261 144 94 228 278 117 178 46 
290 11 231 52 162 247 267 406 92 62 61 139 16 
291 11 242 64 101 120 108 199 192 58 23 29 293 
292 11 215 316 234 75 299 468 141 369 463 33 216 
293 11 116 276 72 218 249 50 56 101 464 103 23 
294 11 328 155 67 387 393 421 417 467 438 136 354 
295 8 358 302 47 336 350 303 425 347 
296 10 450 440 99 410 428 226 182 402 3 298 
297 5 362 133 20 55 32 
298 9 235 405 325 428 410 99 3 450 296 
299 11 215 292 463 468 316 33 75 141 424 265 307 
300 9 137 12 378 356 348 312 342 27 232 
301 7 342 348 12 363 152 378 300 
302 4 336 295 425 47 
303 11 347 385 350 47 392 173 425 295 304 317 358 
304 7 392 425 47 317 350 173 303 
305 8 266 239 201 194 263 15 390 167 
306 10 368 274 260 259 271 213 427 465 394 60 
307 7 424 265 329 33 420 365 321 
308 10 406 131 133 92 364 200 135 55 245 448 
309 11 284 198 40 282 43 37 248 187 7 143 89 
310 11 41 258 460 384 382 327 65 456 74 462 472 
311 8 154 461 435 66 243 471 412 6 
312 7 27 232 137 300 371 378 12 
313 11 210 122 35 413 322 159 344 76 430 457 107 
314 9 74 462 456 258 327 366 460 41 310 
315 8 146 441 323 433 70 250 361 208 
316 10 75 215 292 468 234 141 299 216 33 369 
317 8 173 304 392 350 47 385 425 303 
318 7 250 433 70 396 377 323 146 
319 4 340 145 157 2 
320 5 69 151 321 365 463 
321 7 365 329 424 151 307 69 33 
322 11 413 35 159 313 210 122 446 93 401 21 466 
323 6 433 315 146 250 441 70 
324 5 426 378 348 342 12 
325 10 405 298 3 428 235 410 99 450 343 346 
326 10 444 383 142 78 272 44 134 209 95 222 
327 10 258 74 41 310 456 314 462 432 465 460 
328 11 294 393 467 155 67 421 417 345 387 438 148 
329 6 424 307 365 321 265 33 
330 5 175 214 434 331 15 
331 8 214 175 434 330 15 167 399 148 
332 9 57 360 469 42 408 447 403 349 104 
333 9 286 176 288 401 21 204 466 179 255 
334 5 97 193 427 407 16 
335 8 422 156 221 341 452 107 38 457 
336 4 302 295 425 47 
337 4 110 90 136 22 
338 4 416 353 407 16 
339 11 14 280 91 84 172 275 287 63 227 236 402 
340 6 2 121 164 319 123 145 
341 11 156 452 107 457 111 38 76 335 430 451 221 
342 8 348 301 12 378 300 356 137 324 
343 6 3 240 325 346 410 99 
344 11 430 76 419 111 374 451 452 107 376 457 341 
345 9 148 390 399 167 328 15 294 393 467 
346 10 352 283 150 98 49 397 325 405 381 343 
347 9 303 385 350 47 392 173 295 358 164 
348 8 342 12 301 378 300 137 356 324 
349 6 431 104 447 42 403 451 
350 10 47 392 425 303 304 173 347 385 317 295 
351 11 197 227 48 280 172 63 163 367 81 236 436 
352 10 346 283 98 49 150 381 405 397 325 404 
353 4 416 338 407 16 
354 7 438 417 421 67 393 467 294 
355 5 411 473 459 418 8 
356 5 137 300 12 348 342 
357 4 418 246 8 459 
358 6 295 303 347 411 302 47 
359 5 257 196 373 251 4 
360 9 469 332 376 57 374 36 130 42 447 
361 8 208 315 441 146 70 323 250 433 
362 10 20 297 55 165 118 32 133 364 135 245 
363 6 152 301 397 388 49 470 
364 11 135 55 133 245 118 362 448 131 308 20 297 
365 7 321 329 424 151 307 33 69 
366 3 314 74 462 
367 11 81 436 163 48 157 197 227 351 63 236 172 
368 9 306 465 432 394 274 60 260 427 97 
369 11 234 292 216 114 316 134 75 209 215 272 44 
370 8 183 56 103 50 224 464 249 235 
371 3 27 232 312 
372 10 449 414 221 422 38 466 335 156 457 107 
373 9 126 4 442 359 251 212 257 32 165 
374 10 376 419 344 430 469 451 76 111 36 360 
375 8 386 17 439 380 169 437 273 158 
376 10 374 469 36 419 344 360 430 451 76 111 
377 9 207 70 396 250 318 146 315 433 361 
378 9 12 300 348 27 342 137 324 312 426 
379 11 382 384 65 189 310 460 41 73 106 51 472 
380 6 439 17 273 386 375 158 
381 9 124 404 49 98 283 388 470 352 346 
382 11 384 379 310 41 51 189 65 460 73 258 34 
383 10 326 444 134 209 95 142 272 78 44 222 
384 11 382 310 41 379 460 51 65 258 189 59 73 
385 9 347 303 173 350 392 164 47 317 304 
386 6 439 375 17 380 169 273 
387 11 155 67 294 417 136 421 328 393 467 438 354 
388 6 470 124 381 49 363 283 
389 11 252 285 168 144 261 53 117 262 54 166 149 
390 8 345 399 167 148 15 266 328 194 
391 11 289 94 178 278 140 144 261 147 46 31 53 
392 9 350 47 304 425 173 317 303 385 347 
393 8 467 421 438 328 294 417 67 354 
394 10 465 432 59 60 368 327 34 51 258 306 
395 11 45 458 254 95 113 138 216 209 222 270 134 
396 5 377 207 318 250 70 
397 7 150 152 283 49 346 363 352 
398 11 119 415 36 109 130 93 376 374 159 210 469 
399 9 167 148 345 390 15 175 328 266 331 
400 9 85 123 102 229 2 79 25 96 121 
401 11 21 288 333 286 322 466 454 35 176 413 122 
402 10 226 191 236 14 296 440 84 450 63 182 
403 8 104 42 447 431 408 349 71 332 
404 8 381 98 124 49 283 352 388 470 
405 10 235 298 325 428 3 410 352 346 99 98 
406 10 308 92 290 133 131 200 52 61 364 247 
407 8 16 338 416 247 353 334 193 97 
408 11 42 71 403 447 332 170 104 57 431 349 360 
409 5 443 254 270 45 138 
410 10 99 428 450 296 440 3 325 298 405 235 
411 5 355 473 459 358 8 
412 4 435 423 66 471 
413 11 35 322 159 313 210 122 446 93 415 466 401 
414 10 449 372 221 422 38 335 466 156 457 341 
415 11 398 109 119 93 36 159 446 210 313 413 35 
416 4 353 338 407 16 
417 10 421 67 438 354 393 294 467 155 387 328 
418 5 357 459 8 246 473 
419 10 430 76 344 111 451 374 452 107 376 341 
420 5 265 307 424 33 141 
421 10 417 67 438 393 294 354 467 155 387 328 
422 9 335 221 156 38 341 372 449 107 414 
423 3 412 471 66 
424 7 307 329 265 33 365 321 420 
425 6 47 350 392 304 303 336 
426 5 324 378 27 273 312 
427 7 97 193 334 259 16 274 139 
428 10 410 99 298 450 325 296 3 235 405 440 
429 10 454 207 377 21 115 401 208 361 446 70 
430 11 76 344 419 111 451 452 374 107 341 457 376 
431 7 104 349 447 403 42 408 332 
432 7 465 394 327 368 59 258 60 
433 7 323 250 315 146 70 441 318 
434 5 214 331 330 175 15 
435 7 311 412 66 154 471 461 423 
436 11 367 81 157 163 48 2 319 197 123 227 351 
437 3 158 17 375 
438 7 354 421 417 393 467 67 294 
439 8 380 386 17 375 273 158 169 437 
440 9 296 450 99 410 182 428 226 3 402 
441 7 315 361 146 208 323 433 70 
442 8 212 241 165 118 20 373 126 32 
443 5 270 409 254 138 45 
444 10 326 142 78 383 272 44 134 209 95 114 
445 3 32 297 6 
446 10 93 159 322 413 35 109 415 210 313 454 
447 8 42 104 403 431 349 408 332 469 
448 7 245 135 131 364 55 118 133 
449 10 372 414 221 422 38 335 466 156 457 341 
450 10 296 99 410 440 428 226 3 298 325 182 
451 9 111 419 430 76 344 452 374 341 107 
452 11 341 107 156 457 111 76 430 419 451 344 38 
453 6 145 473 8 246 459 411 
454 10 429 21 401 446 115 207 322 159 413 35 
455 6 105 249 50 183 72 188 
456 10 462 74 314 258 460 327 41 310 472 366 
457 11 107 341 452 38 156 76 111 430 221 344 419 
458 11 95 395 222 113 45 209 134 254 216 138 279 
459 7 8 473 246 418 357 355 411 
460 11 41 310 65 258 472 456 384 462 74 180 382 
461 9 154 243 311 66 251 6 471 4 435 
462 10 456 314 74 258 460 327 366 41 472 310 
463 10 69 321 33 365 299 424 329 320 307 265 
464 11 103 224 56 205 68 370 276 183 50 293 235 
465 7 432 394 368 327 59 60 258 
466 11 122 38 288 372 221 457 449 313 333 107 35 
467 8 393 438 328 421 294 417 67 354 
468 9 141 75 215 316 420 299 33 265 292 
469 9 360 376 374 332 451 419 36 344 430 
470 4 388 124 381 49 
471 9 66 6 423 435 461 311 154 412 445 
472 11 180 65 460 456 462 41 310 258 74 314 181 
473 8 459 8 411 246 355 418 357 453 
DEPOT_SECTION
   1
   -1
EOF
