NAME :  X-n733-kX-w73-c7.cctp
COMMENT : 	Adapted by Maziero, Usberti and Cavellucci from the Uchoa, Pecin, Pessoa, Poggi, Subramanian, and Vidal (2013)
TYPE :  CCTP
DIMENSION :    451
EDGE_WEIGHT_TYPE : 	EUC_2D	
CAPACITY : 	25
VERTICES_WITHIN_COVERAGE :  7
VERTICES_WITH_DEMAND : 	73
NODE_COORD_SECTION
1 500 500
2 143 12
3 206 907
4 895 855
5 640 970
6 865 716
7 993 356
8 618 966
9 963 539
10 50 979
11 241 998
12 32 206
13 288 926
14 299 507
15 336 180
16 589 726
17 665 488
18 36 521
19 112 895
20 814 442
21 843 474
22 17 258
23 360 273
24 814 537
25 775 524
26 825 471
27 321 87
28 773 958
29 119 166
30 368 928
31 193 250
32 452 919
33 736 322
34 386 911
35 624 313
36 694 398
37 186 803
38 948 721
39 216 973
40 915 641
41 238 810
42 946 172
43 23 561
44 613 657
45 359 434
46 604 96
47 56 554
48 862 723
49 222 161
50 974 838
51 775 67
52 815 880
53 204 362
54 435 760
55 593 358
56 203 435
57 882 803
58 194 739
59 380 323
60 836 461
61 537 136
62 789 669
63 956 1000
64 98 295
65 656 410
66 580 959
67 594 64
68 459 43
69 425 559
70 262 31
71 522 339
72 960 74
73 237 910
74 353 828
75 420 281
76 721 524
77 703 303
78 923 491
79 444 792
80 113 210
81 907 45
82 383 799
83 209 192
84 837 536
85 177 341
86 551 3
87 835 467
88 179 369
89 487 765
90 975 406
91 365 411
92 440 41
93 57 898
94 0 517
95 524 195
96 682 409
97 608 55
98 183 242
99 948 682
100 324 44
101 380 573
102 339 188
103 964 391
104 171 837
105 637 133
106 541 313
107 818 503
108 887 643
109 981 839
110 383 325
111 288 219
112 407 596
113 707 525
114 56 193
115 282 573
116 538 143
117 614 30
118 237 435
119 823 405
120 192 314
121 826 849
122 131 65
123 990 723
124 944 209
125 68 210
126 564 354
127 646 604
128 313 888
129 797 864
130 93 297
131 152 66
132 796 886
133 716 113
134 693 324
135 263 134
136 893 184
137 549 927
138 976 350
139 692 957
140 323 894
141 982 365
142 292 960
143 552 181
144 506 122
145 208 381
146 990 518
147 577 316
148 607 398
149 471 599
150 149 735
151 841 876
152 870 781
153 789 38
154 182 984
155 272 20
156 142 8
157 611 385
158 950 575
159 823 573
160 923 848
161 468 743
162 756 931
163 47 187
164 833 785
165 367 992
166 938 833
167 184 380
168 751 956
169 831 424
170 927 752
171 479 537
172 288 947
173 603 634
174 557 925
175 3 914
176 360 979
177 958 203
178 59 285
179 697 384
180 999 813
181 332 70
182 399 474
183 102 310
184 913 612
185 429 919
186 969 530
187 173 949
188 141 839
189 641 740
190 361 430
191 365 318
192 621 920
193 337 330
194 50 481
195 347 468
196 387 470
197 568 101
198 95 19
199 864 522
200 792 430
201 830 978
202 859 434
203 944 765
204 186 358
205 563 350
206 396 727
207 625 64
208 190 270
209 989 645
210 179 252
211 437 360
212 93 576
213 521 190
214 607 277
215 949 574
216 713 437
217 113 15
218 459 368
219 235 360
220 817 710
221 213 486
222 350 900
223 262 829
224 109 521
225 960 308
226 207 862
227 282 555
228 970 106
229 88 275
230 249 910
231 622 92
232 794 539
233 190 261
234 239 9
235 232 154
236 951 789
237 222 65
238 473 21
239 937 197
240 399 590
241 983 139
242 225 375
243 868 870
244 71 526
245 24 626
246 617 137
247 869 818
248 219 453
249 647 941
250 354 911
251 787 715
252 703 108
253 217 201
254 778 655
255 636 539
256 231 139
257 896 875
258 149 310
259 490 146
260 30 507
261 629 789
262 170 132
263 965 567
264 247 913
265 728 971
266 821 717
267 127 290
268 552 702
269 354 427
270 811 541
271 646 634
272 65 882
273 911 972
274 924 847
275 251 281
276 496 123
277 868 438
278 176 25
279 824 82
280 281 949
281 594 400
282 10 280
283 118 205
284 677 390
285 19 187
286 266 971
287 976 790
288 87 602
289 670 316
290 761 466
291 237 724
292 91 189
293 229 296
294 980 970
295 663 691
296 16 299
297 972 560
298 298 972
299 556 678
300 488 752
301 409 568
302 32 545
303 881 445
304 477 892
305 48 558
306 316 928
307 46 518
308 288 114
309 267 514
310 829 404
311 956 308
312 987 3
313 742 338
314 116 155
315 451 777
316 973 57
317 225 138
318 518 310
319 776 30
320 62 317
321 471 40
322 966 476
323 524 326
324 209 361
325 896 507
326 470 876
327 450 114
328 324 779
329 104 241
330 57 522
331 923 27
332 712 427
333 470 964
334 693 963
335 311 479
336 271 194
337 964 724
338 176 808
339 384 936
340 371 981
341 846 857
342 945 504
343 791 719
344 751 372
345 75 958
346 62 898
347 994 91
348 80 955
349 744 327
350 458 595
351 372 168
352 66 190
353 197 229
354 413 716
355 184 835
356 591 356
357 996 23
358 845 854
359 850 475
360 693 951
361 880 672
362 936 622
363 544 21
364 289 72
365 906 45
366 412 160
367 769 573
368 709 340
369 640 263
370 604 137
371 305 190
372 305 835
373 66 597
374 566 121
375 413 711
376 580 374
377 729 641
378 409 283
379 386 329
380 528 22
381 55 599
382 476 8
383 255 769
384 296 575
385 489 958
386 262 795
387 191 708
388 394 834
389 156 888
390 962 119
391 615 425
392 733 282
393 151 182
394 613 431
395 160 725
396 90 574
397 935 608
398 760 475
399 177 967
400 269 829
401 550 370
402 397 539
403 389 199
404 498 893
405 226 358
406 966 481
407 597 134
408 139 824
409 246 744
410 192 857
411 70 999
412 375 330
413 90 117
414 390 352
415 379 971
416 951 753
417 350 340
418 4 293
419 710 511
420 242 988
421 214 834
422 13 547
423 659 346
424 809 539
425 930 196
426 974 862
427 11 303
428 643 667
429 409 926
430 584 675
431 442 514
432 626 494
433 790 425
434 501 66
435 789 555
436 893 652
437 995 293
438 855 486
439 153 435
440 728 97
441 186 15
442 175 942
443 232 991
444 408 267
445 798 568
446 104 139
447 544 996
448 829 952
449 370 965
450 72 268
451 555 758
DEMAND_SECTION
2 5
3 3
4 1
5 1
6 5
7 9
8 9
9 3
10 2
11 3
12 4
13 1
14 2
15 4
16 1
17 10
18 9
19 3
20 3
21 3
22 2
23 3
24 1
25 1
26 4
27 5
28 8
29 4
30 7
31 5
32 10
33 3
34 5
35 1
36 10
37 5
38 2
39 1
40 4
41 5
42 4
43 10
44 6
45 4
46 8
47 3
48 6
49 1
50 2
51 2
52 2
53 1
54 7
55 6
56 5
57 4
58 5
59 2
60 3
61 5
62 1
63 5
64 3
65 3
66 10
67 10
68 1
69 5
70 2
71 6
72 3
73 9
74 6
COVERAGE_SECTION
2 7 156 217 278 441 198 122 131 
3 7 73 264 230 226 442 410 187 
4 7 257 160 274 243 247 166 341 
5 7 8 249 192 334 139 360 66 
6 6 48 266 361 220 152 436 
7 5 141 138 103 90 225 
8 7 5 249 66 192 174 139 334 
9 7 186 297 263 146 158 215 342 
10 3 411 345 348 
11 7 420 443 39 286 154 280 298 
12 6 285 163 114 125 352 22 
13 7 172 280 306 142 230 264 128 
14 5 335 309 227 195 115 
15 6 102 371 351 403 111 336 
16 7 268 451 430 189 299 44 261 
17 4 432 419 113 255 
18 7 307 260 330 302 244 422 94 
19 5 389 272 346 93 188 
20 7 169 200 60 433 26 87 119 
21 7 359 87 60 438 26 107 20 
22 6 282 418 296 427 178 12 
23 7 191 444 378 59 110 412 75 
24 7 270 424 232 84 435 107 445 
25 7 232 435 424 270 24 107 367 
26 7 87 60 21 359 20 107 438 
27 7 181 364 100 308 135 70 155 
28 7 168 162 265 448 201 132 334 
29 7 314 446 292 393 283 80 413 
30 7 339 250 34 222 449 429 415 
31 7 233 98 210 208 353 253 293 
32 7 185 304 429 326 333 404 385 
33 7 349 313 368 77 392 134 344 
34 7 30 339 429 250 222 185 449 
35 7 214 289 147 423 369 356 55 
36 7 179 96 284 332 65 216 368 
37 7 338 355 104 421 408 41 410 
38 6 337 416 170 99 123 203 
39 7 443 420 11 154 399 187 286 
40 6 436 108 362 184 397 361 
41 6 386 223 421 400 383 37 
42 6 239 425 177 124 241 136 
43 7 422 302 305 47 18 307 94 
44 7 173 428 430 271 295 299 127 
45 6 190 269 91 195 196 182 
46 7 231 67 197 207 407 97 370 
47 7 305 302 244 330 43 307 18 
48 6 6 266 220 361 152 164 
49 7 235 317 256 83 253 135 336 
50 7 109 426 180 166 287 274 160 
51 4 153 319 279 440 
52 7 132 129 151 121 341 358 243 
53 7 324 204 145 405 242 88 167 
54 6 315 79 161 354 206 89 
55 7 356 376 126 205 157 148 281 
56 3 248 118 439 
57 7 247 152 164 4 160 274 358 
58 3 387 395 150 
59 7 110 379 412 191 414 417 193 
60 7 87 21 26 359 20 438 202 
61 7 116 374 144 276 143 197 259 
62 6 254 251 220 343 266 377 
63 2 294 273 
64 7 130 183 229 267 450 178 320 
65 7 96 284 36 391 394 179 148 
66 7 8 174 137 447 192 5 249 
67 6 97 207 46 117 231 197 
68 7 321 92 238 382 434 327 380 
69 7 301 402 240 112 101 431 350 
70 6 155 234 364 237 100 441 
71 7 323 318 106 205 401 126 147 
72 7 316 228 347 390 81 331 365 
73 7 264 230 3 13 226 280 172 
74 4 388 82 372 328 
75 6 378 444 110 59 379 23 
76 7 113 419 25 398 17 367 290 
77 7 134 289 368 392 33 349 313 
78 7 342 325 406 322 186 9 303 
79 6 315 54 89 161 300 82 
80 6 283 292 329 29 125 393 
81 3 365 331 72 
82 6 388 74 79 328 54 315 
83 7 253 49 353 235 98 317 256 
84 7 24 270 424 199 107 159 232 
85 6 204 88 120 53 324 167 
86 7 363 380 117 67 382 97 238 
87 7 60 21 26 359 438 20 107 
88 6 167 204 53 85 145 324 
89 5 300 161 315 79 54 
90 4 103 141 7 138 
91 3 190 269 45 
92 7 68 321 238 382 434 327 380 
93 4 346 272 19 175 
94 7 260 422 18 302 307 43 330 
95 4 213 143 116 61 
96 7 36 284 65 179 332 216 423 
97 3 67 207 117 
98 7 210 31 353 233 208 253 83 
99 7 38 337 40 209 123 362 436 
100 7 181 27 364 155 70 308 234 
101 5 240 301 112 402 69 
102 6 15 371 351 403 111 336 
103 4 90 141 138 7 
104 7 355 338 410 188 408 37 421 
105 6 246 370 407 231 46 207 
106 6 323 318 71 147 205 126 
107 7 26 24 424 21 84 270 87 
108 4 436 40 361 184 
109 6 50 426 180 166 287 236 
110 7 59 379 412 191 414 417 193 
111 4 336 371 102 15 
112 5 240 301 101 69 350 
113 7 76 419 17 25 255 398 367 
114 6 352 163 125 12 292 285 
115 4 384 227 309 14 
116 6 61 374 144 143 276 259 
117 3 97 207 67 
118 2 248 56 
119 5 310 169 20 433 200 
120 6 85 293 258 204 208 53 
121 7 358 341 151 52 129 243 132 
122 3 131 217 2 
123 6 337 38 416 99 203 287 
124 4 239 177 425 42 
125 6 352 114 163 292 12 80 
126 7 205 401 376 356 55 147 71 
127 5 271 173 44 428 255 
128 7 140 222 306 13 250 372 172 
129 6 132 52 121 151 341 358 
130 7 64 183 229 267 178 450 320 
131 3 122 278 2 
132 5 52 129 151 121 341 
133 4 252 440 51 105 
134 7 77 368 289 423 33 313 349 
135 7 256 308 235 317 49 336 364 
136 4 425 239 42 124 
137 4 174 66 404 385 
138 5 141 7 103 225 311 
139 6 334 360 265 249 5 168 
140 7 128 222 250 306 13 30 372 
141 5 7 138 103 90 225 
142 7 298 172 280 286 13 306 420 
143 4 95 213 116 61 
144 7 276 259 61 116 434 327 374 
145 7 242 53 324 167 405 88 204 
146 7 186 9 406 297 342 322 263 
147 7 106 205 126 356 55 35 214 
148 6 281 157 391 394 376 55 
149 2 350 69 
150 3 395 58 387 
151 7 341 358 52 243 121 129 132 
152 6 57 164 247 48 170 6 
153 3 319 51 279 
154 5 399 39 187 442 443 
155 7 70 234 364 100 237 181 27 
156 7 2 217 278 441 198 122 131 
157 7 148 281 55 376 356 391 394 
158 5 215 263 297 397 9 
159 6 445 270 24 424 435 84 
160 7 274 166 4 257 50 426 109 
161 5 300 89 54 315 79 
162 5 168 28 265 132 360 
163 6 114 352 12 285 125 292 
164 3 152 247 57 
165 7 340 176 415 449 339 30 298 
166 7 274 160 50 109 236 426 4 
167 7 88 204 145 53 324 85 242 
168 6 28 162 265 334 360 139 
169 6 310 119 20 202 60 200 
170 7 203 416 38 236 337 287 152 
171 3 431 69 350 
172 7 280 142 13 298 286 306 264 
173 6 44 271 430 127 428 299 
174 4 137 66 192 404 
175 4 93 346 272 10 
176 7 340 165 449 415 339 30 298 
177 4 124 239 425 42 
178 5 450 229 320 130 64 
179 7 36 284 96 332 368 65 423 
180 6 109 287 50 236 426 166 
181 7 27 100 364 308 155 70 135 
182 4 196 195 45 190 
183 6 64 130 267 229 320 258 
184 5 397 362 40 108 436 
185 7 429 32 34 339 304 326 333 
186 7 9 146 297 342 263 215 158 
187 4 442 399 154 39 
188 7 408 104 355 338 389 410 37 
189 4 261 16 295 428 
190 6 45 269 91 195 196 182 
191 7 59 412 110 379 417 193 414 
192 6 249 8 5 66 174 137 
193 5 417 191 412 59 110 
194 5 260 307 18 330 244 
195 6 45 335 190 196 269 182 
196 5 182 195 45 190 269 
197 7 374 46 407 67 61 370 116 
198 4 217 156 2 122 
199 7 84 325 438 359 107 21 24 
200 6 433 20 169 119 310 290 
201 3 448 28 273 
202 5 277 303 169 60 87 
203 6 416 170 236 287 38 337 
204 6 88 53 85 167 324 145 
205 7 126 401 356 376 55 147 71 
206 3 354 375 54 
207 3 97 231 67 
208 7 233 31 210 98 353 120 293 
209 4 99 362 397 40 
210 7 98 31 233 208 353 120 253 
211 6 218 414 379 110 59 412 
212 7 396 288 373 47 381 305 244 
213 5 95 143 116 259 61 
214 3 369 35 147 
215 5 158 263 297 397 9 
216 7 332 96 36 179 290 284 398 
217 5 198 2 156 122 131 
218 4 211 71 414 323 
219 5 405 242 324 53 145 
220 6 266 343 251 48 6 62 
221 4 248 56 118 309 
222 7 250 140 30 34 128 306 339 
223 5 400 41 386 372 421 
224 5 244 330 396 212 47 
225 5 311 437 138 7 141 
226 7 410 421 355 104 3 73 389 
227 4 115 384 309 14 
228 6 390 347 72 241 316 42 
229 7 450 64 130 178 183 329 267 
230 7 264 73 13 3 280 172 286 
231 6 46 207 67 97 105 246 
232 7 424 270 435 24 25 445 367 
233 7 208 31 210 98 353 293 120 
234 6 70 155 441 237 278 364 
235 7 49 256 317 135 83 253 336 
236 6 203 287 416 170 166 50 
237 4 70 234 278 441 
238 7 382 321 68 92 434 380 363 
239 5 425 124 177 42 136 
240 5 112 301 101 69 402 
241 7 390 228 347 42 72 177 239 
242 6 405 145 219 324 53 167 
243 7 341 151 257 358 4 121 247 
244 6 330 307 47 18 224 305 
245 5 381 373 43 288 305 
246 6 370 105 407 46 231 374 
247 7 57 152 358 4 341 164 243 
248 3 56 118 221 
249 6 5 192 8 360 139 334 
250 7 222 30 34 140 339 306 128 
251 5 343 220 266 62 254 
252 4 133 440 105 51 
253 6 83 353 49 235 98 336 
254 6 62 377 251 343 220 266 
255 2 432 17 
256 5 317 235 49 135 83 
257 6 4 243 160 274 341 151 
258 6 267 85 120 183 64 130 
259 6 276 144 61 116 327 213 
260 7 18 307 330 94 194 302 422 
261 2 189 16 
262 4 393 317 314 49 
263 5 297 158 215 9 186 
264 7 230 73 3 13 280 172 286 
265 6 168 334 139 360 28 162 
266 5 220 343 251 48 6 
267 7 64 258 183 130 229 329 450 
268 6 299 430 16 451 44 300 
269 5 190 45 91 195 196 
270 7 424 24 232 84 435 445 159 
271 6 127 428 44 173 295 430 
272 3 346 93 19 
273 2 63 294 
274 7 160 166 4 257 50 426 109 
275 5 293 208 233 31 120 
276 6 144 259 61 116 327 434 
277 5 202 303 60 169 359 
278 6 441 2 156 131 122 237 
279 2 51 153 
280 7 172 142 13 286 298 306 230 
281 6 148 157 376 391 394 55 
282 4 418 296 22 427 
283 6 80 292 29 329 393 125 
284 7 36 96 179 65 423 332 216 
285 5 12 163 114 352 125 
286 7 280 142 420 298 172 11 443 
287 6 236 180 203 416 50 109 
288 5 373 212 396 381 47 
289 6 134 423 77 35 368 369 
290 7 398 200 433 216 20 25 332 
291 2 409 58 
292 6 352 80 125 283 114 29 
293 5 275 120 208 233 31 
294 2 63 273 
295 4 428 189 271 44 
296 4 427 418 282 22 
297 5 263 9 158 215 186 
298 7 142 172 280 286 13 306 420 
299 5 268 430 16 44 173 
300 5 89 161 315 54 79 
301 6 69 240 112 101 402 350 
302 7 43 422 305 18 47 307 330 
303 5 277 202 359 21 60 
304 4 326 404 32 185 
305 7 47 302 43 330 422 18 244 
306 7 13 172 140 128 142 280 250 
307 7 18 330 260 244 302 47 194 
308 7 135 364 27 181 256 317 235 
309 5 14 227 335 115 221 
310 4 119 169 20 202 
311 4 225 437 138 7 
312 7 357 316 331 72 347 81 365 
313 7 349 33 368 344 134 77 392 
314 7 29 446 292 393 413 283 80 
315 5 79 54 89 161 300 
316 7 72 347 357 228 312 331 390 
317 5 256 235 49 135 262 
318 5 323 106 71 147 205 
319 3 153 51 279 
320 5 178 130 183 64 229 
321 7 68 238 92 382 434 380 363 
322 6 406 342 78 146 186 9 
323 6 71 318 106 205 126 401 
324 7 53 405 145 242 204 219 88 
325 6 78 199 438 342 359 21 
326 3 304 404 32 
327 6 276 259 144 366 434 68 
328 1 74 
329 6 80 229 283 450 125 64 
330 7 307 244 18 260 47 302 305 
331 5 81 365 316 72 312 
332 7 216 36 96 179 284 65 290 
333 7 385 32 185 304 429 404 447 
334 6 139 360 265 249 5 168 
335 3 14 195 309 
336 5 111 371 253 235 49 
337 6 38 123 416 99 170 203 
338 7 37 355 104 408 421 188 410 
339 7 30 34 429 449 415 250 340 
340 7 176 165 415 449 339 30 429 
341 7 358 151 121 243 52 247 4 
342 7 78 406 186 322 9 146 325 
343 4 251 220 266 62 
344 7 313 349 33 368 179 36 433 
345 3 348 10 411 
346 4 93 272 19 348 
347 7 228 72 316 390 241 357 312 
348 3 345 10 411 
349 7 33 313 368 344 392 77 134 
350 3 149 69 112 
351 6 403 15 102 366 371 327 
352 6 114 163 125 292 12 285 
353 7 98 31 210 233 253 83 208 
354 3 375 206 54 
355 7 104 410 338 421 37 226 188 
356 7 55 376 126 205 157 147 401 
357 7 312 316 72 347 331 228 81 
358 7 341 121 151 243 52 247 129 
359 7 21 438 87 60 26 277 202 
360 6 139 334 265 249 5 168 
361 5 436 108 6 40 48 
362 5 397 184 40 158 215 
363 7 380 86 434 67 382 117 238 
364 7 27 308 181 100 70 155 135 
365 3 81 331 72 
366 5 351 403 327 102 15 
367 7 435 445 232 25 424 270 159 
368 7 134 33 313 77 349 179 289 
369 4 214 35 289 77 
370 5 407 246 105 46 374 
371 5 15 102 111 336 135 
372 5 400 223 74 128 328 
373 7 381 288 396 212 305 47 245 
374 7 197 61 407 116 370 46 246 
375 3 354 206 54 
376 7 55 356 126 205 281 401 157 
377 4 254 62 367 271 
378 7 75 444 59 110 23 379 191 
379 7 110 59 412 414 191 417 193 
380 7 363 86 434 382 238 321 68 
381 7 373 288 245 305 396 212 47 
382 7 238 321 68 92 380 434 363 
383 3 386 409 41 
384 4 115 227 14 309 
385 7 333 32 404 304 447 137 185 
386 4 383 41 223 400 
387 1 58 
388 7 82 74 79 34 222 315 54 
389 7 19 410 188 3 104 226 442 
390 6 228 241 347 72 42 316 
391 5 394 148 281 157 65 
392 3 77 33 349 
393 7 29 283 314 80 262 83 292 
394 5 391 148 281 157 65 
395 3 150 387 58 
396 7 212 288 373 47 381 305 244 
397 5 362 184 158 215 40 
398 7 290 25 200 433 216 419 20 
399 4 154 187 442 39 
400 5 223 386 41 372 421 
401 6 126 205 376 71 356 55 
402 5 301 69 101 240 431 
403 5 351 366 102 15 444 
404 3 304 326 32 
405 7 219 242 324 53 145 204 167 
406 6 322 342 78 146 186 9 
407 6 370 246 374 46 105 197 
408 5 188 104 338 355 37 
409 3 291 383 58 
410 7 226 355 104 421 389 3 338 
411 3 10 345 348 
412 7 59 110 379 191 414 417 193 
413 3 446 314 29 
414 5 379 412 110 59 191 
415 7 449 340 176 165 339 30 429 
416 6 203 170 38 337 236 287 
417 5 193 191 412 59 110 
418 4 427 296 282 22 
419 7 113 76 17 398 25 290 216 
420 7 11 443 286 39 280 142 298 
421 7 226 355 410 41 37 104 338 
422 7 43 302 94 18 305 260 47 
423 7 289 134 35 284 368 179 77 
424 7 270 24 232 435 84 445 25 
425 5 239 124 42 177 136 
426 6 50 109 166 274 160 180 
427 4 296 418 282 22 
428 6 295 44 271 173 430 127 
429 7 185 34 339 30 32 415 449 
430 7 299 44 268 173 16 428 271 
431 6 171 69 402 182 301 196 
432 1 17 
433 6 200 20 119 169 310 290 
434 7 321 68 380 238 144 276 363 
435 7 445 232 270 424 367 24 25 
436 4 108 361 40 184 
437 4 225 311 138 7 
438 7 359 21 87 60 26 199 107 
439 3 56 167 248 
440 5 133 252 51 319 153 
441 6 278 2 156 234 131 237 
442 4 187 399 154 3 
443 7 420 11 39 286 154 399 280 
444 6 378 75 23 59 110 379 
445 7 435 159 232 367 270 424 24 
446 5 314 413 29 292 352 
447 7 66 385 137 174 8 333 5 
448 3 201 28 52 
449 7 415 340 176 165 339 30 429 
450 6 229 178 130 64 329 320 
451 5 16 268 300 89 261 
DEPOT_SECTION
   1
   -1
EOF
