NAME :  X-n783-kX-w312-c11.cctp
COMMENT : 	Adapted by Maziero, Usberti and Cavellucci from the Uchoa, Pecin, Pessoa, Poggi, Subramanian, and Vidal (2013)
TYPE :  CCTP
DIMENSION :    783
EDGE_WEIGHT_TYPE : 	EUC_2D	
CAPACITY : 	832
VERTICES_WITHIN_COVERAGE :  11
VERTICES_WITH_DEMAND : 	312
NODE_COORD_SECTION
1 909 919
2 878 721
3 969 85
4 591 195
5 955 148
6 587 903
7 994 792
8 625 129
9 544 703
10 461 167
11 37 644
12 615 22
13 773 788
14 384 364
15 51 291
16 109 732
17 570 124
18 692 985
19 62 150
20 358 5
21 188 450
22 674 658
23 676 904
24 815 984
25 710 16
26 74 658
27 576 1000
28 636 695
29 547 92
30 587 397
31 26 150
32 182 561
33 938 462
34 362 928
35 366 835
36 516 892
37 448 923
38 501 445
39 513 799
40 905 388
41 474 791
42 560 782
43 465 552
44 315 645
45 738 396
46 45 915
47 797 871
48 922 643
49 793 586
50 921 458
51 160 295
52 598 257
53 516 221
54 99 169
55 788 634
56 425 751
57 616 680
58 949 444
59 987 459
60 182 279
61 127 354
62 791 822
63 645 609
64 857 386
65 917 154
66 398 480
67 729 688
68 134 510
69 172 2
70 499 737
71 780 565
72 908 477
73 917 341
74 272 553
75 421 876
76 770 2
77 497 623
78 853 27
79 853 521
80 519 196
81 90 822
82 827 901
83 350 168
84 656 56
85 199 924
86 732 55
87 772 748
88 884 973
89 158 430
90 563 13
91 50 959
92 609 223
93 628 860
94 264 436
95 699 764
96 441 479
97 95 246
98 236 627
99 307 893
100 695 302
101 378 639
102 830 30
103 44 339
104 885 644
105 122 603
106 850 732
107 155 865
108 230 346
109 300 719
110 55 954
111 467 494
112 153 641
113 713 82
114 659 564
115 881 18
116 781 654
117 490 806
118 823 569
119 878 496
120 441 898
121 589 516
122 165 614
123 17 749
124 164 778
125 296 858
126 258 488
127 437 866
128 187 88
129 725 988
130 125 619
131 352 701
132 447 517
133 316 80
134 743 575
135 555 373
136 84 140
137 341 827
138 541 567
139 919 768
140 945 924
141 397 932
142 905 944
143 892 37
144 74 227
145 911 617
146 668 697
147 1 96
148 223 299
149 637 118
150 622 958
151 356 127
152 347 777
153 157 190
154 8 497
155 138 78
156 100 192
157 384 598
158 23 228
159 110 163
160 345 464
161 53 628
162 316 705
163 112 361
164 642 405
165 235 578
166 489 621
167 563 916
168 759 215
169 822 262
170 597 310
171 960 837
172 164 988
173 37 513
174 648 247
175 375 402
176 531 205
177 935 676
178 103 549
179 964 651
180 233 241
181 891 112
182 378 472
183 457 893
184 852 861
185 113 701
186 340 913
187 662 198
188 667 718
189 140 332
190 809 908
191 968 908
192 163 857
193 333 418
194 59 136
195 839 123
196 529 215
197 385 380
198 319 417
199 318 216
200 156 119
201 816 160
202 267 210
203 528 320
204 138 787
205 473 713
206 537 114
207 168 838
208 774 825
209 32 510
210 216 372
211 16 935
212 60 733
213 500 37
214 343 363
215 429 41
216 205 398
217 708 298
218 411 109
219 840 359
220 112 603
221 816 310
222 865 775
223 259 348
224 893 516
225 814 607
226 605 162
227 781 239
228 359 199
229 16 739
230 482 214
231 70 526
232 528 103
233 572 770
234 802 517
235 876 469
236 118 571
237 952 781
238 823 795
239 522 595
240 52 336
241 456 367
242 255 413
243 410 194
244 956 21
245 717 142
246 766 880
247 524 825
248 657 640
249 189 232
250 471 339
251 920 809
252 688 98
253 660 781
254 441 81
255 236 735
256 784 692
257 743 446
258 201 32
259 188 957
260 381 605
261 380 904
262 227 263
263 69 94
264 123 416
265 341 341
266 450 482
267 251 533
268 352 591
269 724 967
270 753 539
271 684 924
272 617 989
273 455 500
274 472 926
275 395 683
276 167 357
277 789 678
278 897 272
279 991 492
280 457 837
281 809 754
282 770 852
283 153 799
284 643 455
285 924 995
286 788 75
287 147 318
288 85 634
289 373 184
290 99 998
291 312 527
292 846 684
293 725 123
294 806 813
295 566 172
296 191 307
297 373 125
298 463 353
299 906 762
300 91 96
301 40 521
302 579 597
303 907 73
304 718 33
305 279 156
306 114 156
307 220 648
308 948 992
309 969 895
310 986 791
311 78 292
312 857 236
313 816 111
314 559 896
315 791 579
316 228 922
317 856 201
318 155 8
319 243 347
320 48 593
321 954 72
322 549 308
323 401 200
324 2 686
325 301 649
326 467 112
327 810 8
328 984 28
329 918 370
330 89 382
331 88 406
332 586 337
333 151 693
334 550 217
335 438 295
336 606 719
337 178 588
338 434 358
339 136 341
340 544 174
341 504 41
342 282 685
343 39 476
344 104 90
345 460 557
346 86 722
347 80 399
348 694 749
349 707 652
350 794 129
351 774 72
352 922 819
353 735 359
354 801 212
355 707 226
356 102 861
357 358 730
358 462 414
359 49 853
360 750 829
361 224 328
362 581 819
363 49 715
364 84 563
365 305 734
366 917 652
367 530 838
368 529 296
369 403 43
370 681 779
371 393 11
372 208 154
373 646 369
374 37 206
375 122 294
376 451 649
377 993 339
378 604 580
379 274 509
380 289 185
381 728 595
382 952 690
383 989 745
384 958 560
385 966 296
386 104 963
387 478 854
388 394 459
389 147 617
390 39 967
391 537 957
392 740 958
393 544 247
394 186 913
395 38 939
396 839 23
397 754 893
398 930 149
399 430 951
400 739 15
401 202 774
402 104 669
403 241 910
404 189 181
405 645 128
406 500 603
407 577 997
408 146 161
409 662 708
410 360 721
411 622 159
412 264 483
413 166 281
414 881 938
415 137 613
416 403 69
417 897 132
418 710 807
419 965 334
420 127 729
421 918 559
422 450 19
423 522 569
424 202 666
425 127 378
426 156 913
427 306 328
428 97 971
429 747 419
430 838 961
431 391 886
432 484 126
433 828 28
434 954 279
435 930 285
436 739 507
437 750 567
438 921 125
439 654 832
440 440 878
441 720 914
442 606 394
443 372 600
444 869 892
445 274 961
446 831 124
447 471 928
448 511 594
449 778 117
450 867 996
451 417 918
452 554 923
453 920 808
454 944 824
455 254 941
456 389 203
457 222 972
458 741 70
459 101 132
460 110 652
461 533 564
462 891 336
463 661 893
464 15 879
465 527 56
466 481 860
467 709 388
468 105 381
469 210 937
470 550 23
471 603 51
472 582 48
473 415 206
474 591 850
475 776 80
476 354 660
477 301 884
478 50 500
479 240 938
480 530 386
481 859 502
482 826 779
483 86 854
484 923 289
485 403 612
486 771 629
487 983 321
488 550 820
489 80 276
490 189 636
491 676 601
492 129 319
493 363 577
494 340 524
495 490 220
496 584 523
497 553 110
498 935 660
499 830 469
500 539 52
501 278 487
502 637 548
503 674 905
504 823 923
505 999 837
506 565 337
507 82 851
508 969 38
509 498 300
510 791 314
511 693 895
512 710 695
513 390 537
514 837 407
515 220 391
516 484 78
517 618 221
518 180 686
519 959 960
520 934 765
521 951 543
522 752 859
523 278 986
524 402 222
525 487 708
526 434 776
527 129 119
528 438 308
529 153 438
530 564 929
531 541 777
532 290 772
533 202 468
534 432 949
535 117 642
536 413 752
537 719 52
538 779 106
539 543 161
540 963 277
541 112 459
542 301 817
543 80 48
544 300 770
545 622 470
546 148 130
547 70 782
548 488 540
549 814 887
550 423 243
551 431 107
552 792 289
553 84 21
554 679 989
555 159 535
556 180 610
557 155 207
558 424 341
559 829 839
560 828 485
561 579 290
562 621 918
563 92 563
564 609 789
565 233 130
566 184 475
567 182 513
568 601 785
569 828 106
570 482 409
571 407 261
572 587 627
573 396 611
574 833 257
575 653 648
576 552 862
577 804 553
578 12 198
579 887 275
580 183 925
581 242 857
582 749 551
583 651 13
584 373 643
585 731 963
586 219 275
587 568 499
588 714 734
589 617 325
590 560 470
591 837 631
592 4 304
593 79 917
594 355 877
595 735 76
596 745 354
597 621 723
598 145 377
599 119 768
600 638 271
601 574 247
602 924 493
603 924 402
604 91 336
605 599 6
606 635 887
607 660 944
608 716 219
609 186 35
610 679 861
611 919 121
612 822 482
613 151 384
614 407 860
615 869 930
616 928 75
617 139 615
618 625 969
619 756 128
620 252 842
621 123 311
622 90 412
623 404 744
624 216 14
625 906 567
626 15 55
627 719 567
628 948 717
629 614 496
630 564 906
631 179 656
632 774 462
633 207 724
634 355 609
635 344 833
636 726 657
637 971 896
638 958 954
639 351 186
640 39 94
641 18 167
642 396 368
643 416 570
644 653 463
645 792 716
646 649 420
647 332 103
648 707 838
649 561 229
650 144 320
651 971 672
652 44 186
653 924 415
654 267 418
655 782 427
656 715 867
657 306 493
658 853 704
659 293 285
660 468 127
661 464 700
662 692 310
663 610 428
664 257 608
665 980 789
666 25 7
667 918 803
668 740 837
669 762 527
670 50 710
671 978 624
672 775 736
673 551 199
674 416 970
675 630 871
676 926 116
677 413 103
678 724 481
679 293 786
680 959 178
681 244 56
682 28 579
683 465 381
684 342 15
685 267 887
686 339 737
687 219 933
688 750 110
689 533 943
690 116 72
691 708 481
692 556 836
693 421 584
694 777 841
695 664 334
696 340 957
697 138 690
698 185 939
699 895 564
700 384 127
701 221 151
702 164 405
703 788 509
704 171 394
705 33 379
706 987 917
707 810 274
708 892 692
709 267 798
710 881 293
711 1 227
712 935 348
713 441 344
714 527 995
715 487 506
716 395 580
717 405 978
718 557 620
719 966 509
720 571 996
721 835 166
722 57 410
723 214 405
724 462 92
725 734 399
726 69 747
727 589 624
728 272 760
729 936 678
730 84 652
731 525 364
732 908 779
733 600 19
734 548 288
735 33 90
736 479 319
737 717 960
738 360 458
739 204 29
740 799 441
741 602 46
742 372 106
743 707 678
744 884 598
745 401 345
746 889 818
747 288 295
748 453 130
749 587 936
750 169 316
751 271 407
752 428 772
753 461 415
754 926 968
755 61 305
756 435 146
757 653 395
758 820 279
759 637 547
760 302 267
761 620 2
762 973 397
763 58 455
764 561 40
765 147 381
766 452 610
767 963 618
768 948 761
769 850 189
770 785 845
771 65 388
772 900 613
773 668 101
774 445 170
775 660 387
776 57 176
777 373 307
778 365 297
779 117 1000
780 765 916
781 62 12
782 428 75
783 387 877
DEMAND_SECTION
2 85
3 34
4 47
5 49
6 75
7 87
8 13
9 92
10 85
11 3
12 18
13 87
14 96
15 72
16 38
17 5
18 59
19 75
20 81
21 68
22 99
23 66
24 67
25 33
26 30
27 73
28 61
29 18
30 37
31 81
32 36
33 17
34 31
35 25
36 85
37 12
38 44
39 60
40 5
41 23
42 58
43 29
44 9
45 13
46 1
47 100
48 88
49 53
50 30
51 66
52 47
53 35
54 55
55 83
56 20
57 84
58 36
59 50
60 76
61 70
62 80
63 79
64 44
65 26
66 60
67 80
68 40
69 60
70 46
71 62
72 50
73 32
74 18
75 3
76 16
77 30
78 4
79 68
80 6
81 34
82 93
83 58
84 10
85 45
86 27
87 90
88 77
89 98
90 40
91 41
92 30
93 58
94 63
95 78
96 67
97 51
98 32
99 25
100 26
101 25
102 25
103 67
104 99
105 41
106 66
107 47
108 86
109 18
110 19
111 85
112 23
113 14
114 79
115 48
116 93
117 9
118 80
119 34
120 19
121 79
122 21
123 20
124 44
125 24
126 60
127 14
128 87
129 88
130 23
131 29
132 12
133 61
134 90
135 12
136 84
137 20
138 85
139 68
140 60
141 21
142 53
143 29
144 67
145 84
146 86
147 86
148 60
149 2
150 64
151 77
152 10
153 85
154 81
155 92
156 93
157 12
158 63
159 79
160 97
161 41
162 50
163 70
164 39
165 21
166 40
167 99
168 29
169 21
170 46
171 96
172 38
173 48
174 24
175 89
176 12
177 96
178 41
179 62
180 57
181 5
182 60
183 5
184 72
185 35
186 6
187 6
188 51
189 52
190 77
191 59
192 17
193 78
194 60
195 23
196 24
197 92
198 60
199 99
200 79
201 37
202 66
203 1
204 44
205 29
206 2
207 38
208 65
209 11
210 72
211 50
212 46
213 7
214 96
215 79
216 78
217 17
218 53
219 21
220 30
221 47
222 62
223 62
224 59
225 81
226 25
227 20
228 55
229 19
230 54
231 28
232 12
233 61
234 100
235 46
236 41
237 96
238 58
239 56
240 71
241 51
242 78
243 72
244 18
245 7
246 79
247 90
248 74
249 82
250 85
251 100
252 29
253 98
254 99
255 5
256 72
257 9
258 92
259 48
260 2
261 27
262 57
263 54
264 96
265 70
266 64
267 27
268 14
269 95
270 55
271 89
272 86
273 36
274 18
275 7
276 91
277 66
278 20
279 49
280 11
281 57
282 100
283 33
284 31
285 65
286 33
287 80
288 27
289 77
290 49
291 46
292 86
293 28
294 51
295 32
296 66
297 94
298 80
299 60
300 62
301 17
302 86
303 33
304 16
305 94
306 54
307 21
308 55
309 53
310 85
311 93
312 32
313 24
COVERAGE_SECTION
2 11 106 658 708 292 299 222 139 732 628 520 729 
3 11 321 616 508 676 328 438 611 303 5 244 398 
4 11 92 295 226 517 673 649 334 411 340 601 539 
5 11 398 680 65 438 676 611 417 3 181 321 616 
6 11 630 167 314 749 530 562 452 606 474 576 675 
7 11 310 665 237 505 383 768 171 454 520 251 453 
8 11 149 405 411 226 773 17 252 295 4 497 187 
9 11 70 525 336 205 233 531 57 597 661 42 718 
10 11 774 756 748 660 432 230 326 243 473 495 80 
11 11 161 26 730 288 320 324 682 670 363 402 460 
12 11 733 761 605 741 471 583 472 84 90 764 470 
13 11 208 62 87 294 360 238 281 672 694 482 770 
14 11 642 197 745 175 214 558 265 338 777 713 778 
15 11 755 311 489 240 103 592 604 97 144 158 375 
16 11 420 346 185 599 726 212 697 333 204 363 402 
17 11 497 206 29 539 232 295 226 8 340 411 149 
18 11 554 129 737 269 585 607 392 271 618 150 272 
19 11 194 136 776 31 652 54 459 641 159 306 263 
20 11 684 371 369 416 215 133 422 782 647 742 677 
21 11 533 566 89 529 702 723 216 704 567 515 264 
22 11 575 248 349 146 743 409 512 636 28 63 491 
23 11 503 463 511 271 607 610 606 441 656 562 675 
24 11 430 450 504 88 190 615 392 414 82 780 585 
25 11 304 400 537 86 583 76 458 595 113 84 252 
26 11 730 288 402 460 161 11 535 670 185 363 130 
27 11 407 720 272 714 391 618 150 749 689 530 452 
28 11 57 409 146 597 336 188 575 22 248 743 512 
29 11 497 232 206 17 465 500 764 472 516 341 470 
30 11 442 663 135 164 480 332 506 373 646 757 731 
31 11 641 19 194 652 776 578 374 640 136 147 735 
32 11 337 555 567 556 122 165 236 389 415 617 68 
33 11 50 58 72 602 59 653 719 279 235 603 119 
34 11 186 261 141 696 431 594 451 783 99 717 674 
35 11 635 137 594 783 614 431 152 542 75 261 125 
36 11 314 466 576 452 630 167 387 689 274 367 447 
37 11 274 447 120 183 451 534 399 440 141 75 674 
38 11 570 358 753 111 266 715 590 480 96 273 683 
39 11 117 247 531 41 367 488 42 692 70 387 233 
40 11 329 603 653 64 73 712 462 762 58 219 514 
41 11 117 39 526 280 752 70 247 56 387 531 466 
42 11 233 531 488 568 362 564 39 692 247 367 117 
43 11 345 548 132 715 643 273 693 111 423 766 406 
44 11 325 476 342 634 584 162 101 268 131 664 443 
45 11 725 429 467 353 596 257 655 632 740 775 757 
46 11 395 593 211 110 91 464 390 359 483 507 386 
47 11 549 770 246 282 694 190 82 559 522 397 62 
48 11 366 498 145 177 104 772 729 179 767 382 651 
49 11 315 71 225 118 577 437 55 486 134 582 270 
50 11 33 72 58 602 653 235 603 119 224 59 719 
51 11 413 750 287 60 650 296 375 492 621 189 339 
52 11 601 92 561 517 600 649 174 170 393 734 4 
53 11 196 176 80 495 334 230 393 673 649 340 601 
54 11 159 306 156 136 459 19 776 408 194 527 652 
55 11 486 116 225 277 49 591 315 256 636 71 381 
56 11 536 752 623 526 205 41 661 357 410 275 70 
57 11 28 336 597 575 409 146 248 572 22 727 188 
58 11 33 50 653 59 603 72 762 602 279 719 40 
59 11 279 58 33 719 762 50 602 653 72 603 521 
60 11 413 51 296 586 750 148 249 262 287 650 375 
61 11 339 163 425 189 598 765 468 492 613 650 276 
62 11 208 294 694 770 282 13 238 360 559 47 668 
63 11 491 248 575 114 378 22 727 572 502 759 302 
64 11 514 219 40 462 329 603 653 73 740 235 655 
65 11 398 438 417 611 5 676 680 181 769 317 616 
66 11 388 182 96 738 266 160 513 273 132 111 494 
67 11 512 743 636 349 588 256 277 116 146 22 672 
68 11 555 567 178 541 566 236 231 563 32 364 529 
69 11 318 609 258 739 624 155 128 553 681 690 543 
70 11 525 205 661 9 531 41 39 117 56 42 526 
71 11 315 49 577 437 582 270 134 669 118 234 225 
72 11 50 602 235 33 119 224 58 481 653 719 79 
73 11 712 462 329 40 419 484 435 710 603 385 487 
74 11 267 379 165 291 664 126 501 657 412 494 98 
75 11 127 440 614 120 431 783 183 451 261 280 37 
76 11 400 327 304 25 433 86 102 351 537 396 458 
77 11 166 406 448 239 766 376 423 718 461 138 345 
78 11 396 102 433 115 143 327 303 286 569 76 616 
79 11 481 119 224 560 612 234 118 235 499 577 699 
80 11 176 196 53 673 340 334 495 230 539 295 649 
81 11 507 483 356 547 359 204 599 283 107 726 207 
82 11 190 549 504 47 444 184 615 430 559 780 246 
83 11 639 289 228 151 297 456 700 199 323 380 243 
84 11 583 773 12 252 471 741 113 537 149 761 304 
85 11 580 394 469 698 687 316 259 479 403 426 457 
86 11 537 458 595 304 113 400 25 351 475 688 286 
87 11 672 281 645 13 256 588 482 238 277 294 67 
88 11 450 414 142 754 285 615 430 308 24 519 638 
89 11 529 702 21 264 704 613 765 566 541 598 216 
90 11 470 764 605 733 472 500 741 12 471 465 761 
91 11 110 390 395 211 46 428 593 386 290 779 464 
92 11 517 4 52 601 174 649 600 187 334 226 673 
93 11 675 606 439 474 463 610 562 6 362 503 23 
94 11 654 242 751 412 126 501 198 723 515 216 533 
95 11 348 370 588 253 418 188 409 512 146 648 87 
96 11 266 273 111 132 66 388 715 182 753 358 38 
97 11 144 489 311 156 375 15 755 374 621 557 158 
98 11 307 664 490 165 424 556 631 325 337 122 342 
99 11 477 125 186 685 594 34 403 635 455 696 137 
100 11 662 217 695 600 353 174 596 355 589 373 608 
101 11 584 476 573 260 485 634 443 157 275 268 716 
102 11 433 396 78 327 115 143 286 76 351 475 569 
103 11 240 755 705 604 15 592 771 311 330 347 163 
104 11 366 772 48 145 744 708 591 498 292 177 729 
105 11 220 130 415 617 389 236 535 122 288 112 460 
106 11 658 2 222 281 292 482 708 645 299 238 672 
107 11 192 207 426 356 394 283 580 483 85 507 81 
108 11 319 361 223 210 515 148 296 216 723 276 750 
109 11 365 162 342 686 728 544 532 131 357 410 255 
110 11 91 390 395 46 211 593 428 386 290 779 464 
111 11 273 266 715 96 132 548 43 38 345 66 753 
112 11 389 122 617 631 415 130 490 535 556 460 105 
113 11 595 252 458 537 86 293 688 304 773 245 351 
114 11 502 759 491 63 378 627 248 381 629 575 121 
115 11 143 78 396 102 433 303 327 616 244 508 321 
116 11 55 277 486 256 636 225 591 67 645 49 292 
117 11 41 39 247 280 387 367 466 531 488 526 70 
118 11 577 49 315 225 71 234 79 591 744 703 699 
119 11 481 224 235 79 72 602 560 499 50 612 33 
120 11 183 440 37 75 451 127 274 447 431 614 534 
121 11 496 587 629 590 545 759 502 378 138 461 284 
122 11 556 389 617 415 337 112 490 130 105 631 220 
123 11 229 212 363 670 726 547 324 346 16 81 599 
124 11 283 204 401 599 207 420 633 16 192 255 81 
125 11 477 99 542 685 620 581 635 137 594 709 186 
126 11 412 501 379 267 657 94 533 74 291 654 242 
127 11 440 75 614 120 183 280 387 466 431 783 451 
128 11 200 155 609 546 258 739 565 681 527 372 701 
129 11 269 585 737 18 392 554 441 271 607 780 24 
130 11 415 617 105 220 389 535 112 460 122 288 236 
131 11 410 357 162 686 476 275 109 365 584 44 101 
132 11 273 111 266 96 43 715 345 548 513 66 643 
133 11 647 151 742 684 297 681 700 305 20 416 83 
134 11 437 381 582 627 270 71 315 49 669 486 577 
135 11 480 731 506 30 332 442 203 322 170 589 663 
136 11 459 19 194 54 306 159 300 776 263 527 156 
137 11 635 35 542 152 594 125 679 783 477 544 99 
138 11 461 423 239 448 302 406 718 548 496 378 121 
139 11 299 520 732 768 237 667 453 251 352 222 746 
140 11 191 638 309 637 519 706 142 754 414 308 285 
141 11 451 261 34 399 534 674 431 717 37 120 783 
142 11 414 754 88 615 140 285 638 519 444 308 450 
143 11 115 303 78 616 396 102 433 244 321 181 508 
144 11 97 374 156 489 158 652 776 54 311 15 578 
145 11 772 48 744 366 104 498 625 767 699 421 179 
146 11 409 188 28 22 512 743 575 597 57 248 348 
147 11 735 640 626 31 263 194 641 19 300 543 666 
148 11 586 361 296 262 60 108 319 750 180 413 223 
149 11 405 8 773 411 226 252 84 17 471 741 113 
150 11 618 272 562 607 749 407 27 720 6 530 554 
151 11 297 742 700 647 83 218 289 639 133 677 228 
152 11 686 357 544 137 679 635 410 532 365 35 542 
153 11 557 408 404 249 159 306 156 546 54 372 200 
154 11 209 173 343 301 478 763 231 682 722 364 320 
155 11 690 344 527 200 128 300 546 609 459 543 263 
156 11 54 159 306 144 776 97 136 408 652 19 153 
157 11 260 443 573 716 485 493 634 268 693 101 643 
158 11 711 374 578 652 144 641 776 15 97 489 31 
159 11 306 54 156 459 136 408 527 19 546 153 776 
160 11 738 182 193 388 657 198 66 494 175 291 501 
161 11 11 288 320 26 730 682 460 220 402 535 364 
162 11 109 365 131 342 686 410 357 325 476 44 544 
163 11 61 468 425 330 339 604 598 189 765 492 613 
164 11 757 646 775 373 442 663 284 30 644 545 467 
165 11 664 74 267 98 32 337 556 307 490 122 379 
166 11 77 406 448 766 239 376 423 718 345 461 43 
167 11 630 452 530 314 6 749 689 391 36 576 562 
168 11 227 354 608 355 707 169 201 552 245 574 619 
169 11 574 707 758 552 312 227 221 354 510 579 710 
170 11 589 561 332 506 322 52 734 600 601 368 203 
171 11 454 505 352 251 453 665 310 667 7 237 309 
172 11 259 779 698 457 386 290 580 428 469 85 426 
173 11 209 301 478 154 231 343 763 682 364 563 178 
174 11 600 517 92 52 187 355 100 601 608 4 662 
175 11 197 14 642 193 214 198 738 388 745 160 182 
176 11 196 80 673 53 334 340 649 393 495 539 295 
177 11 729 498 382 366 48 651 179 628 708 104 145 
178 11 563 364 236 231 68 220 105 555 301 320 415 
179 11 651 498 671 767 177 729 382 48 366 145 628 
180 11 262 586 249 202 148 60 404 659 760 747 296 
181 11 417 611 438 676 303 65 616 195 398 446 569 
182 11 388 66 738 160 96 494 513 175 193 266 657 
183 11 120 440 37 127 274 447 75 466 387 451 280 
184 11 559 444 549 82 47 746 190 294 504 770 615 
185 11 697 16 420 402 346 333 460 730 26 535 212 
186 11 34 99 594 261 696 477 431 783 141 125 451 
187 11 517 174 355 411 608 92 226 4 405 600 8 
188 11 409 146 28 348 597 512 588 95 743 22 336 
189 11 339 650 287 492 61 621 750 276 163 51 375 
190 11 82 504 549 47 780 246 397 430 444 184 615 
191 11 637 309 706 140 638 519 171 142 754 505 308 
192 11 107 207 426 283 356 394 580 204 85 483 124 
193 11 198 175 160 738 214 751 197 654 182 94 388 
194 11 19 136 31 776 459 263 640 300 641 54 652 
195 11 446 569 313 721 201 350 181 417 449 538 769 
196 11 176 53 80 334 673 393 649 495 340 230 601 
197 11 14 642 175 745 214 338 558 265 193 713 241 
198 11 193 751 654 160 94 175 738 214 242 197 657 
199 11 380 228 639 202 760 83 289 305 456 659 524 
200 11 546 527 408 128 155 306 459 344 690 372 159 
201 11 721 350 446 195 769 313 354 569 317 449 538 
202 11 380 180 199 305 262 760 701 659 249 372 586 
203 11 322 368 509 734 506 731 736 135 561 250 332 
204 11 283 599 124 81 207 420 16 401 547 192 107 
205 11 525 661 70 56 376 9 536 526 752 623 41 
206 11 232 497 29 17 539 432 465 340 500 516 295 
207 11 192 107 283 204 124 356 401 426 581 394 81 
208 11 694 62 770 360 282 294 668 13 522 47 246 
209 11 173 301 478 154 343 231 763 682 364 563 178 
210 11 515 216 108 723 319 361 223 704 276 242 702 
211 11 395 46 390 91 110 464 593 359 428 386 290 
212 11 726 363 670 346 229 123 16 547 185 420 599 
213 11 341 465 500 516 470 422 764 90 724 215 29 
214 11 265 14 197 175 427 642 193 198 745 777 778 
215 11 369 422 782 416 254 371 724 677 516 551 218 
216 11 723 515 210 704 702 242 21 276 613 89 108 
217 11 100 662 695 353 596 355 600 174 608 552 510 
218 11 677 551 700 782 742 254 297 416 756 748 724 
219 11 64 514 221 462 510 40 710 73 329 758 552 
220 11 105 130 415 617 236 389 535 288 563 364 460 
221 11 510 758 552 707 169 219 574 710 227 462 579 
222 11 482 299 732 106 238 746 139 2 281 667 453 
223 11 319 108 361 210 427 515 747 751 148 242 654 
224 11 119 481 602 79 72 699 235 421 625 50 521 
225 11 49 591 315 55 118 486 71 577 116 744 277 
226 11 411 4 8 295 17 405 149 517 92 340 539 
227 11 168 354 707 169 552 574 758 608 355 312 510 
228 11 639 289 456 83 323 199 524 243 473 380 151 
229 11 123 363 212 670 726 324 547 346 16 11 26 
230 11 495 53 80 196 176 10 774 550 473 334 393 
231 11 301 478 173 178 364 209 563 343 68 236 154 
232 11 206 29 497 17 465 432 516 500 539 326 660 
233 11 42 531 568 564 362 488 336 39 597 692 9 
234 11 703 577 612 560 669 79 71 270 118 499 481 
235 11 119 72 481 50 499 224 560 602 612 79 33 
236 11 178 563 105 220 364 415 130 617 389 555 337 
237 11 768 520 665 139 310 667 453 7 251 454 732 
238 11 482 294 62 281 559 222 13 208 770 694 87 
239 11 448 406 423 461 138 77 166 718 302 548 43 
240 11 103 755 604 15 705 311 771 592 330 163 489 
241 11 298 683 338 713 250 558 358 753 570 736 745 
242 11 654 751 94 515 723 216 210 198 223 319 412 
243 11 323 473 456 524 289 774 228 550 756 10 639 
244 11 508 328 321 616 3 143 303 115 676 78 611 
245 11 293 619 688 252 113 773 449 595 538 405 458 
246 11 397 522 282 47 780 770 694 549 668 190 360 
247 11 367 488 39 692 117 576 531 387 466 42 362 
248 11 575 22 63 491 349 57 146 28 743 409 727 
249 11 557 180 60 262 404 586 153 413 51 148 296 
250 11 298 736 713 241 338 683 528 509 558 335 203 
251 11 453 667 352 454 732 746 139 237 520 171 299 
252 11 773 113 293 405 595 84 245 149 537 458 86 
253 11 370 95 348 439 564 418 568 188 597 588 409 
254 11 782 724 551 677 326 416 218 215 516 748 660 
255 11 633 728 401 532 109 342 365 709 544 518 679 
256 11 277 645 116 672 67 87 55 292 486 281 636 
257 11 429 632 678 655 725 691 45 740 436 467 703 
258 11 739 609 624 69 681 318 128 155 690 200 565 
259 11 698 469 580 85 457 172 687 394 316 426 479 
260 11 157 443 573 485 634 716 268 493 101 584 693 
261 11 431 783 34 141 594 451 186 75 614 120 440 
262 11 586 180 148 60 249 296 413 361 202 747 659 
263 11 300 640 344 735 194 543 136 459 690 19 527 
264 11 622 331 529 89 425 468 702 765 613 541 598 
265 11 214 427 777 14 778 197 745 642 175 747 659 
266 11 96 273 111 132 715 66 388 38 753 358 548 
267 11 74 379 126 165 412 501 291 657 567 32 664 
268 11 493 634 443 260 157 716 573 101 485 584 44 
269 11 585 737 392 129 18 554 441 271 780 607 511 
270 11 582 669 437 436 71 134 627 703 577 234 315 
271 11 503 23 511 607 441 463 737 269 585 606 18 
272 11 618 150 407 27 720 749 554 607 562 18 530 
273 11 111 132 266 96 715 548 43 345 66 38 388 
274 11 447 37 183 120 534 399 36 451 440 689 466 
275 11 584 101 131 476 410 357 623 376 485 536 661 
276 11 598 613 765 339 189 704 61 750 287 650 425 
277 11 256 116 645 55 486 292 672 67 636 591 658 
278 11 579 710 484 435 312 434 462 540 574 73 385 
279 11 719 59 33 58 521 602 384 50 72 762 421 
280 11 387 466 127 440 117 41 75 614 183 120 526 
281 11 482 87 672 645 238 106 13 294 222 256 658 
282 11 694 770 522 208 246 360 47 668 62 397 294 
283 11 204 124 207 599 401 192 107 81 420 16 356 
284 11 644 545 646 663 164 629 757 691 775 442 30 
285 11 308 754 88 519 638 142 450 414 140 615 430 
286 11 475 351 538 449 313 458 569 688 595 350 86 
287 11 650 189 492 750 339 621 51 375 61 413 276 
288 11 730 26 460 161 535 402 220 130 105 11 320 
289 11 228 639 456 83 323 243 473 524 700 151 297 
290 11 779 428 386 110 91 172 390 593 395 259 46 
291 11 494 657 379 74 501 267 412 126 160 493 268 
292 11 658 708 106 2 591 104 277 256 645 116 55 
293 11 245 688 619 113 252 595 449 458 538 773 475 
294 11 62 238 208 559 770 482 694 13 282 360 47 
295 11 340 539 673 4 226 17 176 334 80 196 411 
296 11 750 60 51 148 413 361 586 287 650 108 276 
297 11 700 151 742 218 677 647 83 289 551 416 639 
298 11 241 250 713 683 338 736 558 528 570 358 753 
299 11 139 732 520 768 222 667 453 251 2 237 352 
300 11 344 263 690 459 527 136 543 155 194 640 735 
301 11 173 209 478 231 154 343 682 364 563 763 178 
302 11 727 378 572 718 138 239 461 423 63 448 496 
303 11 616 143 181 321 676 611 438 417 115 3 78 
304 11 25 537 86 400 458 595 113 76 84 351 583 
305 11 380 565 202 701 372 83 199 647 639 151 133 
306 11 159 54 459 408 136 156 527 546 19 153 200 
307 11 424 98 490 631 664 518 556 122 112 165 342 
308 11 285 754 519 638 142 88 140 450 706 191 414 
309 11 637 191 706 140 171 638 505 519 454 142 754 
310 11 665 7 237 383 505 768 171 454 520 251 453 
311 11 489 755 15 375 604 97 621 240 103 492 144 
312 11 574 317 169 769 579 278 758 707 354 710 721 
313 11 569 446 195 350 538 449 286 201 475 351 721 
314 11 630 167 452 6 530 576 36 749 689 474 692 
315 11 49 71 577 118 225 437 134 582 486 55 270 
316 11 687 403 479 469 85 455 394 580 698 457 685 
317 11 769 312 721 354 201 574 169 65 195 417 579 
318 11 69 609 258 739 624 155 553 690 543 128 781 
319 11 108 223 361 210 515 148 216 723 296 427 751 
320 11 682 161 364 11 563 288 220 730 26 178 231 
321 11 3 616 508 303 244 676 328 611 438 143 181 
322 11 734 368 203 506 561 332 170 509 393 731 135 
323 11 243 456 473 524 289 228 550 639 774 83 571 
324 11 670 11 229 363 123 212 26 161 730 346 726 
325 11 44 342 476 162 664 634 98 109 584 131 268 
326 11 660 724 432 748 551 516 254 756 782 10 677 
327 11 433 102 396 76 78 286 400 115 351 475 143 
328 11 508 244 321 3 616 303 143 115 676 611 438 
329 11 40 712 73 603 462 653 419 762 64 219 58 
330 11 468 347 331 771 622 163 425 722 604 61 264 
331 11 622 347 330 771 468 722 264 425 163 763 541 
332 11 506 170 589 322 135 561 30 203 442 734 731 
333 11 697 518 185 420 631 112 402 16 424 460 535 
334 11 649 673 196 176 393 53 80 601 340 4 295 
335 11 528 571 558 736 713 550 250 509 745 298 338 
336 11 597 28 57 409 188 233 9 146 568 564 42 
337 11 556 32 122 389 617 415 490 555 105 165 112 
338 11 713 558 241 298 745 642 683 250 14 528 197 
339 11 189 61 650 492 287 163 621 276 598 425 750 
340 11 539 295 673 80 176 334 196 4 53 17 649 
341 11 213 465 500 516 470 764 422 90 232 724 29 
342 11 109 162 325 44 365 255 131 307 98 476 728 
343 11 478 763 209 154 173 301 231 722 541 622 331 
344 11 300 690 263 155 527 459 543 136 546 200 194 
345 11 43 548 132 643 693 766 273 715 406 111 423 
346 11 16 212 726 185 363 670 420 402 599 697 547 
347 11 331 622 330 771 722 468 264 163 425 705 763 
348 11 95 588 370 188 253 409 512 146 418 67 743 
349 11 636 743 22 67 512 248 575 146 491 381 486 
350 11 449 538 313 446 201 619 569 195 688 475 286 
351 11 475 286 458 538 595 86 449 688 313 537 619 
352 11 251 453 667 454 746 171 732 237 139 520 299 
353 11 596 45 467 725 429 662 217 100 510 695 775 
354 11 227 168 169 201 769 574 317 721 312 707 758 
355 11 608 168 187 174 217 227 100 600 245 662 517 
356 11 483 507 81 107 359 192 593 207 426 46 283 
357 11 410 686 131 152 623 162 365 109 536 275 56 
358 11 753 570 683 241 38 298 338 96 266 713 480 
359 11 507 483 464 81 356 46 593 547 395 211 110 
360 11 668 208 282 522 694 770 62 648 418 13 656 
361 11 108 319 148 296 223 210 586 750 515 276 60 
362 11 692 488 474 568 564 42 233 576 367 247 531 
363 11 670 212 346 726 229 123 324 16 26 185 547 
364 11 563 178 236 231 320 220 105 682 301 130 173 
365 11 109 162 686 544 532 728 357 679 342 131 410 
366 11 48 498 177 729 104 145 772 179 708 382 767 
367 11 247 692 488 576 39 117 362 387 466 36 474 
368 11 734 322 203 509 561 393 506 736 601 731 170 
369 11 215 416 371 782 422 254 20 677 218 684 551 
370 11 253 95 348 418 588 439 188 648 409 564 568 
371 11 369 20 215 684 422 416 782 254 677 742 218 
372 11 701 404 565 153 408 200 546 128 305 557 249 
373 11 775 757 164 695 442 646 589 30 467 332 663 
374 11 652 158 578 776 711 144 641 31 19 156 97 
375 11 621 492 650 287 51 189 311 413 489 339 604 
376 11 766 166 77 661 485 275 406 573 205 525 693 
377 11 487 419 385 712 762 540 434 73 329 435 484 
378 11 302 502 727 759 63 572 114 496 718 138 121 
379 11 501 126 412 267 657 291 74 494 94 165 533 
380 11 305 202 199 639 83 228 701 565 180 760 289 
381 11 134 627 437 582 491 486 71 270 349 636 315 
382 11 729 177 651 628 498 179 366 48 708 383 671 
383 11 768 665 310 7 628 237 520 382 139 651 299 
384 11 521 421 625 719 767 699 671 145 602 279 224 
385 11 540 434 487 419 435 484 377 712 73 278 579 
386 11 428 290 779 110 593 91 172 390 395 426 46 
387 11 466 280 127 183 440 117 36 247 367 120 75 
388 11 66 182 738 160 96 175 266 193 273 513 132 
389 11 617 415 122 130 112 105 556 220 535 337 490 
390 11 91 110 395 211 46 428 593 386 290 779 464 
391 11 689 452 530 714 167 720 749 407 27 630 314 
392 11 585 269 737 129 441 780 18 271 397 554 24 
393 11 649 601 334 196 53 734 176 673 368 52 561 
394 11 580 85 698 426 469 687 316 259 403 107 479 
395 11 211 91 110 46 390 593 464 428 386 290 359 
396 11 102 433 78 327 115 143 76 286 351 303 569 
397 11 246 780 522 441 282 656 47 190 694 770 668 
398 11 65 5 438 611 676 417 680 181 616 3 303 
399 11 534 674 37 451 717 141 447 274 120 183 261 
400 11 304 25 76 86 537 458 595 351 327 113 475 
401 11 124 633 255 283 204 709 728 207 599 620 420 
402 11 460 730 535 26 185 288 697 333 130 112 346 
403 11 316 479 687 455 685 469 85 581 394 580 445 
404 11 153 372 557 701 408 249 546 565 200 180 306 
405 11 149 8 773 411 226 252 187 84 245 17 293 
406 11 448 77 166 239 423 766 461 138 718 345 43 
407 11 27 720 272 714 618 391 150 749 530 689 452 
408 11 153 546 306 159 200 527 404 557 54 459 156 
409 11 188 146 28 597 512 22 348 57 743 336 588 
410 11 357 131 686 162 623 275 152 365 109 476 536 
411 11 226 8 405 149 4 187 295 517 17 92 773 
412 11 126 501 379 657 94 267 533 291 654 74 242 
413 11 51 60 750 296 287 650 375 621 492 586 249 
414 11 615 142 88 444 430 754 450 504 82 140 285 
415 11 617 389 130 105 220 122 112 535 556 236 460 
416 11 369 782 677 215 254 218 551 742 371 700 724 
417 11 181 438 611 65 676 398 195 5 303 616 446 
418 11 648 370 668 95 360 253 348 656 439 610 13 
419 11 487 377 712 385 73 434 540 329 435 484 762 
420 11 16 185 599 697 346 333 204 124 726 402 212 
421 11 625 699 521 384 224 744 772 145 602 719 767 
422 11 215 213 369 341 371 782 254 516 416 724 465 
423 11 461 138 239 448 406 548 43 77 166 718 345 
424 11 307 631 518 490 98 112 333 633 556 122 697 
425 11 598 765 468 163 61 613 264 330 339 276 702 
426 11 394 580 698 85 107 259 192 469 687 386 316 
427 11 265 747 659 214 223 760 319 778 777 108 361 
428 11 386 290 779 110 91 593 390 395 172 46 426 
429 11 725 45 257 655 467 632 740 353 596 678 691 
430 11 24 504 615 450 88 414 190 82 142 444 549 
431 11 783 261 614 75 594 451 141 127 440 34 120 
432 11 660 326 748 724 10 516 232 756 206 551 774 
433 11 102 396 78 327 115 286 76 143 351 475 569 
434 11 540 385 435 484 487 419 278 579 73 377 712 
435 11 484 434 540 278 385 579 710 73 419 712 462 
436 11 669 678 270 691 582 703 632 257 437 627 234 
437 11 134 582 270 71 627 381 669 315 49 577 436 
438 11 611 676 417 398 65 181 5 616 303 3 321 
439 11 93 610 675 253 648 606 370 418 463 564 474 
440 11 127 75 120 183 614 280 387 466 37 451 431 
441 11 511 271 397 23 780 737 503 656 392 585 269 
442 11 30 663 164 373 757 646 775 135 332 506 589 
443 11 260 157 634 268 493 573 716 485 101 584 693 
444 11 184 615 82 414 504 549 190 142 559 47 430 
445 11 523 455 479 457 316 403 687 696 469 685 99 
446 11 195 569 313 350 201 721 449 538 181 286 417 
447 11 274 37 183 120 534 399 451 36 440 689 466 
448 11 239 406 423 77 166 461 138 718 548 766 43 
449 11 538 350 619 688 475 313 286 351 569 293 446 
450 11 88 430 24 285 414 142 754 615 308 504 519 
451 11 141 37 120 534 399 261 431 75 440 183 783 
452 11 167 530 630 314 689 749 391 6 36 576 562 
453 11 251 667 352 454 732 746 139 237 520 299 171 
454 11 171 352 251 453 667 237 665 310 746 505 732 
455 11 479 445 316 403 687 469 457 523 685 85 259 
456 11 323 243 524 289 473 228 639 83 550 571 774 
457 11 259 469 479 687 455 316 698 85 445 523 172 
458 11 595 86 537 113 351 475 688 304 286 538 293 
459 11 136 306 527 159 54 300 194 344 19 546 263 
460 11 535 402 730 288 26 130 112 415 617 697 185 
461 11 138 423 239 448 406 548 302 718 496 43 77 
462 11 73 329 710 712 40 219 484 64 579 278 435 
463 11 503 23 606 511 610 675 271 93 562 607 656 
464 11 359 46 211 395 507 593 483 110 91 356 390 
465 11 500 341 213 764 470 29 232 516 90 472 206 
466 11 387 280 183 127 440 36 367 117 120 247 75 
467 11 725 45 353 429 775 596 757 373 257 646 164 
468 11 330 163 425 331 347 622 61 264 598 771 765 
469 11 687 85 316 698 259 479 580 394 457 403 455 
470 11 90 764 500 465 472 341 733 213 605 741 471 
471 11 741 472 12 733 764 605 761 84 90 470 583 
472 11 741 471 764 733 90 470 12 500 605 29 465 
473 11 243 323 524 456 550 289 774 228 571 10 756 
474 11 362 93 692 576 675 488 6 314 606 367 630 
475 11 351 286 538 458 449 688 595 86 313 350 619 
476 11 584 101 131 44 275 634 325 162 260 410 443 
477 11 99 125 685 186 594 403 581 620 542 635 137 
478 11 173 209 301 343 231 154 763 178 364 541 563 
479 11 455 316 687 403 469 457 445 85 259 698 580 
480 11 731 135 570 30 506 683 38 203 332 358 250 
481 11 79 119 560 224 235 612 499 72 234 602 703 
482 11 238 281 222 294 106 13 62 559 87 672 208 
483 11 507 356 81 359 593 107 46 547 464 192 207 
484 11 435 278 434 579 540 710 385 73 462 712 419 
485 11 573 260 157 443 693 716 101 584 643 634 766 
486 11 55 116 49 225 277 636 315 381 134 256 71 
487 11 377 419 385 540 434 712 435 484 73 762 329 
488 11 692 247 367 362 42 576 39 531 474 233 117 
489 11 311 15 97 755 375 144 621 604 492 240 103 
490 11 631 556 122 307 424 112 389 98 337 518 617 
491 11 63 114 248 381 575 627 22 349 502 759 134 
492 11 621 650 189 287 339 375 61 51 750 604 163 
493 11 268 443 157 716 260 634 573 513 485 643 494 
494 11 291 657 513 493 160 182 268 379 738 501 66 
495 11 230 53 80 196 176 10 334 393 673 774 340 
496 11 121 587 629 590 759 502 378 138 461 545 302 
497 11 206 29 17 232 539 465 500 295 340 472 764 
498 11 177 729 366 48 179 382 651 145 767 104 708 
499 11 612 560 740 481 235 119 234 632 79 703 514 
500 11 465 764 470 341 29 213 472 90 232 497 516 
501 11 412 126 379 657 291 94 267 74 654 160 494 
502 11 759 114 378 629 121 496 63 491 302 545 627 
503 11 23 463 271 511 607 606 610 441 562 656 675 
504 11 190 82 549 430 615 444 47 780 414 24 184 
505 11 171 7 310 665 454 309 637 237 191 352 706 
506 11 332 322 135 203 170 731 561 734 589 368 480 
507 11 483 356 81 359 593 547 464 46 107 192 204 
508 11 328 244 321 3 616 303 143 676 115 611 438 
509 11 736 368 203 250 734 322 335 528 298 731 393 
510 11 221 552 707 758 169 596 219 574 353 227 217 
511 11 23 503 271 463 441 656 610 606 607 648 397 
512 11 743 67 588 636 146 349 188 409 22 348 95 
513 11 643 716 493 494 693 66 132 157 182 268 443 
514 11 64 219 740 655 499 40 235 612 560 632 603 
515 11 723 216 210 242 108 704 319 751 654 223 702 
516 11 724 326 341 254 213 432 465 232 660 782 551 
517 11 92 4 174 52 187 601 600 649 226 411 334 
518 11 333 424 631 697 633 490 112 307 420 185 122 
519 11 638 308 754 140 285 706 191 142 637 309 88 
520 11 139 768 237 299 732 667 453 251 628 665 352 
521 11 384 421 719 625 602 699 224 279 767 72 33 
522 11 282 246 668 360 694 397 770 656 208 47 648 
523 11 445 455 457 479 696 687 316 469 403 259 186 
524 11 473 323 456 243 550 571 289 228 639 774 83 
525 11 205 661 70 9 376 56 41 77 526 536 166 
526 11 752 56 536 41 623 117 280 205 70 39 661 
527 11 546 200 459 344 306 155 300 408 159 690 136 
528 11 335 558 713 736 250 338 298 745 571 509 241 
529 11 89 702 21 264 541 566 704 613 533 765 598 
530 11 452 167 630 749 314 689 6 391 562 36 150 
531 11 42 233 39 488 247 70 362 117 568 692 367 
532 11 544 679 728 709 365 542 109 152 686 255 162 
533 11 566 21 567 529 89 126 412 723 94 216 702 
534 11 399 674 37 451 141 717 447 274 120 183 261 
535 11 460 130 402 288 730 415 617 112 105 220 389 
536 11 56 623 752 526 357 410 152 275 41 205 661 
537 11 86 304 458 595 113 25 400 252 351 84 475 
538 11 449 475 350 688 286 619 351 313 569 458 595 
539 11 340 295 673 80 17 176 206 497 196 334 4 
540 11 434 385 435 484 487 419 278 377 579 712 73 
541 11 264 529 622 89 763 68 331 347 478 566 722 
542 11 679 709 125 137 532 635 544 620 152 728 35 
543 11 553 781 690 263 344 300 640 735 155 626 666 
544 11 532 679 728 365 709 542 152 109 686 162 137 
545 11 284 629 644 663 121 646 587 590 496 164 442 
546 11 200 527 408 306 459 159 155 128 344 153 54 
547 11 726 81 212 599 123 346 16 204 229 363 507 
548 11 43 345 715 423 132 111 461 273 138 448 406 
549 11 82 190 47 504 184 246 559 770 444 282 780 
550 11 571 524 473 323 243 456 335 230 528 495 774 
551 11 677 218 254 748 782 724 326 756 660 416 700 
552 11 707 510 758 221 169 227 574 354 596 168 217 
553 11 781 543 690 666 318 344 263 300 626 155 640 
554 11 18 129 737 607 269 585 618 272 150 271 392 
555 11 567 32 68 236 337 178 566 563 105 556 122 
556 11 122 337 490 389 112 617 415 631 32 307 130 
557 11 153 249 404 408 156 159 306 54 97 372 413 
558 11 713 338 745 528 642 241 298 14 250 335 197 
559 11 184 294 62 238 770 47 549 694 208 282 482 
560 11 612 499 481 234 79 703 119 235 740 632 224 
561 11 170 734 322 52 601 332 506 368 589 393 203 
562 11 606 6 749 150 463 607 675 618 503 23 93 
563 11 364 178 236 231 220 105 320 130 682 301 415 
564 11 568 362 233 42 253 439 474 488 597 531 336 
565 11 701 372 305 128 404 681 200 380 546 202 408 
566 11 533 21 567 529 89 68 555 702 541 126 723 
567 11 555 566 32 68 533 21 267 337 126 529 165 
568 11 564 233 362 42 253 531 488 597 336 474 692 
569 11 313 446 195 350 538 286 449 201 475 721 181 
570 11 358 753 683 38 241 480 298 731 338 250 713 
571 11 550 524 335 778 473 528 777 323 456 243 228 
572 11 727 302 718 378 57 63 575 248 239 138 448 
573 11 485 260 157 443 716 101 693 584 634 643 493 
574 11 169 758 707 312 552 227 354 221 579 710 317 
575 11 248 22 63 57 28 146 491 349 409 743 727 
576 11 692 367 314 474 488 247 630 36 362 6 167 
577 11 118 71 315 49 234 703 669 270 225 582 437 
578 11 374 711 158 641 652 31 776 144 19 194 156 
579 11 278 710 484 435 312 574 462 169 434 758 73 
580 11 394 698 85 426 469 259 687 316 479 403 457 
581 11 620 685 403 125 709 477 316 542 99 207 192 
582 11 270 437 134 669 71 627 436 381 315 577 49 
583 11 761 12 84 733 605 25 741 471 304 472 537 
584 11 101 476 634 260 573 443 485 157 275 268 44 
585 11 269 392 737 129 18 441 554 780 271 607 397 
586 11 262 148 60 180 296 249 361 413 51 750 108 
587 11 121 496 590 629 545 138 461 715 663 423 759 
588 11 348 95 512 67 188 370 743 409 146 87 672 
589 11 170 332 695 561 373 506 600 322 442 52 775 
590 11 587 121 496 629 545 38 663 30 715 284 442 
591 11 225 55 104 292 744 116 49 118 486 772 277 
592 11 15 103 755 240 311 711 158 705 489 604 374 
593 11 46 110 395 91 386 428 356 483 390 211 507 
594 11 783 261 431 186 35 635 34 99 137 477 614 
595 11 458 86 113 537 688 351 475 304 293 252 286 
596 11 353 45 725 467 510 429 217 662 100 552 655 
597 11 336 28 57 409 188 146 568 564 233 253 348 
598 11 765 613 425 61 276 704 702 163 339 468 189 
599 11 204 16 420 124 283 547 726 346 81 185 212 
600 11 174 52 517 92 170 589 561 100 662 601 695 
601 11 649 52 393 334 92 561 734 517 673 4 196 
602 11 72 33 50 224 719 119 235 58 521 421 481 
603 11 653 40 329 58 762 712 50 73 33 64 462 
604 11 163 240 61 621 492 755 339 311 330 103 468 
605 11 733 761 12 90 741 471 472 764 470 583 84 
606 11 675 463 93 562 503 23 6 610 474 439 511 
607 11 271 150 503 23 618 562 554 463 18 511 737 
608 11 355 168 187 227 174 245 217 354 100 600 662 
609 11 258 739 69 624 318 128 681 155 690 200 344 
610 11 648 656 463 511 439 23 503 675 93 606 418 
611 11 438 676 417 181 398 65 5 616 303 321 3 
612 11 560 499 234 481 703 740 79 632 235 119 655 
613 11 765 598 704 425 702 276 61 264 163 339 468 
614 11 75 783 127 431 440 35 120 261 280 594 451 
615 11 414 444 142 430 88 504 82 190 450 754 549 
616 11 303 321 676 3 611 438 143 181 508 244 417 
617 11 415 389 130 105 122 112 220 535 556 337 460 
618 11 150 272 607 749 562 407 27 554 720 18 530 
619 11 688 449 293 538 350 245 475 595 351 458 286 
620 11 581 709 125 685 542 477 403 679 99 532 207 
621 11 492 375 650 287 189 339 51 604 61 750 311 
622 11 331 347 330 264 722 468 771 425 541 763 163 
623 11 536 56 752 526 357 410 275 686 152 131 661 
624 11 739 258 609 69 681 318 128 155 690 565 133 
625 11 699 421 744 772 145 521 384 224 79 119 602 
626 11 735 147 640 666 781 543 263 553 300 194 31 
627 11 134 381 437 582 270 491 669 114 71 436 315 
628 11 382 729 177 768 383 520 651 498 139 708 299 
629 11 545 121 496 587 284 644 759 502 590 663 114 
630 11 167 314 452 6 530 749 576 689 36 391 562 
631 11 490 424 112 518 307 122 333 556 389 697 617 
632 11 740 257 655 703 429 612 678 499 436 560 234 
633 11 255 518 401 424 333 124 631 728 307 697 420 
634 11 268 443 260 157 493 101 584 573 485 716 476 
635 11 137 35 594 542 125 152 783 477 614 679 99 
636 11 349 743 67 512 22 486 116 381 55 277 256 
637 11 309 191 706 140 638 171 505 519 454 142 754 
638 11 519 140 754 308 191 706 285 142 637 309 88 
639 11 228 83 289 456 199 323 151 243 380 524 297 
640 11 735 263 147 626 194 300 31 19 543 136 344 
641 11 31 578 652 776 374 19 194 158 711 136 147 
642 11 14 197 745 338 558 175 713 214 241 265 777 
643 11 693 716 513 157 485 345 573 260 43 443 493 
644 11 284 545 646 629 663 691 164 757 678 775 121 
645 11 256 672 87 277 281 106 658 116 292 67 482 
646 11 164 757 775 284 663 644 442 373 545 30 467 
647 11 133 151 742 297 700 83 305 218 416 677 639 
648 11 656 418 668 610 360 522 439 511 370 282 208 
649 11 334 601 393 673 196 176 4 52 53 92 80 
650 11 287 189 492 339 621 750 51 375 61 276 413 
651 11 179 382 177 729 498 671 628 767 48 366 383 
652 11 776 374 641 578 19 31 158 144 194 156 54 
653 11 603 40 58 50 329 33 762 72 712 235 64 
654 11 751 242 94 198 515 723 216 412 193 210 223 
655 11 740 429 632 257 45 725 514 499 612 560 678 
656 11 648 511 610 522 668 397 441 360 246 23 503 
657 11 501 291 379 412 494 126 160 738 267 74 94 
658 11 292 106 2 708 645 281 104 277 256 222 591 
659 11 747 760 427 262 148 223 199 778 180 265 586 
660 11 326 748 432 724 756 10 551 774 516 254 218 
661 11 205 525 70 376 56 275 536 623 9 752 526 
662 11 100 217 695 353 600 596 373 589 174 467 775 
663 11 442 30 164 646 284 545 757 644 590 775 629 
664 11 98 165 307 74 325 44 490 267 556 424 337 
665 11 310 7 237 768 383 454 171 505 520 251 453 
666 11 781 626 553 543 735 640 147 263 300 690 344 
667 11 453 251 352 732 454 746 139 237 520 299 768 
668 11 360 522 648 282 208 694 656 418 770 246 62 
669 11 270 582 436 703 234 71 437 577 134 627 315 
670 11 363 212 346 726 229 123 324 26 16 185 11 
671 11 767 179 651 498 48 145 177 366 384 729 382 
672 11 87 645 281 256 13 277 588 67 482 106 238 
673 11 334 176 340 196 295 80 649 539 4 53 393 
674 11 717 399 534 141 451 37 34 447 274 261 120 
675 11 93 606 463 474 439 562 610 6 503 23 511 
676 11 611 438 398 417 181 65 616 5 303 321 3 
677 11 218 551 782 416 254 700 742 297 748 756 724 
678 11 691 436 257 632 669 270 429 703 644 582 655 
679 11 532 544 709 542 728 365 152 137 109 686 620 
680 11 5 398 65 438 611 676 417 3 181 540 434 
681 11 739 258 624 609 128 565 133 69 701 647 318 
682 11 320 161 364 301 11 563 173 231 209 288 178 
683 11 241 298 358 570 753 338 250 713 558 731 736 
684 11 20 371 369 133 416 647 215 742 782 681 422 
685 11 477 403 581 99 125 620 316 455 479 687 445 
686 11 357 410 365 131 162 152 109 544 532 623 679 
687 11 469 316 85 479 403 698 455 580 259 394 457 
688 11 619 293 449 538 595 475 458 351 113 245 350 
689 11 391 452 530 167 630 714 36 314 749 274 447 
690 11 344 155 300 543 527 263 553 200 459 546 128 
691 11 678 436 257 644 632 284 669 270 429 582 646 
692 11 488 367 576 362 247 474 42 39 314 531 233 
693 11 643 716 485 573 157 766 260 345 443 43 513 
694 11 770 282 208 62 360 522 47 668 294 246 559 
695 11 662 373 100 589 775 217 757 600 467 170 164 
696 11 34 186 141 261 445 523 717 99 674 594 477 
697 11 333 185 402 420 518 460 16 112 535 631 346 
698 11 580 259 85 469 394 687 426 316 457 172 479 
699 11 625 421 744 224 772 145 79 521 384 119 118 
700 11 297 742 151 218 677 551 83 756 647 289 416 
701 11 372 565 404 305 128 200 153 202 380 408 546 
702 11 704 613 89 765 598 529 216 264 425 276 723 
703 11 234 669 612 270 560 577 436 632 71 582 499 
704 11 702 613 765 598 216 276 89 723 425 529 515 
705 11 771 722 103 240 347 330 331 622 468 604 755 
706 11 191 637 309 140 638 519 754 505 171 308 142 
707 11 758 169 552 574 221 510 227 312 354 710 579 
708 11 2 658 177 729 292 366 104 498 48 106 382 
709 11 679 532 728 542 544 620 581 125 401 255 365 
710 11 579 278 484 462 435 73 574 312 758 169 221 
711 11 158 578 374 652 641 144 776 592 15 31 489 
712 11 73 329 419 462 40 487 603 377 484 385 762 
713 11 338 558 298 241 250 528 745 683 736 335 642 
714 11 391 720 27 407 689 530 452 749 167 447 274 
715 11 111 273 548 132 266 43 96 345 38 423 461 
716 11 157 643 693 260 443 573 493 485 513 268 634 
717 11 674 399 534 141 451 34 696 37 261 447 274 
718 11 572 302 727 239 448 138 406 77 461 378 423 
719 11 279 521 602 384 59 33 72 58 50 421 224 
720 11 27 407 714 272 391 618 749 150 689 530 452 
721 11 201 769 317 446 195 350 354 313 569 417 312 
722 11 771 347 331 622 705 330 763 468 264 343 103 
723 11 216 515 210 242 704 702 21 654 751 94 89 
724 11 326 254 516 551 660 782 748 432 677 218 756 
725 11 45 429 467 353 596 257 655 632 775 740 757 
726 11 212 346 547 363 670 16 123 229 599 420 185 
727 11 572 302 718 378 63 57 575 248 239 138 461 
728 11 532 544 679 709 365 255 109 542 162 401 686 
729 11 177 498 382 366 651 48 179 628 708 104 145 
730 11 26 288 402 460 535 161 11 130 220 185 105 
731 11 480 135 203 506 250 322 570 683 298 736 332 
732 11 139 299 667 520 453 251 352 222 746 237 768 
733 11 605 12 761 741 471 472 90 764 470 583 84 
734 11 322 368 561 203 393 601 509 506 170 52 649 
735 11 640 147 263 626 194 300 31 543 19 136 344 
736 11 250 509 298 528 713 335 203 241 368 558 338 
737 11 269 585 392 129 18 441 554 271 607 780 23 
738 11 160 182 388 66 193 175 198 657 494 197 96 
739 11 258 609 624 69 681 318 128 155 690 200 565 
740 11 655 632 499 612 514 560 257 429 703 45 234 
741 11 471 472 12 733 605 764 761 90 84 470 583 
742 11 297 700 151 218 647 677 416 551 133 782 83 
743 11 512 67 349 636 22 146 409 588 188 575 248 
744 11 772 145 699 625 104 421 591 48 366 118 225 
745 11 558 642 14 338 197 713 777 528 241 265 778 
746 11 251 352 453 667 732 222 454 184 139 299 559 
747 11 659 760 427 223 148 262 319 265 361 586 108 
748 11 660 326 756 432 551 10 724 774 218 677 254 
749 11 530 167 6 452 562 630 150 314 618 391 689 
750 11 287 51 296 650 189 413 60 492 276 339 621 
751 11 654 242 94 198 515 723 223 193 210 319 216 
752 11 526 56 536 623 41 117 280 205 70 661 152 
753 11 358 570 683 241 38 298 338 96 266 713 480 
754 11 285 142 308 519 638 88 140 414 450 615 191 
755 11 15 311 240 489 103 604 592 375 621 97 492 
756 11 748 774 10 660 551 218 326 677 432 243 700 
757 11 775 164 646 373 442 663 467 284 695 30 644 
758 11 707 169 574 552 221 510 227 312 710 579 354 
759 11 502 114 378 629 121 496 63 491 302 545 587 
760 11 659 747 199 427 202 778 180 262 777 380 586 
761 11 12 605 733 583 741 471 90 472 84 764 470 
762 11 603 653 58 329 377 712 59 419 40 33 487 
763 11 343 722 478 541 622 331 347 209 173 154 771 
764 11 470 472 500 90 465 741 471 733 605 29 12 
765 11 598 613 425 704 702 276 61 163 339 264 468 
766 11 166 376 693 77 406 485 345 643 573 43 448 
767 11 671 179 48 498 145 651 366 384 772 177 729 
768 11 520 237 139 299 665 383 628 732 310 667 7 
769 11 317 721 201 312 354 195 446 574 417 65 169 
770 11 694 282 208 62 47 522 294 360 246 559 668 
771 11 347 722 330 331 705 622 468 103 163 240 604 
772 11 145 744 104 48 366 625 699 421 498 767 591 
773 11 252 149 405 84 113 8 293 245 537 595 411 
774 11 10 756 748 243 473 660 323 230 432 326 456 
775 11 757 373 164 646 467 695 442 663 284 30 589 
776 11 652 19 374 31 194 641 54 136 156 578 144 
777 11 778 265 745 571 14 558 214 528 642 335 427 
778 11 777 265 571 745 427 14 214 760 335 659 528 
779 11 290 428 386 172 110 91 259 390 593 698 426 
780 11 397 246 190 441 392 47 549 504 522 585 82 
781 11 553 666 543 626 690 263 735 640 300 344 318 
782 11 254 416 551 677 215 218 724 369 326 516 422 
783 11 431 614 261 594 75 35 127 451 440 141 34 
DEPOT_SECTION
   1
   -1
EOF
