NAME :  X-n733-kX-w146-c11.cctp
COMMENT : 	Adapted by Maziero, Usberti and Cavellucci from the Uchoa, Pecin, Pessoa, Poggi, Subramanian, and Vidal (2013)
TYPE :  CCTP
DIMENSION :    683
EDGE_WEIGHT_TYPE : 	EUC_2D	
CAPACITY : 	25
VERTICES_WITHIN_COVERAGE :  11
VERTICES_WITH_DEMAND : 	146
NODE_COORD_SECTION
1 500 500
2 143 12
3 206 907
4 895 855
5 640 970
6 865 716
7 993 356
8 618 966
9 963 539
10 50 979
11 241 998
12 32 206
13 288 926
14 299 507
15 336 180
16 589 726
17 665 488
18 36 521
19 112 895
20 814 442
21 843 474
22 17 258
23 360 273
24 814 537
25 775 524
26 825 471
27 321 87
28 773 958
29 119 166
30 368 928
31 193 250
32 452 919
33 736 322
34 386 911
35 624 313
36 694 398
37 186 803
38 948 721
39 216 973
40 915 641
41 238 810
42 946 172
43 23 561
44 613 657
45 359 434
46 604 96
47 56 554
48 862 723
49 222 161
50 974 838
51 775 67
52 815 880
53 204 362
54 435 760
55 593 358
56 203 435
57 882 803
58 194 739
59 380 323
60 836 461
61 537 136
62 789 669
63 956 1000
64 98 295
65 656 410
66 580 959
67 594 64
68 459 43
69 425 559
70 262 31
71 522 339
72 960 74
73 237 910
74 353 828
75 420 281
76 721 524
77 185 679
78 703 303
79 923 491
80 444 792
81 567 476
82 987 930
83 113 210
84 907 45
85 383 799
86 209 192
87 34 820
88 464 717
89 837 536
90 202 94
91 177 341
92 551 3
93 835 467
94 128 655
95 988 937
96 179 369
97 487 765
98 975 406
99 365 411
100 440 41
101 607 487
102 57 898
103 161 707
104 0 517
105 210 88
106 524 195
107 682 409
108 608 55
109 16 909
110 846 379
111 183 242
112 586 182
113 948 682
114 324 44
115 380 573
116 339 188
117 629 32
118 589 805
119 934 907
120 848 633
121 890 973
122 98 787
123 964 391
124 171 837
125 261 409
126 637 133
127 541 313
128 946 388
129 479 636
130 818 503
131 188 602
132 887 643
133 981 839
134 585 570
135 383 325
136 288 219
137 407 596
138 707 525
139 56 193
140 523 502
141 102 374
142 282 573
143 90 56
144 538 143
145 614 30
146 237 435
147 823 405
148 363 560
149 192 314
150 826 849
151 604 432
152 292 364
153 131 65
154 990 723
155 944 209
156 68 210
157 564 354
158 865 378
159 646 604
160 362 499
161 313 888
162 49 95
163 797 864
164 93 297
165 439 445
166 74 429
167 76 683
168 152 66
169 796 886
170 716 113
171 693 324
172 263 134
173 893 184
174 549 927
175 817 770
176 976 350
177 692 957
178 227 408
179 323 894
180 169 573
181 106 959
182 982 365
183 292 960
184 552 181
185 505 588
186 119 372
187 506 122
188 160 569
189 208 381
190 530 266
191 947 928
192 857 644
193 990 518
194 178 652
195 305 811
196 834 331
197 577 316
198 607 398
199 471 599
200 111 69
201 149 735
202 437 140
203 38 10
204 841 876
205 870 781
206 806 151
207 789 38
208 238 478
209 182 984
210 272 20
211 880 423
212 231 683
213 142 8
214 611 385
215 760 234
216 950 575
217 823 394
218 676 27
219 823 573
220 850 625
221 923 848
222 552 189
223 468 743
224 522 560
225 756 931
226 55 920
227 47 187
228 136 376
229 838 595
230 833 785
231 367 992
232 938 833
233 856 363
234 184 380
235 751 956
236 831 424
237 927 752
238 711 219
239 479 537
240 288 947
241 175 63
242 111 514
243 603 634
244 90 763
245 557 925
246 3 914
247 682 68
248 269 277
249 360 979
250 958 203
251 854 930
252 59 285
253 697 384
254 999 813
255 332 70
256 399 474
257 8 315
258 102 310
259 913 612
260 429 919
261 567 461
262 465 439
263 995 588
264 969 530
265 173 949
266 440 702
267 141 839
268 641 740
269 361 430
270 365 318
271 621 920
272 337 330
273 50 481
274 347 468
275 387 470
276 642 51
277 486 875
278 568 101
279 95 19
280 463 673
281 864 522
282 792 430
283 607 489
284 541 477
285 830 978
286 859 434
287 485 690
288 944 765
289 990 934
290 186 358
291 494 823
292 563 350
293 396 727
294 272 211
295 104 980
296 625 64
297 58 830
298 190 270
299 989 645
300 179 252
301 437 360
302 93 576
303 521 190
304 607 277
305 949 574
306 713 437
307 282 382
308 113 15
309 459 368
310 858 925
311 235 360
312 916 377
313 817 710
314 213 486
315 350 900
316 262 829
317 109 521
318 960 308
319 207 862
320 282 555
321 970 106
322 75 217
323 88 275
324 249 910
325 622 92
326 794 539
327 190 261
328 912 562
329 239 9
330 232 154
331 53 42
332 951 789
333 26 748
334 222 65
335 170 643
336 889 86
337 986 224
338 473 21
339 937 197
340 332 363
341 399 590
342 983 139
343 757 833
344 225 375
345 44 366
346 344 764
347 882 90
348 720 250
349 570 238
350 514 534
351 868 870
352 291 431
353 871 381
354 71 526
355 24 626
356 464 212
357 617 137
358 869 818
359 219 453
360 871 952
361 647 941
362 354 911
363 787 715
364 703 108
365 715 611
366 217 201
367 778 655
368 636 539
369 231 139
370 896 875
371 149 310
372 490 146
373 30 507
374 629 789
375 170 132
376 862 16
377 965 567
378 358 377
379 585 856
380 296 401
381 247 913
382 247 435
383 728 971
384 821 717
385 127 290
386 552 702
387 889 108
388 59 842
389 354 427
390 811 541
391 646 634
392 200 595
393 65 882
394 190 682
395 892 397
396 911 972
397 924 847
398 175 582
399 120 413
400 251 281
401 496 123
402 868 438
403 252 427
404 489 227
405 176 25
406 824 82
407 281 949
408 594 400
409 551 492
410 587 545
411 10 280
412 412 385
413 747 872
414 118 205
415 397 649
416 240 664
417 48 117
418 677 390
419 13 41
420 698 192
421 253 630
422 263 759
423 19 187
424 266 971
425 976 790
426 298 612
427 87 602
428 670 316
429 761 466
430 672 776
431 237 724
432 91 189
433 229 296
434 980 970
435 817 9
436 663 691
437 581 178
438 16 299
439 1 430
440 972 560
441 93 782
442 298 972
443 556 678
444 624 36
445 488 752
446 37 137
447 409 568
448 104 641
449 32 545
450 881 445
451 477 892
452 48 558
453 528 812
454 316 928
455 158 954
456 46 518
457 288 114
458 160 636
459 267 514
460 829 404
461 59 134
462 223 704
463 956 308
464 368 523
465 987 3
466 170 703
467 938 925
468 742 338
469 859 58
470 116 155
471 456 252
472 451 777
473 973 57
474 225 138
475 85 372
476 567 505
477 64 454
478 518 310
479 917 341
480 776 30
481 529 433
482 955 382
483 62 317
484 102 781
485 584 849
486 471 40
487 966 476
488 524 326
489 20 822
490 209 361
491 896 507
492 470 876
493 711 235
494 13 312
495 450 114
496 324 779
497 104 241
498 57 522
499 923 27
500 712 427
501 470 964
502 54 752
503 693 963
504 311 479
505 271 194
506 964 724
507 176 808
508 384 936
509 371 981
510 846 857
511 945 504
512 791 719
513 509 607
514 95 639
515 751 372
516 75 958
517 270 637
518 62 898
519 994 91
520 80 955
521 744 327
522 162 587
523 458 595
524 372 168
525 330 379
526 66 190
527 197 229
528 413 716
529 184 835
530 151 81
531 591 356
532 616 852
533 35 1
534 996 23
535 845 854
536 850 475
537 693 951
538 880 672
539 495 614
540 936 622
541 544 21
542 289 72
543 906 45
544 146 971
545 54 319
546 412 160
547 769 573
548 709 340
549 268 211
550 640 263
551 604 137
552 305 190
553 305 835
554 66 597
555 566 121
556 867 589
557 990 771
558 413 711
559 580 374
560 729 641
561 409 283
562 67 679
563 386 329
564 249 424
565 528 22
566 55 599
567 476 8
568 255 769
569 537 489
570 296 575
571 578 236
572 503 884
573 489 958
574 267 330
575 677 724
576 262 795
577 191 708
578 978 896
579 394 834
580 645 6
581 976 593
582 106 659
583 156 888
584 962 119
585 955 217
586 674 251
587 615 425
588 733 282
589 151 182
590 613 431
591 586 480
592 160 725
593 154 682
594 90 574
595 935 608
596 760 475
597 749 859
598 177 967
599 297 396
600 269 829
601 550 370
602 397 539
603 389 199
604 498 893
605 226 358
606 504 637
607 966 481
608 364 615
609 597 134
610 12 93
611 139 824
612 246 744
613 391 718
614 192 857
615 70 999
616 945 599
617 91 436
618 375 330
619 90 117
620 295 420
621 140 382
622 390 352
623 945 422
624 160 621
625 645 42
626 379 971
627 829 47
628 951 753
629 250 732
630 350 340
631 4 293
632 17 762
633 710 511
634 610 493
635 242 988
636 214 834
637 13 547
638 164 342
639 659 346
640 809 539
641 930 196
642 974 862
643 11 303
644 643 667
645 409 926
646 584 675
647 137 732
648 442 514
649 626 494
650 719 243
651 14 859
652 790 425
653 160 720
654 679 76
655 501 66
656 789 555
657 893 652
658 995 293
659 855 486
660 586 489
661 604 475
662 153 435
663 76 380
664 728 97
665 186 15
666 175 942
667 232 991
668 408 267
669 798 568
670 104 139
671 540 509
672 27 383
673 818 141
674 611 568
675 540 277
676 544 996
677 829 952
678 146 558
679 276 452
680 370 965
681 72 268
682 555 758
683 898 424
DEMAND_SECTION
2 5
3 3
4 1
5 1
6 5
7 9
8 9
9 3
10 2
11 3
12 4
13 1
14 2
15 4
16 1
17 10
18 9
19 3
20 3
21 3
22 2
23 3
24 1
25 1
26 4
27 5
28 8
29 4
30 7
31 5
32 10
33 3
34 5
35 1
36 10
37 5
38 2
39 1
40 4
41 5
42 4
43 10
44 6
45 4
46 8
47 3
48 6
49 1
50 2
51 2
52 2
53 1
54 7
55 6
56 5
57 4
58 5
59 2
60 3
61 5
62 1
63 5
64 3
65 3
66 10
67 10
68 1
69 5
70 2
71 6
72 3
73 9
74 6
75 9
76 7
77 2
78 9
79 7
80 8
81 3
82 3
83 5
84 10
85 6
86 4
87 9
88 1
89 2
90 6
91 10
92 8
93 6
94 4
95 1
96 8
97 3
98 8
99 7
100 6
101 4
102 1
103 8
104 3
105 9
106 8
107 7
108 10
109 8
110 2
111 10
112 5
113 2
114 4
115 1
116 9
117 1
118 6
119 6
120 8
121 9
122 8
123 7
124 6
125 1
126 10
127 10
128 1
129 9
130 2
131 3
132 10
133 2
134 3
135 1
136 3
137 3
138 2
139 5
140 7
141 2
142 1
143 7
144 4
145 6
146 5
147 1
COVERAGE_SECTION
2 11 213 308 405 665 279 153 168 241 200 143 530 
3 11 73 381 324 319 666 614 265 583 39 455 598 
4 11 370 221 397 351 358 232 510 535 57 204 119 
5 9 8 361 271 503 177 537 66 383 245 
6 11 48 384 538 313 205 657 175 192 237 512 132 
7 11 182 176 123 482 98 128 318 463 658 479 312 
8 10 5 361 66 271 245 177 503 537 174 676 
9 11 264 440 377 193 216 305 511 328 581 607 263 
10 10 615 516 520 295 181 226 109 246 102 518 
11 11 635 667 39 424 209 407 442 183 240 598 265 
12 11 423 227 139 156 526 322 22 432 446 681 411 
13 11 240 407 454 183 324 381 161 179 442 424 73 
14 11 504 459 320 679 274 160 142 208 570 464 352 
15 11 116 552 524 603 136 505 294 549 546 457 172 
16 11 386 682 646 268 443 44 374 118 644 436 575 
17 11 649 633 634 138 101 283 368 661 76 306 500 
18 11 456 373 498 449 354 637 104 47 452 43 273 
19 10 583 393 518 102 226 267 181 520 516 388 
20 11 236 282 60 652 26 93 147 460 21 286 217 
21 11 536 93 60 659 26 130 20 286 402 450 236 
22 10 411 631 438 643 252 12 494 681 257 156 
23 11 270 668 561 59 135 618 75 272 563 630 603 
24 11 390 640 326 89 656 130 669 219 25 281 547 
25 11 326 656 640 390 24 130 547 669 596 76 429 
26 11 93 60 21 536 20 130 659 236 286 282 402 
27 11 255 542 114 457 172 70 210 15 524 334 116 
28 11 235 225 383 677 285 169 503 537 177 251 52 
29 11 470 670 432 589 414 83 619 526 375 156 322 
30 11 508 362 34 315 680 645 626 249 454 509 179 
31 11 327 111 300 298 527 366 433 86 149 400 371 
32 11 260 451 645 492 501 604 573 277 572 34 508 
33 11 521 468 548 78 588 171 515 428 253 348 639 
34 11 30 508 645 362 315 260 680 626 179 32 454 
35 11 304 428 197 639 550 531 55 171 292 157 214 
36 11 253 107 418 500 65 306 548 515 639 171 468 
37 11 507 529 124 636 611 41 614 267 319 58 576 
38 11 506 628 237 113 154 288 557 332 425 6 538 
39 11 667 635 11 209 598 265 424 666 455 73 3 
40 11 657 132 540 259 595 538 616 113 192 120 220 
41 10 576 316 636 600 568 37 422 529 319 507 
42 10 339 641 250 155 585 342 173 584 337 321 
43 11 637 449 452 47 18 456 104 566 498 373 554 
44 11 243 644 646 391 436 443 159 16 386 268 674 
45 11 269 389 99 274 275 256 378 525 160 504 620 
46 11 325 67 278 296 609 108 551 357 555 126 276 
47 11 452 449 354 498 43 456 18 594 302 554 637 
48 11 6 384 313 538 205 175 230 237 512 363 657 
49 11 330 474 369 86 366 172 505 375 549 90 294 
50 11 133 642 254 232 425 397 221 332 578 557 288 
51 7 207 480 406 664 627 435 170 
52 11 169 163 204 150 510 535 351 310 251 413 597 
53 11 490 290 189 605 344 96 234 311 91 638 149 
54 11 472 80 223 528 293 88 97 445 558 266 613 
55 11 531 559 157 292 214 198 408 197 601 35 639 
56 11 359 146 178 382 564 403 662 314 189 208 234 
57 11 358 205 230 4 221 397 535 232 510 237 351 
58 11 577 592 653 466 201 462 103 431 612 629 394 
59 11 135 563 618 270 622 630 272 561 23 75 378 
60 11 93 21 26 536 20 659 286 236 402 130 450 
61 11 144 555 187 401 184 278 372 222 303 106 609 
62 10 367 363 313 512 384 560 120 192 220 6 
63 11 434 396 95 121 191 289 82 467 119 360 578 
64 10 164 258 323 385 681 252 483 545 371 497 
65 11 107 418 36 587 590 253 198 214 151 500 306 
66 9 8 245 174 676 271 5 361 573 379 
67 11 108 296 46 145 325 444 278 117 276 625 555 
68 11 486 100 338 567 655 495 565 401 541 187 202 
69 11 447 602 341 137 115 648 523 239 199 148 464 
70 11 210 329 542 334 114 105 665 255 27 405 90 
71 11 488 478 127 292 601 157 197 675 559 309 531 
72 11 473 321 519 584 84 499 543 534 342 336 465 
73 11 381 324 3 13 319 407 240 39 424 614 666 
74 9 579 85 553 195 496 346 161 179 315 
75 11 561 668 471 135 59 563 23 270 618 622 301 
76 11 138 633 25 596 17 547 429 326 656 368 306 
77 11 394 194 466 577 593 103 335 462 212 653 458 
78 11 171 428 548 588 33 521 468 348 586 639 650 
79 11 511 491 607 487 264 9 450 281 659 193 328 
80 11 472 54 97 223 291 445 85 579 88 293 528 
81 11 261 591 409 660 284 476 569 661 101 283 671 
82 11 289 95 578 191 434 467 119 642 63 396 133 
83 11 414 432 497 322 29 156 589 526 470 139 227 
84 9 543 499 336 469 347 376 72 387 473 
85 10 579 74 346 80 496 54 472 293 195 613 
86 11 366 49 527 330 111 474 369 589 31 505 549 
87 11 489 297 388 651 632 393 441 502 122 333 484 
88 11 223 266 287 445 280 528 558 54 97 472 293 
89 11 24 390 640 281 130 219 326 669 656 659 229 
90 11 105 334 241 375 474 530 369 168 330 49 172 
91 11 638 290 96 149 53 490 234 371 189 605 228 
92 11 541 565 145 67 567 108 338 444 655 117 486 
93 11 60 21 26 536 659 20 130 286 236 402 450 
94 11 582 448 458 514 593 335 624 194 167 77 103 
95 11 289 82 434 191 578 467 119 63 642 396 133 
96 11 234 290 53 91 189 490 638 621 228 344 605 
97 11 445 223 472 80 54 88 291 453 682 287 266 
98 11 123 482 128 623 182 7 176 312 487 607 683 
99 11 269 389 45 378 525 412 340 274 275 622 380 
100 11 68 486 338 567 655 495 565 202 401 187 541 
101 11 283 634 661 649 660 591 81 476 261 151 409 
102 11 518 393 226 109 19 246 388 651 520 516 297 
103 11 466 653 592 593 201 577 647 77 394 58 194 
104 11 373 637 18 449 456 43 498 273 452 47 354 
105 11 90 334 241 474 369 375 530 168 172 330 405 
106 11 303 222 184 404 144 437 61 372 356 112 349 
107 11 36 418 65 253 500 306 639 587 590 548 214 
108 11 67 296 444 145 117 276 625 325 46 278 580 
109 11 246 226 102 518 651 393 516 10 520 388 489 
110 11 158 233 353 217 460 147 236 196 395 211 286 
111 11 300 31 527 327 298 366 86 589 433 149 385 
112 11 437 184 222 551 609 357 571 349 144 106 555 
113 11 38 506 40 299 154 540 657 538 628 132 237 
114 11 255 27 542 210 70 457 329 334 172 100 105 
115 11 148 341 447 137 602 608 69 464 160 415 523 
116 11 15 552 524 603 136 505 294 549 546 23 457 
117 11 444 145 625 276 108 580 296 67 218 325 247 
118 9 374 485 379 532 682 453 16 268 430 
119 11 467 191 578 370 82 221 642 397 95 289 4 
120 11 220 192 229 132 556 657 538 219 40 259 62 
121 11 396 360 251 310 285 677 467 63 191 119 434 
122 11 441 484 244 611 502 297 267 388 647 87 201 
123 11 482 128 98 182 623 176 7 312 479 395 683 
124 11 529 507 614 267 611 37 636 319 583 41 3 
125 11 564 403 382 178 307 146 380 620 352 599 679 
126 11 357 551 609 325 46 296 112 364 654 437 555 
127 11 488 478 71 197 675 292 157 190 601 531 55 
128 11 482 123 312 98 623 182 176 395 479 7 683 
129 11 606 539 199 280 513 523 287 185 266 88 137 
130 11 26 24 640 21 89 390 93 659 326 536 60 
131 11 392 398 522 624 180 188 458 335 194 678 421 
132 11 657 40 192 538 120 259 220 540 556 595 229 
133 11 50 642 254 232 425 578 332 397 221 557 119 
134 11 410 674 368 224 243 476 159 671 350 634 660 
135 11 59 563 618 270 622 630 272 561 23 75 378 
136 11 294 549 505 552 116 248 15 400 366 86 330 
137 11 341 447 115 69 608 523 415 148 602 199 129 
138 11 76 633 17 25 368 596 547 429 365 649 656 
139 11 526 227 156 12 322 432 423 83 446 461 414 
140 11 671 569 409 284 350 476 81 239 224 261 660 
141 11 186 475 663 228 621 399 345 166 617 258 483 
142 11 570 320 426 459 421 517 14 148 392 608 115 
143 11 200 279 331 153 308 162 619 168 530 2 203 
144 11 61 555 187 184 401 222 372 303 278 106 437 
145 11 444 117 108 625 276 296 67 580 218 325 46 
146 11 382 564 403 359 178 56 125 208 679 352 314 
147 11 460 217 236 110 20 652 282 286 158 233 353 
148 11 115 464 602 341 447 608 137 160 69 570 320 
149 11 91 638 433 371 290 298 53 490 327 605 96 
150 10 535 510 204 52 163 351 169 358 230 4 
151 11 590 587 198 408 661 261 214 591 101 65 81 
152 11 307 599 380 340 525 574 125 272 620 311 630 
153 11 200 168 530 143 241 308 2 213 279 405 619 
154 11 506 38 557 628 113 288 425 237 332 299 254 
155 7 339 585 250 641 42 337 173 
156 11 322 526 139 227 432 12 83 497 414 423 681 
157 11 292 601 559 531 55 197 71 127 488 408 214 
158 11 353 233 110 395 460 217 211 147 312 196 286 
159 11 391 674 243 44 644 368 365 134 410 436 560 
160 11 464 274 275 256 602 504 148 14 45 269 389 
161 11 179 315 454 13 362 553 240 30 324 407 381 
162 11 417 610 461 446 619 331 143 419 200 670 203 
163 9 169 52 150 204 597 510 535 343 413 
164 10 64 258 323 385 252 681 483 545 371 497 
165 11 262 256 275 412 648 269 309 45 99 301 389 
166 11 617 477 399 663 273 475 141 672 345 186 439 
167 7 562 582 514 448 94 502 355 
168 11 530 153 241 200 405 2 90 213 665 105 143 
169 11 52 163 204 150 413 597 510 535 225 343 251 
170 11 364 664 654 247 51 126 420 218 325 276 206 
171 11 78 548 428 639 33 468 521 588 253 418 35 
172 11 369 457 330 474 49 505 542 105 552 90 27 
173 6 641 339 42 155 250 585 
174 8 245 66 604 572 573 676 271 8 
175 8 230 384 205 512 313 363 48 358 
176 11 182 7 482 123 318 463 128 98 479 658 312 
177 9 503 537 383 361 5 235 225 8 271 
178 11 564 146 403 189 344 125 382 56 359 311 490 
179 11 161 315 362 454 13 30 553 240 34 407 74 
180 11 188 398 522 678 131 392 624 458 335 302 317 
181 9 295 520 516 544 455 615 10 19 226 
182 11 7 176 123 482 98 128 318 463 312 623 479 
183 11 442 240 407 424 13 454 635 11 381 324 667 
184 11 222 437 106 303 112 144 61 349 571 555 609 
185 11 513 539 224 199 523 606 129 350 239 134 69 
186 11 141 228 621 475 399 663 638 96 258 234 91 
187 11 401 372 61 144 655 495 555 278 303 202 106 
188 11 180 522 678 398 131 392 624 302 458 317 594 
189 11 344 53 490 234 605 96 290 178 311 91 56 
190 11 675 478 127 349 404 571 488 197 106 71 471 
191 11 467 119 82 95 289 578 434 396 642 63 121 
192 11 120 220 132 538 657 229 556 40 259 6 62 
193 11 264 9 607 440 511 487 377 305 216 263 79 
194 11 335 458 77 394 624 593 94 131 466 577 103 
195 7 553 496 600 576 316 74 346 
196 9 233 110 158 353 217 460 147 479 395 
197 11 127 292 157 531 55 35 304 488 675 559 478 
198 10 408 214 587 151 590 559 55 531 65 157 
199 11 523 539 185 129 513 606 69 239 137 224 447 
200 11 153 143 168 530 279 619 308 241 331 2 162 
201 11 647 592 653 103 466 58 577 593 244 484 77 
202 11 495 546 372 401 187 524 603 356 303 655 68 
203 11 533 331 419 279 143 308 162 610 200 213 2 
204 11 510 535 52 351 150 163 169 310 370 251 4 
205 10 57 230 358 175 48 237 6 288 535 4 
206 5 673 406 51 173 387 
207 7 480 51 435 627 406 469 376 
208 11 314 359 146 382 459 679 403 56 564 14 178 
209 9 598 39 265 455 544 666 667 635 11 
210 11 70 329 542 114 334 255 27 665 105 457 405 
211 11 683 402 450 286 395 353 158 236 460 110 60 
212 9 416 462 394 431 77 577 629 421 517 
213 11 2 308 405 665 279 153 168 241 200 143 530 
214 11 198 408 55 559 531 587 590 151 65 157 292 
215 8 650 348 493 238 588 420 586 78 
216 11 305 377 616 440 581 595 9 328 263 264 540 
217 11 147 460 110 236 158 233 652 282 20 353 286 
218 11 625 580 247 276 117 654 444 145 296 108 325 
219 11 669 229 390 24 640 656 89 326 556 547 220 
220 11 120 192 229 556 132 657 538 219 259 40 62 
221 11 397 232 4 370 50 642 133 351 119 57 358 
222 11 184 106 303 437 112 144 349 571 61 555 609 
223 11 445 88 97 54 472 266 80 287 528 558 280 
224 11 350 185 239 513 671 140 539 134 199 410 476 
225 10 235 28 383 169 413 537 177 503 597 677 
226 11 102 518 393 109 516 520 246 10 19 181 651 
227 11 139 526 12 423 156 322 432 446 461 83 417 
228 11 621 186 141 399 96 638 234 475 290 91 663 
229 11 219 556 220 120 669 192 89 390 24 640 656 
230 8 175 205 358 57 150 48 384 535 
231 11 509 249 626 680 508 30 442 645 183 362 454 
232 11 397 221 50 133 332 642 4 425 370 57 254 
233 11 158 110 353 196 217 460 395 147 312 211 479 
234 11 96 290 189 53 490 91 344 638 621 605 228 
235 10 28 225 383 503 537 177 677 285 169 413 
236 11 460 147 20 286 217 60 282 402 652 93 26 
237 11 288 628 38 332 506 425 205 557 57 154 48 
238 9 493 650 420 348 586 215 588 78 550 
239 11 350 648 224 140 185 69 523 199 671 569 513 
240 11 407 183 13 442 424 454 381 324 635 73 161 
241 11 168 530 405 90 105 153 334 665 2 200 213 
242 11 317 354 498 678 594 302 456 47 273 188 18 
243 11 44 391 646 159 644 443 134 674 436 386 410 
244 9 441 484 122 502 647 201 333 632 297 
245 8 174 66 271 604 572 676 8 379 
246 11 109 226 102 651 518 393 10 516 520 388 489 
247 11 654 218 276 364 625 664 170 296 117 325 444 
248 11 400 433 574 136 294 549 298 31 327 505 149 
249 11 509 231 680 626 508 30 442 454 362 183 645 
250 9 585 155 339 641 42 337 173 342 584 
251 11 310 360 677 285 121 204 351 52 370 396 169 
252 10 681 323 483 545 164 64 438 411 22 258 
253 11 36 418 107 500 548 65 639 306 515 171 468 
254 11 133 425 50 557 332 642 232 288 628 397 221 
255 11 27 114 542 457 210 70 172 524 15 334 329 
256 11 275 160 165 274 45 269 464 648 389 602 99 
257 10 494 643 438 631 411 545 483 22 252 345 
258 11 64 164 385 323 483 371 545 252 681 141 186 
259 11 595 540 40 616 132 657 328 556 216 305 192 
260 11 645 32 34 508 451 492 501 30 277 573 626 
261 11 81 591 284 660 409 661 569 476 151 481 101 
262 11 165 481 309 256 412 648 275 301 284 140 569 
263 11 581 440 377 216 305 616 299 9 595 264 540 
264 11 9 193 440 511 377 305 216 607 487 79 581 
265 9 666 455 598 544 209 39 3 583 181 
266 10 88 558 528 280 287 223 293 613 54 415 
267 11 611 124 529 507 583 614 37 19 122 319 484 
268 9 575 430 374 16 436 644 118 646 44 
269 11 45 389 99 274 275 378 256 525 620 412 160 
270 11 59 618 135 563 630 272 622 23 340 561 378 
271 10 361 8 5 66 245 532 174 379 537 177 
272 11 630 270 340 618 59 135 525 563 378 152 622 
273 11 477 373 456 18 498 354 166 617 104 449 242 
274 11 160 45 504 269 275 389 256 464 99 14 352 
275 11 256 160 274 45 269 389 464 165 99 602 648 
276 11 625 296 117 444 108 145 218 247 580 654 325 
277 8 492 451 572 604 291 32 260 453 
278 11 555 46 609 67 61 551 144 325 108 357 187 
279 11 308 143 213 331 2 200 153 203 533 168 405 
280 11 287 266 129 88 606 558 528 539 223 415 199 
281 11 89 491 659 536 130 21 24 390 640 93 328 
282 11 652 20 236 147 460 217 429 26 60 596 93 
283 11 101 634 661 649 660 591 81 476 261 409 151 
284 11 569 409 81 140 261 671 476 591 481 660 350 
285 11 677 360 251 28 121 310 396 235 225 169 52 
286 11 402 211 450 236 60 683 93 460 536 21 20 
287 11 280 88 266 129 223 606 445 386 443 97 558 
288 11 628 237 332 425 38 506 557 154 232 57 254 
289 11 95 82 434 578 191 467 119 63 642 396 133 
290 11 96 53 91 234 490 638 189 605 344 149 311 
291 9 453 277 97 492 80 572 472 604 445 
292 11 157 601 531 559 55 197 71 127 488 214 408 
293 7 613 528 558 54 266 346 88 
294 11 549 505 136 552 366 86 248 330 15 49 116 
295 9 181 520 516 615 544 10 455 598 265 
296 11 108 276 325 444 625 67 117 145 46 654 247 
297 11 388 87 489 393 651 122 441 484 102 518 244 
298 11 327 31 300 111 527 149 433 371 400 385 91 
299 11 581 113 263 540 616 595 40 154 216 305 377 
300 11 111 31 327 298 527 149 366 385 371 86 433 
301 11 309 412 622 563 135 59 618 75 378 561 270 
302 11 594 427 554 47 566 452 354 678 317 514 242 
303 11 106 222 184 404 144 372 61 356 437 112 349 
304 11 550 35 197 571 349 675 586 428 127 190 531 
305 11 216 377 616 440 581 595 9 328 263 264 540 
306 11 500 107 36 253 429 418 596 65 17 633 515 
307 11 152 599 380 125 620 525 352 311 340 564 403 
308 11 279 2 213 143 153 200 168 405 331 665 203 
309 11 301 412 71 262 622 488 165 478 563 135 59 
310 11 251 360 677 204 351 121 285 52 370 510 396 
311 11 605 344 490 53 189 574 178 290 307 125 234 
312 11 395 128 479 482 353 123 683 158 623 211 233 
313 9 384 512 363 48 6 62 175 367 538 
314 11 208 359 56 146 382 459 403 564 679 178 662 
315 11 362 179 30 34 161 454 508 645 13 680 74 
316 9 600 41 576 553 195 636 568 319 422 
317 11 242 354 498 678 594 302 47 456 188 273 452 
318 8 463 658 176 479 7 182 482 128 
319 11 614 636 529 124 3 73 583 41 507 37 316 
320 11 142 570 459 14 426 421 148 504 517 208 392 
321 11 584 519 72 342 473 42 387 336 534 84 543 
322 11 156 526 139 432 497 83 227 12 414 681 323 
323 10 681 64 164 252 258 497 385 483 545 322 
324 11 381 73 13 3 407 240 424 319 183 161 454 
325 11 46 296 67 108 126 357 276 551 609 278 625 
326 11 640 390 656 24 25 669 547 89 130 219 229 
327 11 298 31 300 111 527 433 149 371 400 366 385 
328 11 305 216 259 616 595 556 377 9 491 440 281 
329 11 70 210 665 334 405 542 105 241 114 90 2 
330 11 49 369 474 172 86 366 505 375 90 549 457 
331 11 203 143 419 533 279 162 200 610 308 417 153 
332 11 288 425 628 557 237 232 50 254 133 397 221 
333 8 632 502 244 87 489 441 562 122 
334 11 105 90 241 70 329 405 665 210 542 168 474 
335 11 194 458 624 77 593 94 394 131 392 522 466 
336 8 347 387 469 543 84 406 499 72 
337 9 585 250 155 339 641 42 658 342 318 
338 11 567 486 68 100 655 565 541 92 495 401 187 
339 8 641 155 250 42 585 173 337 342 
340 11 525 630 378 272 152 599 380 307 618 270 99 
341 11 137 447 115 69 608 148 602 415 523 199 464 
342 11 584 321 519 42 72 250 339 641 155 473 585 
343 6 597 413 163 169 150 52 
344 11 605 189 311 490 53 178 234 290 96 125 564 
345 10 672 663 475 545 483 141 257 494 166 643 
346 4 496 85 195 293 
347 7 336 387 469 84 543 406 627 
348 10 650 493 238 588 215 586 78 420 33 171 
349 11 571 190 675 222 304 112 184 437 106 303 550 
350 11 224 140 239 671 569 185 409 476 284 513 410 
351 11 510 204 370 535 4 150 358 52 310 221 397 
352 11 620 679 380 599 125 403 564 382 307 504 146 
353 11 158 233 110 395 211 312 460 217 683 147 286 
354 11 498 456 47 18 317 452 242 449 373 273 594 
355 9 566 554 43 427 562 452 514 167 47 
356 11 404 471 303 106 372 546 603 202 668 75 190 
357 11 551 126 609 46 325 555 112 437 278 296 67 
358 11 57 205 535 4 510 230 351 150 221 397 370 
359 11 56 146 208 382 314 403 564 178 679 125 662 
360 11 121 251 310 677 396 285 467 119 191 370 204 
361 8 5 271 8 537 177 503 66 383 
362 11 315 30 34 179 508 454 161 680 645 626 13 
363 7 512 313 384 62 367 175 48 
364 11 170 664 654 247 126 51 276 325 420 218 625 
365 10 560 547 159 391 367 138 76 644 656 669 
366 11 86 527 49 330 549 111 505 31 294 300 369 
367 11 62 560 363 512 313 120 384 365 220 192 547 
368 11 674 649 410 634 283 17 101 134 159 660 138 
369 11 474 330 49 172 90 105 86 375 457 366 505 
370 11 4 351 221 397 119 510 204 535 232 310 358 
371 11 385 638 91 149 258 64 164 298 290 327 300 
372 11 401 187 61 144 495 202 303 106 184 356 222 
373 11 18 456 498 104 273 449 637 354 43 47 452 
374 10 118 430 268 532 16 485 379 682 575 436 
375 11 90 589 530 474 105 470 49 29 369 330 670 
376 7 469 627 435 543 84 499 336 
377 11 440 216 305 9 581 263 264 616 595 328 193 
378 11 525 340 99 630 622 389 618 272 269 412 563 
379 8 485 532 118 453 271 245 174 374 
380 11 599 620 307 352 125 152 525 403 340 564 679 
381 11 324 73 3 13 407 240 424 183 319 39 161 
382 11 403 146 564 125 359 178 679 56 208 352 620 
383 9 235 503 177 537 28 225 361 5 413 
384 8 313 512 363 48 6 175 62 230 
385 11 64 371 258 164 323 497 681 300 638 298 252 
386 11 443 646 16 682 287 44 445 606 243 88 97 
387 7 347 336 469 543 84 406 584 
388 11 297 87 393 489 651 102 518 122 441 19 484 
389 11 269 45 99 274 378 275 525 620 352 380 256 
390 11 640 24 326 89 656 669 219 130 25 547 281 
391 10 159 644 44 243 436 365 646 674 560 134 
392 11 131 398 180 522 188 624 335 458 194 421 678 
393 11 518 102 226 388 19 297 109 651 87 246 489 
394 11 77 577 466 194 593 103 462 212 335 653 592 
395 11 353 683 211 312 158 402 110 450 233 286 128 
396 11 121 360 63 467 191 119 434 251 310 285 677 
397 11 221 232 4 370 50 642 133 57 119 351 358 
398 11 180 522 188 131 392 678 624 458 335 194 302 
399 11 617 621 228 662 186 141 166 475 663 477 234 
400 11 248 433 574 298 327 31 149 136 549 294 527 
401 11 187 372 61 144 495 655 202 555 303 278 106 
402 11 286 450 211 683 60 236 536 21 93 395 659 
403 11 564 382 146 125 178 679 352 359 620 56 380 
404 11 356 471 106 303 190 675 222 184 372 349 75 
405 11 665 2 213 241 168 153 334 530 308 329 105 
406 6 627 469 51 207 347 673 
407 11 240 183 13 424 442 454 324 381 635 73 11 
408 10 198 214 559 587 151 590 55 531 601 157 
409 11 569 284 671 476 81 140 261 660 591 101 283 
410 11 134 674 476 368 660 634 283 671 101 409 649 
411 10 631 438 22 643 494 257 252 545 681 483 
412 11 301 622 309 99 378 563 165 618 135 269 59 
413 6 597 343 163 169 225 52 
414 11 83 432 29 497 589 322 156 470 526 139 670 
415 8 608 137 341 558 266 528 613 280 
416 9 212 421 517 462 394 77 431 194 577 
417 11 461 162 446 619 610 670 227 143 331 526 139 
418 11 36 107 253 65 639 500 306 548 214 171 198 
419 11 203 331 533 610 162 143 417 279 446 200 308 
420 11 238 493 650 348 586 215 170 364 126 550 588 
421 9 517 416 426 212 142 392 570 131 194 
422 7 568 612 629 576 431 41 496 
423 11 12 227 139 526 446 156 322 461 22 432 417 
424 11 407 183 635 442 240 11 667 13 39 381 324 
425 11 557 332 254 288 628 50 133 232 237 506 154 
426 9 570 517 142 421 320 608 416 148 115 
427 10 554 302 594 566 514 448 47 452 582 94 
428 11 171 639 78 35 548 550 586 33 588 253 304 
429 11 596 282 652 306 20 25 500 26 130 633 76 
430 5 374 268 575 436 118 
431 9 629 612 462 212 422 58 568 577 416 
432 11 526 83 156 414 322 139 29 470 227 670 497 
433 11 400 149 248 298 574 327 31 605 311 300 490 
434 11 95 289 63 82 191 467 396 578 119 121 642 
435 7 207 627 376 480 469 51 406 
436 9 644 575 268 391 44 646 16 243 560 
437 11 112 184 222 551 609 144 357 571 106 555 61 
438 10 643 494 631 257 411 22 545 252 483 681 
439 11 672 477 273 166 345 373 104 617 663 18 456 
440 11 377 9 216 305 264 581 263 193 616 328 595 
441 10 122 484 244 502 297 611 647 388 87 201 
442 11 183 240 407 424 13 454 635 249 11 667 231 
443 11 386 646 16 44 243 606 287 682 513 129 539 
444 11 117 145 625 276 108 296 580 67 218 325 46 
445 11 97 223 88 472 54 80 287 682 266 291 453 
446 11 461 417 162 227 610 423 619 139 526 670 12 
447 11 69 341 137 115 602 148 523 464 648 608 199 
448 10 514 582 94 427 167 562 458 554 624 566 
449 11 43 637 452 18 47 456 498 373 104 354 566 
450 11 402 211 286 683 536 21 60 395 659 93 236 
451 9 492 277 604 572 32 260 573 291 501 
452 11 47 449 43 498 637 18 354 456 566 554 594 
453 8 291 682 118 97 485 379 445 277 
454 11 13 240 179 161 183 407 362 315 442 30 680 
455 9 265 544 666 598 209 181 295 39 583 
456 11 18 498 373 354 449 47 273 452 637 104 43 
457 11 172 542 27 255 369 474 330 552 114 49 15 
458 11 335 624 194 94 131 593 522 77 394 398 448 
459 11 14 320 208 504 142 314 679 570 359 382 146 
460 11 147 217 236 110 20 286 158 652 282 353 233 
461 11 417 446 619 162 670 227 526 139 470 610 432 
462 9 212 431 577 629 394 416 58 77 612 
463 8 318 658 176 479 7 182 482 312 
464 11 160 602 148 115 275 256 274 447 69 14 504 
465 11 534 473 499 72 519 84 543 321 584 376 336 
466 11 103 653 577 592 593 77 394 201 58 647 194 
467 11 191 119 82 578 95 289 396 434 370 121 360 
468 11 521 33 548 515 171 78 588 253 428 36 418 
469 7 627 347 336 376 406 543 84 
470 11 29 670 432 589 619 414 83 375 461 526 139 
471 11 356 404 75 668 561 190 478 603 675 106 303 
472 11 80 54 97 223 445 88 291 85 528 293 266 
473 11 72 519 534 321 465 499 584 84 543 342 336 
474 11 369 330 49 172 90 105 375 86 366 457 505 
475 11 663 141 186 345 228 399 621 166 672 483 545 
476 11 409 660 671 81 591 569 284 283 101 140 261 
477 11 166 273 617 373 456 439 498 399 354 18 663 
478 11 488 127 71 675 190 197 292 157 601 309 471 
479 10 312 463 318 128 482 176 353 395 158 233 
480 7 207 51 435 627 406 664 376 
481 10 284 261 81 569 409 262 601 140 408 591 
482 11 128 123 98 182 176 312 623 7 479 395 683 
483 10 545 252 164 258 64 323 438 494 681 345 
484 10 122 441 244 502 611 647 201 297 267 388 
485 8 379 532 118 453 374 271 245 174 
486 11 68 338 100 567 655 565 541 495 401 92 187 
487 11 607 511 79 193 264 623 9 98 491 440 123 
488 11 71 478 127 292 157 601 675 197 190 531 559 
489 11 87 651 297 388 632 333 393 502 441 102 122 
490 11 53 605 189 344 290 311 96 234 91 638 149 
491 11 79 281 659 511 536 328 21 450 89 93 9 
492 8 277 451 604 572 32 291 260 645 
493 10 650 238 348 586 420 215 588 78 550 33 
494 10 257 643 438 631 411 545 483 252 22 345 
495 11 202 401 372 187 546 655 68 100 486 61 144 
496 6 346 195 74 553 85 422 
497 11 83 322 323 414 681 156 64 385 432 164 252 
498 11 456 354 18 373 47 449 452 273 637 43 317 
499 10 84 543 473 72 376 336 465 469 534 347 
500 11 306 36 107 253 418 65 429 515 596 17 652 
501 11 573 32 260 451 645 604 676 174 572 492 277 
502 8 333 244 632 441 122 484 87 167 
503 9 177 537 383 361 5 235 225 8 28 
504 11 14 274 679 352 160 459 620 45 389 269 464 
505 11 294 549 136 552 366 330 49 172 86 15 116 
506 11 38 154 628 113 237 288 557 332 425 299 40 
507 11 37 529 124 611 636 267 614 41 319 58 201 
508 11 30 34 645 680 626 362 509 260 249 315 231 
509 11 249 231 626 680 508 30 645 34 362 442 454 
510 11 535 204 150 351 52 358 4 163 370 169 57 
511 11 79 607 264 487 9 193 491 440 377 328 305 
512 7 363 313 384 62 175 367 48 
513 11 539 185 606 199 129 224 523 350 239 280 134 
514 10 448 582 94 427 167 562 554 566 302 458 
515 11 468 521 33 548 253 36 652 500 282 171 217 
516 9 520 181 10 295 615 226 518 102 544 
517 9 421 426 416 212 142 570 392 462 320 
518 11 102 393 226 109 19 388 520 246 516 651 297 
519 11 321 72 473 584 342 534 465 42 499 84 543 
520 9 516 181 295 10 226 615 518 102 19 
521 11 33 468 548 515 588 78 171 253 428 348 36 
522 11 398 180 188 131 678 624 392 458 335 194 302 
523 11 199 539 129 185 69 137 513 447 341 239 606 
524 11 603 15 116 546 202 552 495 27 136 457 356 
525 11 340 378 599 380 152 630 99 307 272 389 620 
526 11 139 227 156 432 322 12 423 83 414 461 29 
527 11 111 31 300 327 366 86 298 589 49 549 433 
528 8 558 293 613 266 54 88 223 280 
529 11 124 614 507 636 37 319 267 611 41 583 3 
530 11 168 153 241 200 90 375 105 405 143 2 619 
531 11 55 559 157 292 214 197 601 408 198 35 127 
532 7 379 485 118 374 271 245 361 
533 11 203 331 419 279 143 308 162 610 200 213 2 
534 11 465 473 72 519 499 321 84 543 584 342 336 
535 11 510 150 204 351 52 358 163 4 370 169 57 
536 11 21 659 93 60 26 402 286 130 450 20 281 
537 9 177 503 383 361 5 235 225 8 271 
538 11 657 132 192 6 40 120 48 220 259 113 313 
539 11 513 606 129 185 199 523 224 280 287 239 350 
540 11 595 259 616 40 216 581 305 657 132 299 113 
541 11 565 92 655 67 567 145 338 108 486 444 278 
542 11 27 457 255 114 70 210 172 334 329 105 369 
543 9 84 499 336 469 347 376 72 387 473 
544 9 455 598 265 209 666 181 295 520 39 
545 10 483 252 494 438 164 257 643 345 258 64 
546 11 202 524 603 495 356 116 15 372 401 187 404 
547 11 656 669 326 25 640 390 219 24 365 76 229 
548 11 171 33 468 78 521 253 428 639 515 418 36 
549 11 294 505 136 552 366 86 248 330 49 400 527 
550 11 304 586 35 428 571 349 78 493 171 348 650 
551 11 609 357 126 46 555 437 112 325 278 144 61 
552 11 15 116 136 505 294 549 172 524 457 330 603 
553 9 195 600 316 74 161 496 576 179 41 
554 10 566 427 594 302 452 47 355 514 43 448 
555 11 278 61 609 144 551 46 357 437 187 184 325 
556 11 229 220 219 120 259 328 192 132 89 281 657 
557 11 425 254 332 628 288 154 506 38 237 50 133 
558 9 528 293 613 266 88 54 280 223 415 
559 10 55 531 157 292 408 601 214 198 197 587 
560 9 365 367 62 547 391 436 644 159 363 
561 11 75 668 59 135 23 563 270 471 618 622 301 
562 7 167 582 514 448 94 355 502 
563 11 135 59 618 622 270 630 272 561 378 75 301 
564 11 403 382 146 125 178 679 359 352 620 56 380 
565 11 541 92 655 567 338 486 68 67 145 108 278 
566 10 554 427 355 452 594 302 47 43 514 449 
567 11 338 486 68 100 565 655 541 92 495 401 187 
568 7 422 576 612 629 41 431 316 
569 11 284 409 140 671 81 476 261 660 591 350 481 
570 11 142 320 426 517 14 459 148 421 608 115 464 
571 11 349 304 222 112 675 190 437 184 106 550 303 
572 8 604 277 451 492 32 291 174 245 
573 11 501 32 604 451 676 174 260 572 245 277 492 
574 11 152 311 605 433 400 248 307 344 490 272 53 
575 7 436 268 430 644 374 16 44 
576 7 568 41 316 600 422 195 612 
577 11 466 394 77 103 58 462 653 592 593 212 431 
578 11 642 82 289 95 119 191 467 133 50 221 397 
579 11 85 74 80 34 315 472 54 346 362 492 496 
580 11 117 625 218 444 145 276 108 296 247 67 654 
581 11 263 377 216 616 305 440 595 540 299 9 264 
582 9 448 94 514 167 562 593 458 427 335 
583 10 19 614 267 3 124 319 666 529 265 455 
584 11 321 342 519 72 42 473 387 336 339 641 250 
585 7 155 250 339 337 641 42 173 
586 11 550 493 348 650 238 78 420 428 588 304 171 
587 11 590 151 198 408 214 65 661 261 559 591 101 
588 11 348 78 33 650 521 493 215 468 171 548 238 
589 11 29 414 470 83 375 86 432 670 527 111 366 
590 11 587 151 198 408 661 214 65 261 101 591 283 
591 11 660 81 661 101 283 261 634 476 409 649 284 
592 11 653 201 103 466 647 577 58 593 77 394 462 
593 11 103 466 77 394 94 194 653 335 592 577 458 
594 11 302 427 554 47 566 452 354 317 678 498 242 
595 11 616 540 259 216 305 40 581 328 377 132 440 
596 11 429 25 282 652 306 633 20 76 130 26 500 
597 6 413 343 163 169 52 225 
598 9 209 265 455 666 544 39 667 3 635 
599 11 380 307 620 152 352 525 125 340 403 564 679 
600 8 316 576 41 553 195 636 568 319 
601 10 157 292 559 71 531 55 488 408 127 197 
602 11 447 464 69 115 148 341 648 160 137 256 275 
603 11 524 546 116 15 668 202 356 23 552 471 561 
604 8 572 451 277 492 32 174 573 245 
605 11 311 344 490 53 189 290 234 96 178 574 91 
606 11 129 539 513 185 199 280 287 523 443 224 386 
607 11 487 511 79 193 264 9 623 491 98 440 377 
608 10 341 115 137 415 148 447 426 570 69 602 
609 11 551 357 555 46 126 278 437 112 325 61 144 
610 11 162 417 446 419 461 331 619 143 203 423 533 
611 11 267 124 507 529 37 122 484 441 614 583 19 
612 7 629 431 422 568 462 58 576 
613 6 293 528 558 266 54 346 
614 11 319 529 124 636 583 3 507 37 267 611 41 
615 9 10 295 516 520 181 226 544 455 518 
616 11 595 216 305 540 581 259 377 440 328 263 40 
617 11 166 477 399 663 273 662 141 475 186 621 228 
618 11 59 135 563 270 622 630 272 378 340 561 23 
619 11 670 461 417 470 162 200 29 446 143 153 530 
620 11 352 380 599 125 679 307 403 564 382 525 152 
621 11 228 186 399 141 96 234 638 290 91 662 475 
622 11 563 618 135 59 412 378 270 630 301 272 340 
623 11 98 128 123 482 683 312 487 395 607 211 182 
624 11 458 335 131 522 194 398 94 392 180 188 448 
625 11 276 117 444 296 145 218 580 108 247 654 325 
626 11 680 509 249 231 508 30 645 34 362 260 454 
627 7 469 406 435 207 376 480 51 
628 11 288 237 38 506 332 557 425 154 113 254 232 
629 7 612 431 422 568 462 212 58 
630 11 272 270 618 340 59 135 378 563 622 525 152 
631 10 643 438 411 494 257 22 252 545 483 681 
632 8 333 502 87 489 244 297 441 122 
633 11 138 76 17 596 25 429 306 368 500 547 649 
634 11 283 101 649 661 660 591 476 81 368 261 17 
635 11 11 667 424 39 407 183 442 209 240 598 381 
636 11 319 529 614 41 37 124 507 316 600 576 3 
637 11 43 449 104 18 452 373 47 456 498 354 566 
638 11 91 290 96 371 149 234 228 53 621 490 186 
639 11 428 171 35 418 548 253 78 214 36 65 55 
640 11 390 24 326 656 89 669 25 130 219 547 281 
641 7 339 155 42 250 585 173 337 
642 11 50 133 578 232 397 221 254 119 82 191 425 
643 10 438 494 257 631 411 22 545 252 483 681 
644 9 436 44 391 243 646 159 575 268 16 
645 11 260 34 508 30 32 626 680 362 315 509 249 
646 11 443 44 386 243 16 644 391 436 268 682 606 
647 11 201 592 653 103 466 593 244 58 577 484 122 
648 11 239 69 602 256 447 165 275 350 464 262 160 
649 11 634 101 283 661 17 660 591 368 476 81 410 
650 10 348 493 238 588 215 586 420 78 33 550 
651 11 489 87 388 109 297 246 393 102 518 226 632 
652 11 282 20 147 236 460 217 429 26 60 596 93 
653 11 592 103 201 466 647 577 593 58 77 394 462 
654 11 247 364 276 625 218 170 664 296 325 117 444 
655 11 486 68 565 338 187 401 541 567 100 495 278 
656 11 669 326 390 640 547 24 25 219 89 130 229 
657 11 132 538 40 192 259 120 220 540 595 113 556 
658 8 318 463 176 7 337 182 585 479 
659 11 536 21 93 60 26 281 130 491 450 402 286 
660 11 591 101 283 81 661 634 476 261 409 649 284 
661 11 101 283 591 634 660 649 81 261 151 590 476 
662 11 399 56 621 228 617 234 359 96 186 189 166 
663 11 475 141 345 186 166 672 399 617 228 621 483 
664 11 170 364 654 247 51 480 207 218 206 406 126 
665 11 405 2 213 241 329 168 334 308 153 530 105 
666 9 265 455 598 544 209 3 39 583 73 
667 11 635 11 39 424 209 598 407 183 442 240 265 
668 11 561 75 23 471 59 135 563 270 603 618 356 
669 11 656 219 326 547 390 640 24 229 25 89 130 
670 11 470 619 29 461 432 417 526 589 375 414 446 
671 11 140 409 569 476 284 350 81 660 224 591 261 
672 10 345 663 439 475 166 545 257 494 483 141 
673 5 206 406 387 347 51 
674 11 134 410 368 159 243 391 634 649 476 283 101 
675 11 190 127 478 349 488 197 571 71 304 404 292 
676 11 66 573 174 245 8 501 5 271 604 361 572 
677 11 285 251 310 360 28 121 52 169 225 204 235 
678 11 188 180 522 398 317 242 302 594 131 392 624 
679 11 352 382 403 620 564 146 504 125 208 380 359 
680 11 626 509 249 231 508 30 645 34 362 454 315 
681 11 323 252 164 64 497 483 322 258 545 22 156 
682 11 16 386 118 453 445 97 374 443 223 268 646 
683 11 211 450 395 402 286 623 312 353 158 128 236 
DEPOT_SECTION
   1
   -1
EOF
