NAME :  X-n733-kX-w292-c7.cctp
COMMENT : 	Adapted by Maziero, Usberti and Cavellucci from the Uchoa, Pecin, Pessoa, Poggi, Subramanian, and Vidal (2013)
TYPE :  CCTP
DIMENSION :    720
EDGE_WEIGHT_TYPE : 	EUC_2D	
CAPACITY : 	25
VERTICES_WITHIN_COVERAGE :  7
VERTICES_WITH_DEMAND : 	292
NODE_COORD_SECTION
1 500 500
2 143 12
3 206 907
4 895 855
5 640 970
6 865 716
7 993 356
8 618 966
9 963 539
10 50 979
11 241 998
12 32 206
13 288 926
14 299 507
15 336 180
16 589 726
17 665 488
18 36 521
19 112 895
20 814 442
21 843 474
22 17 258
23 360 273
24 814 537
25 775 524
26 825 471
27 321 87
28 773 958
29 119 166
30 368 928
31 193 250
32 452 919
33 736 322
34 386 911
35 624 313
36 694 398
37 186 803
38 948 721
39 216 973
40 915 641
41 238 810
42 946 172
43 23 561
44 613 657
45 359 434
46 604 96
47 56 554
48 862 723
49 222 161
50 974 838
51 775 67
52 815 880
53 204 362
54 435 760
55 593 358
56 203 435
57 882 803
58 194 739
59 380 323
60 836 461
61 537 136
62 789 669
63 956 1000
64 98 295
65 656 410
66 580 959
67 594 64
68 459 43
69 425 559
70 262 31
71 522 339
72 960 74
73 237 910
74 353 828
75 420 281
76 721 524
77 185 679
78 703 303
79 923 491
80 444 792
81 567 476
82 987 930
83 113 210
84 907 45
85 383 799
86 209 192
87 34 820
88 464 717
89 837 536
90 202 94
91 177 341
92 551 3
93 835 467
94 128 655
95 988 937
96 179 369
97 487 765
98 975 406
99 365 411
100 440 41
101 607 487
102 57 898
103 161 707
104 0 517
105 210 88
106 524 195
107 682 409
108 608 55
109 16 909
110 846 379
111 183 242
112 586 182
113 948 682
114 324 44
115 380 573
116 339 188
117 629 32
118 589 805
119 934 907
120 848 633
121 890 973
122 98 787
123 964 391
124 171 837
125 261 409
126 637 133
127 541 313
128 946 388
129 479 636
130 818 503
131 188 602
132 887 643
133 981 839
134 585 570
135 383 325
136 288 219
137 407 596
138 707 525
139 56 193
140 523 502
141 102 374
142 282 573
143 90 56
144 538 143
145 614 30
146 237 435
147 823 405
148 363 560
149 192 314
150 826 849
151 541 870
152 604 432
153 292 364
154 131 65
155 990 723
156 944 209
157 68 210
158 564 354
159 865 378
160 646 604
161 883 273
162 362 499
163 313 888
164 49 95
165 797 864
166 93 297
167 439 445
168 74 429
169 76 683
170 152 66
171 796 886
172 716 113
173 693 324
174 263 134
175 893 184
176 549 927
177 817 770
178 976 350
179 692 957
180 227 408
181 323 894
182 169 573
183 106 959
184 982 365
185 292 960
186 552 181
187 505 588
188 119 372
189 506 122
190 160 569
191 208 381
192 530 266
193 947 928
194 857 644
195 990 518
196 178 652
197 305 811
198 834 331
199 577 316
200 607 398
201 471 599
202 111 69
203 149 735
204 437 140
205 38 10
206 37 315
207 841 876
208 870 781
209 806 151
210 789 38
211 238 478
212 182 984
213 272 20
214 869 228
215 880 423
216 231 683
217 142 8
218 611 385
219 760 234
220 950 575
221 823 394
222 676 27
223 823 573
224 850 625
225 923 848
226 552 189
227 468 743
228 522 560
229 756 931
230 55 920
231 47 187
232 136 376
233 838 595
234 833 785
235 367 992
236 938 833
237 389 681
238 856 363
239 184 380
240 751 956
241 831 424
242 927 752
243 711 219
244 479 537
245 288 947
246 175 63
247 111 514
248 603 634
249 90 763
250 557 925
251 3 914
252 682 68
253 269 277
254 360 979
255 958 203
256 854 930
257 59 285
258 697 384
259 999 813
260 332 70
261 399 474
262 8 315
263 102 310
264 913 612
265 429 919
266 567 461
267 700 906
268 465 439
269 995 588
270 969 530
271 173 949
272 440 702
273 141 839
274 641 740
275 361 430
276 365 318
277 621 920
278 337 330
279 50 481
280 347 468
281 387 470
282 642 51
283 486 875
284 568 101
285 95 19
286 463 673
287 864 522
288 792 430
289 607 489
290 541 477
291 830 978
292 859 434
293 485 690
294 944 765
295 990 934
296 186 358
297 494 823
298 563 350
299 396 727
300 272 211
301 104 980
302 625 64
303 58 830
304 190 270
305 989 645
306 179 252
307 437 360
308 93 576
309 521 190
310 607 277
311 949 574
312 713 437
313 282 382
314 113 15
315 459 368
316 858 925
317 552 873
318 235 360
319 790 779
320 916 377
321 817 710
322 213 486
323 350 900
324 262 829
325 109 521
326 960 308
327 207 862
328 282 555
329 72 702
330 707 705
331 970 106
332 75 217
333 88 275
334 249 910
335 622 92
336 794 539
337 190 261
338 912 562
339 239 9
340 232 154
341 53 42
342 951 789
343 26 748
344 222 65
345 170 643
346 801 788
347 889 86
348 927 290
349 986 224
350 473 21
351 937 197
352 332 363
353 399 590
354 58 719
355 983 139
356 757 833
357 262 684
358 225 375
359 44 366
360 344 764
361 882 90
362 720 250
363 840 219
364 570 238
365 514 534
366 868 870
367 291 431
368 733 850
369 871 381
370 71 526
371 24 626
372 464 212
373 617 137
374 311 775
375 869 818
376 219 453
377 871 952
378 647 941
379 354 911
380 787 715
381 703 108
382 715 611
383 217 201
384 778 655
385 636 539
386 231 139
387 896 875
388 135 951
389 149 310
390 490 146
391 30 507
392 629 789
393 170 132
394 862 16
395 965 567
396 358 377
397 585 856
398 296 401
399 247 913
400 247 435
401 728 971
402 821 717
403 127 290
404 552 702
405 43 645
406 59 842
407 354 427
408 811 541
409 646 634
410 200 595
411 65 882
412 190 682
413 892 397
414 911 972
415 924 847
416 175 582
417 120 413
418 251 281
419 496 123
420 868 438
421 252 427
422 489 227
423 176 25
424 824 82
425 281 949
426 594 400
427 690 884
428 551 492
429 784 755
430 587 545
431 10 280
432 412 385
433 798 253
434 747 872
435 118 205
436 397 649
437 878 239
438 240 664
439 48 117
440 677 390
441 13 41
442 698 192
443 253 630
444 19 187
445 266 971
446 976 790
447 298 612
448 87 602
449 670 316
450 761 466
451 672 776
452 237 724
453 91 189
454 229 296
455 980 970
456 817 9
457 663 691
458 581 178
459 16 299
460 1 430
461 972 560
462 93 782
463 298 972
464 556 678
465 624 36
466 488 752
467 37 137
468 409 568
469 104 641
470 32 545
471 881 445
472 477 892
473 48 558
474 528 812
475 316 928
476 158 954
477 46 518
478 288 114
479 160 636
480 806 196
481 267 514
482 829 404
483 59 134
484 223 704
485 956 308
486 368 523
487 987 3
488 170 703
489 938 925
490 330 705
491 742 338
492 116 155
493 456 252
494 451 777
495 973 57
496 225 138
497 85 372
498 567 505
499 64 454
500 518 310
501 917 341
502 776 30
503 529 433
504 955 382
505 62 317
506 102 781
507 584 849
508 471 40
509 966 476
510 524 326
511 20 822
512 209 361
513 896 507
514 470 876
515 711 235
516 13 312
517 450 114
518 324 779
519 104 241
520 931 251
521 57 522
522 923 27
523 712 427
524 470 964
525 54 752
526 693 963
527 311 479
528 271 194
529 964 724
530 176 808
531 384 936
532 371 981
533 846 857
534 945 504
535 791 719
536 509 607
537 348 704
538 95 639
539 751 372
540 75 958
541 270 637
542 62 898
543 994 91
544 80 955
545 744 327
546 162 587
547 458 595
548 372 168
549 330 379
550 66 190
551 197 229
552 413 716
553 184 835
554 151 81
555 591 356
556 616 852
557 35 1
558 996 23
559 845 854
560 850 475
561 693 951
562 880 672
563 495 614
564 936 622
565 544 21
566 289 72
567 906 45
568 146 971
569 54 319
570 412 160
571 769 573
572 709 340
573 268 211
574 640 263
575 604 137
576 305 190
577 305 835
578 66 597
579 260 693
580 566 121
581 867 589
582 990 771
583 413 711
584 580 374
585 729 641
586 409 283
587 67 679
588 386 329
589 249 424
590 528 22
591 55 599
592 476 8
593 862 134
594 255 769
595 537 489
596 296 575
597 578 236
598 699 693
599 503 884
600 746 832
601 489 958
602 672 855
603 267 330
604 677 724
605 262 795
606 191 708
607 978 896
608 394 834
609 645 6
610 976 593
611 106 659
612 156 888
613 962 119
614 948 243
615 955 217
616 674 251
617 615 425
618 733 282
619 151 182
620 613 431
621 586 480
622 160 725
623 154 682
624 90 574
625 935 608
626 760 475
627 749 859
628 177 967
629 297 396
630 269 829
631 550 370
632 397 539
633 389 199
634 123 973
635 498 893
636 226 358
637 504 637
638 966 481
639 364 615
640 597 134
641 12 93
642 139 824
643 246 744
644 391 718
645 867 221
646 192 857
647 70 999
648 945 599
649 91 436
650 375 330
651 90 117
652 549 410
653 295 420
654 140 382
655 390 352
656 945 422
657 160 621
658 645 42
659 379 971
660 951 753
661 350 340
662 4 293
663 17 762
664 710 511
665 610 493
666 242 988
667 214 834
668 13 547
669 164 342
670 659 346
671 809 539
672 930 196
673 522 862
674 831 144
675 974 862
676 11 303
677 643 667
678 409 926
679 584 675
680 137 732
681 442 514
682 626 494
683 719 243
684 14 859
685 288 802
686 790 425
687 160 720
688 679 76
689 501 66
690 789 555
691 893 652
692 995 293
693 855 486
694 586 489
695 604 475
696 153 435
697 76 380
698 728 97
699 186 15
700 175 942
701 346 707
702 834 13
703 232 991
704 408 267
705 798 568
706 104 139
707 540 509
708 27 383
709 16 704
710 818 141
711 611 568
712 540 277
713 544 996
714 829 952
715 146 558
716 276 452
717 370 965
718 72 268
719 555 758
720 898 424
DEMAND_SECTION
2 5
3 3
4 1
5 1
6 5
7 9
8 9
9 3
10 2
11 3
12 4
13 1
14 2
15 4
16 1
17 10
18 9
19 3
20 3
21 3
22 2
23 3
24 1
25 1
26 4
27 5
28 8
29 4
30 7
31 5
32 10
33 3
34 5
35 1
36 10
37 5
38 2
39 1
40 4
41 5
42 4
43 10
44 6
45 4
46 8
47 3
48 6
49 1
50 2
51 2
52 2
53 1
54 7
55 6
56 5
57 4
58 5
59 2
60 3
61 5
62 1
63 5
64 3
65 3
66 10
67 10
68 1
69 5
70 2
71 6
72 3
73 9
74 6
75 9
76 7
77 2
78 9
79 7
80 8
81 3
82 3
83 5
84 10
85 6
86 4
87 9
88 1
89 2
90 6
91 10
92 8
93 6
94 4
95 1
96 8
97 3
98 8
99 7
100 6
101 4
102 1
103 8
104 3
105 9
106 8
107 7
108 10
109 8
110 2
111 10
112 5
113 2
114 4
115 1
116 9
117 1
118 6
119 6
120 8
121 9
122 8
123 7
124 6
125 1
126 10
127 10
128 1
129 9
130 2
131 3
132 10
133 2
134 3
135 1
136 3
137 3
138 2
139 5
140 7
141 2
142 1
143 7
144 4
145 6
146 5
147 1
148 2
149 5
150 10
151 1
152 3
153 4
154 1
155 3
156 1
157 1
158 6
159 3
160 2
161 7
162 10
163 6
164 3
165 1
166 5
167 8
168 1
169 8
170 8
171 2
172 1
173 7
174 1
175 1
176 4
177 10
178 6
179 2
180 2
181 2
182 1
183 8
184 4
185 3
186 6
187 7
188 4
189 6
190 6
191 6
192 6
193 5
194 4
195 6
196 10
197 3
198 1
199 5
200 3
201 10
202 4
203 6
204 6
205 4
206 9
207 6
208 3
209 2
210 8
211 5
212 2
213 2
214 4
215 1
216 10
217 2
218 3
219 8
220 9
221 9
222 5
223 2
224 3
225 8
226 4
227 1
228 3
229 9
230 7
231 6
232 9
233 5
234 3
235 6
236 4
237 3
238 9
239 7
240 8
241 8
242 1
243 7
244 4
245 7
246 4
247 4
248 8
249 7
250 1
251 5
252 8
253 1
254 10
255 6
256 10
257 3
258 10
259 10
260 5
261 1
262 8
263 3
264 5
265 10
266 5
267 2
268 8
269 8
270 7
271 7
272 6
273 4
274 5
275 9
276 2
277 8
278 7
279 2
280 5
281 6
282 3
283 7
284 4
285 4
286 5
287 1
288 5
289 7
290 2
291 4
292 9
293 10
COVERAGE_SECTION
2 7 217 314 423 699 285 154 170 
3 7 73 399 334 327 700 646 271 
4 7 387 225 415 366 375 236 533 
5 7 8 378 277 526 179 561 66 
6 7 48 402 562 321 208 691 177 
7 7 184 178 123 504 98 128 326 
8 7 5 378 66 277 250 179 526 
9 7 270 461 395 195 220 311 534 
10 7 647 540 544 301 183 230 634 
11 7 666 703 39 445 212 425 463 
12 7 444 231 139 157 550 332 22 
13 7 245 425 475 185 334 399 163 
14 7 527 481 328 716 280 162 142 
15 7 116 576 548 633 136 528 300 
16 7 404 719 679 274 464 44 392 
17 7 682 664 665 138 101 289 385 
18 7 477 391 521 470 370 668 104 
19 7 612 411 542 102 388 230 273 
20 7 241 288 60 686 26 93 147 
21 7 560 93 60 693 26 130 20 
22 7 431 662 459 676 257 12 516 
23 7 276 704 586 59 135 650 75 
24 7 408 671 336 89 690 130 705 
25 7 336 690 671 408 24 130 571 
26 7 93 60 21 560 20 130 693 
27 7 260 566 114 478 174 70 213 
28 7 240 229 401 714 291 171 526 
29 7 492 706 453 619 435 83 651 
30 7 531 379 34 323 717 678 659 
31 7 337 111 306 304 551 383 454 
32 7 265 472 678 514 524 635 601 
33 7 545 491 572 78 618 173 539 
34 7 30 531 678 379 323 265 717 
35 7 310 449 199 670 574 555 55 
36 7 258 107 440 523 65 312 572 
37 7 530 553 124 667 642 41 646 
38 7 529 660 242 113 155 294 582 
39 7 703 666 11 212 628 271 445 
40 7 691 132 564 264 625 562 648 
41 7 605 324 667 630 594 685 37 
42 7 351 672 255 156 615 355 175 
43 7 668 470 473 47 18 477 104 
44 7 248 677 679 409 457 464 160 
45 7 275 407 99 280 281 261 396 
46 7 335 67 284 302 640 108 575 
47 7 473 470 370 521 43 477 18 
48 7 6 402 321 562 208 177 234 
49 7 340 496 386 86 383 174 528 
50 7 133 675 259 236 446 415 225 
51 4 210 502 424 698 
52 7 171 165 207 150 533 559 366 
53 7 512 296 191 636 358 96 239 
54 7 494 80 227 552 299 88 97 
55 7 555 584 158 298 218 200 426 
56 7 376 146 180 400 589 421 696 
57 7 375 208 234 4 225 415 559 
58 7 606 622 687 488 203 484 103 
59 7 135 588 650 276 655 661 278 
60 7 93 21 26 560 20 693 292 
61 7 144 580 189 419 186 284 390 
62 7 384 380 321 535 402 585 120 
63 7 455 414 95 121 193 295 82 
64 7 166 263 333 403 718 257 505 
65 7 107 440 36 617 620 258 200 
66 7 8 250 176 713 277 5 378 
67 7 108 302 46 145 335 465 284 
68 7 508 100 350 592 689 517 590 
69 7 468 632 353 137 115 681 547 
70 7 213 339 566 344 114 105 699 
71 7 510 500 127 298 631 158 199 
72 7 495 331 543 613 84 522 567 
73 7 399 334 3 13 327 425 245 
74 7 608 85 577 197 518 360 374 
75 7 586 704 493 135 59 588 23 
76 7 138 664 25 626 17 571 450 
77 7 412 196 488 606 623 103 345 
78 7 173 449 572 618 33 545 491 
79 7 534 513 638 509 270 9 471 
80 7 494 54 97 227 297 466 85 
81 7 266 621 428 694 290 498 595 
82 7 295 95 607 193 455 489 119 
83 7 435 453 519 332 29 157 619 
84 6 567 522 347 361 394 72 
85 7 608 74 360 80 518 54 494 
86 7 383 49 551 340 111 496 386 
87 7 511 303 406 684 663 411 462 
88 7 227 272 293 466 286 552 583 
89 7 24 408 671 287 130 223 336 
90 7 105 344 246 393 496 554 386 
91 7 669 296 96 149 53 512 239 
92 7 565 590 145 67 592 108 350 
93 7 60 21 26 560 693 20 130 
94 7 611 469 479 538 623 345 657 
95 7 295 82 455 193 607 489 119 
96 7 239 296 53 91 191 512 669 
97 7 466 227 494 80 54 88 297 
98 7 123 504 128 656 184 7 178 
99 7 275 407 45 396 549 432 352 
100 7 68 508 350 592 689 517 590 
101 7 289 665 695 682 694 621 81 
102 7 542 411 230 109 19 251 406 
103 7 488 687 622 623 203 606 680 
104 7 391 668 18 470 477 43 521 
105 7 90 344 246 496 386 393 554 
106 7 309 226 186 422 144 458 61 
107 7 36 440 65 258 523 312 670 
108 7 67 302 465 145 117 282 658 
109 7 251 230 102 542 684 411 540 
110 7 159 238 369 221 482 147 241 
111 7 306 31 551 337 304 383 86 
112 7 458 186 226 575 640 373 597 
113 7 38 529 40 305 155 564 691 
114 7 260 27 566 213 70 478 339 
115 7 148 353 468 137 632 639 69 
116 7 15 576 548 633 136 528 300 
117 7 465 145 658 282 108 609 302 
118 7 392 507 397 556 719 474 317 
119 7 489 193 607 387 82 225 675 
120 7 224 194 233 132 581 691 562 
121 7 414 377 256 316 291 714 489 
122 7 462 506 249 642 525 303 273 
123 7 504 128 98 184 656 178 7 
124 7 553 530 646 273 642 37 667 
125 7 589 421 400 180 313 146 398 
126 7 373 575 640 335 46 302 112 
127 7 510 500 71 199 712 298 158 
128 7 504 123 320 98 656 184 178 
129 7 637 563 201 286 536 547 293 
130 7 26 24 671 21 89 408 93 
131 7 410 416 546 657 182 190 479 
132 7 691 40 194 562 120 264 224 
133 7 50 675 259 236 446 607 342 
134 7 430 711 385 228 248 498 160 
135 7 59 588 650 276 655 661 278 
136 7 300 573 528 576 116 253 15 
137 7 353 468 115 69 639 547 436 
138 7 76 664 17 25 385 626 571 
139 7 550 231 157 12 332 453 444 
140 7 707 595 428 290 365 498 81 
141 7 188 497 697 232 654 417 359 
142 7 596 328 447 481 443 541 14 
143 7 202 285 341 154 314 164 651 
144 7 61 580 189 186 419 226 390 
145 7 465 117 108 658 282 302 67 
146 7 400 589 421 376 180 56 125 
147 7 482 221 241 110 20 686 288 
148 7 115 486 632 353 468 639 137 
149 7 91 669 454 389 296 304 53 
150 7 559 533 207 52 165 366 171 
151 7 317 673 599 397 507 635 283 
152 7 620 617 200 426 695 266 218 
153 7 313 629 398 352 549 603 125 
154 7 202 170 554 143 246 314 2 
155 7 529 38 582 660 113 294 446 
156 7 351 615 255 672 614 42 520 
157 7 332 550 139 231 453 12 83 
158 7 298 631 584 555 55 199 71 
159 7 369 238 110 413 482 221 215 
160 7 409 711 248 44 677 385 382 
161 7 437 214 348 520 645 363 614 
162 7 486 280 281 261 632 527 148 
163 7 181 323 475 13 379 577 245 
164 7 439 641 483 467 651 341 143 
165 7 171 52 150 207 627 533 559 
166 7 64 263 333 403 257 718 505 
167 7 268 261 281 432 681 275 315 
168 7 649 499 417 697 279 497 141 
169 7 587 329 611 354 538 405 469 
170 7 554 154 246 202 423 2 90 
171 7 52 165 207 150 434 627 533 
172 7 381 698 688 252 51 126 442 
173 7 78 572 449 670 33 491 545 
174 7 386 478 340 496 49 528 566 
175 7 672 645 351 214 42 156 437 
176 7 250 66 317 151 635 599 601 
177 7 234 346 319 429 402 208 535 
178 7 184 7 504 123 326 485 128 
179 7 526 561 401 378 267 5 240 
180 7 589 146 421 191 358 125 400 
181 7 163 323 379 475 13 30 577 
182 7 190 416 546 715 131 410 657 
183 7 301 634 544 388 540 568 476 
184 7 7 178 123 504 98 128 326 
185 7 463 245 425 445 13 475 666 
186 7 226 458 106 309 112 144 61 
187 7 536 563 228 201 547 637 129 
188 7 141 232 654 497 417 697 669 
189 7 419 390 61 144 689 517 580 
190 7 182 546 715 416 131 410 657 
191 7 358 53 512 239 636 96 296 
192 7 712 500 127 364 422 597 510 
193 7 489 119 82 95 295 607 455 
194 7 120 224 132 562 691 233 581 
195 7 270 9 638 461 534 509 395 
196 7 345 479 77 412 657 623 94 
197 7 685 577 374 518 630 605 324 
198 7 238 110 159 369 221 482 147 
199 7 127 298 158 555 55 35 310 
200 7 426 218 617 152 620 584 55 
201 7 547 563 187 129 536 637 69 
202 7 154 143 170 554 285 651 314 
203 7 680 622 687 103 488 58 606 
204 7 517 570 390 419 189 548 633 
205 7 557 341 441 285 143 314 164 
206 7 569 516 505 459 262 676 257 
207 7 533 559 52 366 150 165 171 
208 7 57 234 375 177 48 242 6 
209 6 710 674 480 593 424 363 
210 5 502 51 456 702 424 
211 7 322 376 146 400 481 716 421 
212 7 628 39 271 476 568 700 703 
213 7 70 339 566 114 344 260 27 
214 7 645 437 363 161 175 520 672 
215 7 720 420 471 292 413 369 159 
216 7 438 484 357 579 412 452 77 
217 7 2 314 423 699 285 154 170 
218 7 200 426 55 584 555 617 620 
219 7 433 683 362 515 243 618 480 
220 7 311 395 648 461 610 625 9 
221 7 147 482 110 241 159 238 686 
222 7 658 609 252 282 117 688 465 
223 7 705 233 408 24 671 690 89 
224 7 120 194 233 581 132 691 562 
225 7 415 236 4 387 50 675 133 
226 7 186 106 309 458 112 144 364 
227 7 466 88 97 54 494 272 80 
228 7 365 187 244 536 707 140 563 
229 7 240 28 401 171 434 267 561 
230 7 102 542 411 109 540 544 251 
231 7 139 550 12 444 157 332 453 
232 7 654 188 141 417 96 669 239 
233 7 223 581 224 120 705 194 89 
234 7 177 346 208 319 375 57 429 
235 7 532 254 659 717 531 30 463 
236 7 415 225 50 133 342 675 4 
237 7 436 644 583 552 299 537 701 
238 7 159 110 369 198 221 482 413 
239 7 96 296 191 53 512 91 358 
240 7 28 229 401 526 561 179 267 
241 7 482 147 20 292 221 60 288 
242 7 294 660 38 342 529 446 208 
243 7 515 683 442 362 616 219 618 
244 7 365 681 228 140 187 69 547 
245 7 425 185 13 463 445 475 399 
246 7 170 554 423 90 105 154 344 
247 7 325 370 521 715 624 308 477 
248 7 44 409 679 160 677 464 134 
249 7 462 506 122 525 354 680 329 
250 7 176 66 317 151 277 635 599 
251 7 109 230 102 684 542 411 10 
252 7 688 222 282 381 658 698 172 
253 7 418 454 603 136 300 573 304 
254 7 532 235 717 659 531 30 463 
255 7 615 156 351 672 42 349 614 
256 7 316 377 714 291 121 207 366 
257 7 718 333 505 569 166 206 64 
258 7 36 440 107 523 572 65 670 
259 7 133 446 50 582 342 675 236 
260 7 27 114 566 478 213 70 174 
261 7 281 162 167 280 45 275 486 
262 7 516 676 459 662 206 431 569 
263 7 64 166 403 333 505 389 569 
264 7 625 564 40 648 132 691 338 
265 7 678 32 34 531 472 514 524 
266 7 81 621 290 694 428 695 595 
267 7 427 561 179 526 434 602 229 
268 7 167 503 315 261 432 681 281 
269 7 610 461 395 220 311 648 305 
270 7 9 195 461 534 395 311 220 
271 7 700 476 628 568 212 388 39 
272 7 88 583 552 286 293 227 299 
273 7 642 124 553 530 612 646 37 
274 7 604 451 392 16 457 677 330 
275 7 45 407 99 280 281 396 261 
276 7 59 650 135 588 661 278 655 
277 7 378 8 5 66 250 556 176 
278 7 661 276 352 650 59 135 549 
279 7 499 391 477 18 521 370 168 
280 7 162 45 527 275 281 407 261 
281 7 261 162 280 45 275 407 486 
282 7 658 302 117 465 108 145 222 
283 7 514 472 599 635 673 297 151 
284 7 580 46 640 67 61 575 144 
285 7 314 143 217 341 2 202 154 
286 7 293 272 129 88 637 583 552 
287 7 89 513 693 560 130 21 24 
288 7 686 20 241 147 482 221 450 
289 7 101 665 695 682 694 621 81 
290 7 595 428 81 140 266 707 498 
291 7 714 377 256 28 121 316 414 
292 7 420 215 471 241 60 720 93 
293 7 286 88 272 129 227 637 466 
294 7 660 242 342 446 38 529 582 
295 7 95 82 455 607 193 489 119 
296 7 96 53 91 239 512 669 191 
297 7 474 673 283 97 514 80 599 
298 7 158 631 555 584 55 199 71 
299 7 644 552 583 237 54 272 537 
300 7 573 528 136 576 383 86 253 
301 7 634 183 544 540 647 388 568 
302 7 108 282 335 465 658 67 117 
303 7 406 87 511 411 684 122 462 
304 7 337 31 306 111 551 149 454 
305 7 610 113 269 564 648 625 40 
306 7 111 31 337 304 551 149 383 
307 7 315 432 655 588 135 59 650 
308 7 624 448 578 47 591 473 370 
309 7 106 226 186 422 144 390 61 
310 7 574 35 199 597 364 712 616 
311 7 220 395 648 461 610 625 9 
312 7 523 107 36 258 450 440 626 
313 7 153 629 398 125 653 549 367 
314 7 285 2 217 143 154 202 170 
315 7 307 432 71 268 655 510 167 
316 7 256 377 714 207 366 121 291 
317 7 151 673 397 507 599 250 176 
318 7 636 358 512 53 191 603 180 
319 6 346 429 177 234 535 356 
320 7 413 128 501 504 369 123 720 
321 7 402 535 380 48 6 62 429 
322 7 211 376 56 146 400 481 421 
323 7 379 181 30 34 163 475 531 
324 7 630 41 605 685 577 197 667 
325 7 247 370 521 715 624 308 47 
326 7 485 348 692 178 501 7 184 
327 7 646 667 553 124 3 73 612 
328 7 142 596 481 14 447 443 148 
329 7 169 354 587 525 611 709 249 
330 6 598 604 457 585 677 274 
331 6 613 543 72 355 495 42 
332 7 157 550 139 453 519 83 231 
333 7 718 64 166 257 263 519 403 
334 7 399 73 13 3 425 245 445 
335 7 46 302 67 108 126 373 282 
336 7 671 408 690 24 25 705 571 
337 7 304 31 306 111 551 454 149 
338 7 311 220 264 648 625 581 395 
339 7 70 213 699 344 423 566 105 
340 7 49 386 496 174 86 383 528 
341 7 205 143 441 557 285 164 202 
342 7 294 446 660 582 242 236 50 
343 7 663 525 354 709 329 249 87 
344 7 105 90 246 70 339 423 699 
345 7 196 479 657 77 623 94 412 
346 6 319 177 234 429 356 150 
347 3 361 567 84 
348 7 485 326 520 161 614 501 692 
349 7 615 255 614 156 351 520 672 
350 7 592 508 68 100 689 590 565 
351 7 672 156 255 42 615 175 614 
352 7 549 661 396 278 153 629 398 
353 7 137 468 115 69 639 148 632 
354 7 329 525 169 587 343 709 249 
355 7 613 331 543 42 72 255 351 
356 6 600 627 368 434 165 319 
357 6 579 438 216 484 452 541 
358 7 636 191 318 512 53 180 239 
359 7 708 697 497 569 206 505 141 
360 4 518 374 85 701 
361 3 347 593 84 
362 7 683 515 243 618 219 616 78 
363 7 645 214 480 437 433 175 161 
364 7 597 192 712 226 310 112 186 
365 7 228 140 244 707 595 187 428 
366 7 533 207 387 559 4 150 375 
367 7 653 716 398 629 125 421 589 
368 7 627 600 434 356 427 602 267 
369 7 159 238 110 413 215 320 482 
370 7 521 477 47 18 325 473 247 
371 7 405 591 578 43 448 587 473 
372 7 422 493 309 106 390 570 633 
373 7 575 126 640 46 335 580 112 
374 4 518 360 685 197 
375 7 57 208 559 4 533 234 366 
376 7 56 146 211 400 322 421 589 
377 7 121 256 316 714 414 291 489 
378 7 5 277 8 561 179 526 267 
379 7 323 30 34 181 531 475 163 
380 7 535 321 402 429 62 384 177 
381 7 172 698 688 252 126 51 282 
382 7 585 571 160 409 384 598 138 
383 7 86 551 49 340 573 111 528 
384 7 62 585 380 535 321 120 402 
385 7 711 682 430 665 289 17 101 
386 7 496 340 49 174 90 105 86 
387 7 4 366 225 415 119 533 207 
388 7 476 568 634 183 271 700 301 
389 7 403 669 91 149 263 64 166 
390 7 419 189 61 144 517 204 309 
391 7 18 477 521 104 279 470 668 
392 7 118 451 274 556 16 507 602 
393 7 90 619 554 496 105 492 49 
394 4 702 456 567 84 
395 7 461 220 311 9 610 269 270 
396 7 549 352 99 661 655 407 650 
397 7 507 556 317 151 118 673 474 
398 7 629 653 313 367 125 153 549 
399 7 334 73 3 13 425 245 445 
400 7 421 146 589 125 376 180 716 
401 7 240 526 179 561 28 229 267 
402 7 321 535 380 48 6 177 429 
403 7 64 389 263 166 333 519 718 
404 7 464 679 16 719 293 44 466 
405 7 371 587 591 169 538 578 469 
406 7 303 87 411 511 684 102 542 
407 7 275 45 99 280 396 281 549 
408 7 671 24 336 89 690 705 223 
409 7 160 677 44 248 457 382 679 
410 7 131 416 182 546 190 657 345 
411 7 542 102 230 406 19 303 109 
412 7 77 606 488 196 623 103 484 
413 7 369 720 215 320 159 420 110 
414 7 121 377 63 489 193 119 455 
415 7 225 236 4 387 50 675 133 
416 7 182 546 190 131 410 715 657 
417 7 649 654 232 696 188 141 168 
418 7 253 454 603 304 337 31 149 
419 7 189 390 61 144 517 689 204 
420 7 292 471 215 720 60 241 560 
421 7 589 400 146 125 180 716 367 
422 7 372 493 106 309 192 712 226 
423 7 699 2 217 246 170 154 344 
424 2 51 210 
425 7 245 185 13 445 463 475 334 
426 7 200 218 584 617 152 620 55 
427 7 267 602 368 434 627 561 378 
428 7 595 290 707 498 81 140 266 
429 6 319 177 346 535 380 402 
430 7 134 711 498 385 694 665 289 
431 7 662 459 22 676 516 262 206 
432 7 307 655 315 99 396 588 167 
433 7 219 363 480 618 214 645 362 
434 7 627 368 356 600 165 171 267 
435 7 83 453 29 519 619 332 157 
436 7 237 639 137 353 583 272 552 
437 7 214 645 161 363 520 175 672 
438 7 216 357 579 443 541 484 412 
439 7 483 164 467 651 641 706 231 
440 7 36 107 258 65 670 523 312 
441 7 205 341 557 641 164 143 439 
442 7 243 515 683 362 616 219 172 
443 7 541 438 447 357 216 579 142 
444 7 12 231 139 550 467 157 332 
445 7 425 185 666 463 245 11 703 
446 7 582 342 259 294 660 50 133 
447 7 596 541 142 443 328 639 438 
448 7 578 308 624 591 538 469 47 
449 7 173 670 78 35 572 574 616 
450 7 626 288 686 312 20 25 523 
451 5 392 274 604 330 602 
452 5 643 484 579 216 58 
453 7 550 83 157 435 332 139 29 
454 7 418 149 253 304 603 337 31 
455 7 95 295 63 82 193 489 414 
456 4 702 210 394 502 
457 7 677 598 604 330 274 409 44 
458 7 112 186 226 575 640 144 373 
459 7 676 516 662 262 431 206 22 
460 7 708 499 279 168 359 391 104 
461 7 395 9 220 311 270 610 269 
462 7 122 506 249 525 303 642 680 
463 7 185 245 425 445 13 475 666 
464 7 404 679 16 44 248 637 293 
465 7 117 145 658 282 108 302 609 
466 7 97 227 88 494 54 80 293 
467 7 483 439 164 231 641 444 651 
468 7 69 353 137 115 632 148 547 
469 7 538 611 94 448 169 587 479 
470 7 43 668 473 18 47 477 521 
471 7 420 215 292 720 560 21 60 
472 7 514 283 635 599 32 673 265 
473 7 47 470 43 521 668 18 370 
474 7 297 673 151 719 118 97 317 
475 7 13 245 181 163 185 425 379 
476 7 271 568 700 388 628 212 634 
477 7 18 521 391 370 470 47 279 
478 7 174 566 27 260 386 496 340 
479 7 345 657 196 94 131 623 546 
480 7 363 209 710 433 674 219 645 
481 7 14 328 211 527 142 322 716 
482 7 147 221 241 110 20 292 159 
483 7 439 467 651 164 706 231 550 
484 6 216 452 606 579 412 438 
485 7 326 348 692 178 501 7 520 
486 7 162 632 148 115 281 261 280 
487 7 558 495 522 72 543 84 567 
488 7 103 687 606 622 623 77 412 
489 7 193 119 82 607 95 295 414 
490 5 701 537 360 644 237 
491 7 545 33 572 539 173 78 618 
492 7 29 706 453 619 651 435 83 
493 7 372 422 75 704 586 192 500 
494 7 80 54 97 227 466 88 297 
495 7 72 543 558 331 487 522 613 
496 7 386 340 49 174 90 105 393 
497 7 697 141 188 359 232 417 654 
498 7 428 694 707 81 621 595 290 
499 7 168 279 649 391 477 460 521 
500 7 510 127 71 712 192 199 298 
501 7 320 485 348 326 128 504 178 
502 5 210 51 456 702 424 
503 7 652 290 266 81 595 428 268 
504 7 128 123 98 184 178 320 656 
505 7 569 206 257 166 263 64 333 
506 7 122 462 249 525 642 680 203 
507 7 397 556 317 118 151 673 474 
508 7 68 350 100 592 689 590 565 
509 7 638 534 79 195 270 656 9 
510 7 71 500 127 298 158 631 712 
511 7 87 684 303 406 663 343 411 
512 7 53 636 191 358 296 318 96 
513 7 79 287 693 534 560 338 21 
514 7 283 472 635 599 32 673 297 
515 7 683 243 362 616 442 219 618 
516 7 262 676 459 662 206 431 569 
517 7 204 419 390 189 570 689 68 
518 5 374 360 197 685 74 
519 7 83 332 333 435 718 157 64 
520 7 614 348 615 156 161 351 437 
521 7 477 370 18 391 47 470 473 
522 7 84 567 495 72 394 347 487 
523 7 312 36 107 258 440 65 450 
524 7 601 32 265 472 678 635 713 
525 7 343 354 249 663 462 329 122 
526 7 179 561 401 378 5 267 240 
527 7 14 280 716 367 162 481 653 
528 7 300 573 136 576 383 340 49 
529 7 38 155 660 113 242 294 582 
530 7 37 553 124 642 667 273 646 
531 7 30 34 678 717 659 379 532 
532 7 254 235 659 717 531 30 678 
533 7 559 207 150 366 52 375 4 
534 7 79 638 270 509 9 195 513 
535 7 380 321 402 429 62 177 319 
536 7 563 187 637 201 129 228 547 
537 6 701 490 644 237 299 360 
538 7 469 611 94 448 169 587 578 
539 7 491 545 33 572 258 36 686 
540 7 544 183 10 301 647 230 634 
541 7 443 447 438 357 579 216 142 
542 7 102 411 230 109 19 406 544 
543 7 331 72 495 613 355 558 487 
544 7 540 183 301 10 230 647 634 
545 7 33 491 572 539 618 78 173 
546 7 416 182 190 131 715 657 410 
547 7 201 563 129 187 69 137 536 
548 7 633 15 116 570 204 576 517 
549 7 352 396 629 398 153 661 99 
550 7 139 231 157 453 332 12 444 
551 7 111 31 306 337 383 86 304 
552 7 583 299 644 272 237 54 88 
553 7 124 646 530 667 37 327 273 
554 7 170 154 246 202 90 393 105 
555 7 55 584 158 298 218 199 631 
556 7 397 507 118 602 392 317 277 
557 7 205 341 441 285 143 314 164 
558 7 487 495 72 543 522 331 84 
559 7 533 150 207 366 52 375 165 
560 7 21 693 93 60 26 420 292 
561 7 179 526 401 267 378 5 240 
562 7 691 132 194 6 40 120 48 
563 7 536 637 129 187 201 547 228 
564 7 625 264 648 40 220 610 311 
565 7 590 92 689 67 592 145 350 
566 7 27 478 260 114 70 213 174 
567 6 84 522 347 361 394 72 
568 7 476 388 634 628 271 212 700 
569 7 505 206 257 516 459 166 262 
570 7 204 548 633 517 372 116 15 
571 7 690 705 336 25 671 408 223 
572 7 173 33 491 78 545 258 449 
573 7 300 528 136 576 383 86 253 
574 7 310 616 35 449 597 364 78 
575 7 640 373 126 46 580 458 112 
576 7 15 116 136 528 300 573 174 
577 7 197 630 685 324 74 163 518 
578 7 591 448 624 308 473 47 371 
579 6 357 216 438 452 484 643 
580 7 284 61 640 144 575 46 373 
581 7 233 224 223 120 264 338 194 
582 7 446 259 342 660 294 155 529 
583 7 552 299 644 272 237 88 54 
584 7 55 555 158 298 426 631 218 
585 7 382 384 598 62 330 571 409 
586 7 75 704 59 135 23 588 276 
587 7 169 329 354 405 611 538 469 
588 7 135 59 650 655 276 661 278 
589 7 421 400 146 125 180 716 376 
590 7 565 92 689 592 350 508 68 
591 7 578 448 371 473 624 308 47 
592 7 350 508 68 100 590 689 565 
593 6 674 710 361 347 175 209 
594 3 605 643 41 
595 7 290 428 140 707 81 498 266 
596 7 142 328 447 541 14 481 148 
597 7 364 310 226 112 712 192 458 
598 6 330 457 604 585 677 274 
599 7 635 283 472 673 514 151 317 
600 6 356 368 627 434 165 319 
601 7 524 32 635 472 713 176 265 
602 7 427 556 267 368 434 600 627 
603 7 153 318 636 454 418 253 313 
604 6 330 457 598 274 451 677 
605 5 594 685 41 324 630 
606 7 488 412 77 103 58 484 687 
607 7 675 82 295 95 119 193 489 
608 7 85 74 80 34 323 494 54 
609 7 117 658 222 465 145 282 108 
610 7 269 395 220 648 311 461 625 
611 7 469 94 538 169 587 623 329 
612 7 19 646 273 3 124 327 700 
613 6 331 355 543 72 42 495 
614 7 520 615 156 255 349 351 672 
615 7 156 255 351 614 349 672 520 
616 7 574 515 362 683 243 78 442 
617 7 620 152 200 426 218 65 695 
618 7 362 78 33 683 545 515 219 
619 7 29 435 492 83 393 86 453 
620 7 617 152 200 426 695 218 65 
621 7 694 81 695 101 289 266 665 
622 7 687 203 103 488 680 606 58 
623 7 103 488 77 412 94 196 687 
624 7 308 448 578 47 591 473 370 
625 7 648 564 264 220 311 40 610 
626 7 450 25 288 686 312 664 20 
627 7 434 368 356 600 165 171 427 
628 7 212 271 476 700 568 39 388 
629 7 398 313 653 153 367 549 125 
630 7 324 685 605 41 577 197 667 
631 7 158 298 584 652 71 555 55 
632 7 468 486 69 115 148 353 681 
633 7 548 570 116 15 704 204 372 
634 7 301 183 568 388 476 544 540 
635 7 599 472 283 514 673 151 32 
636 7 318 358 512 53 191 296 239 
637 7 129 563 536 187 201 286 293 
638 7 509 534 79 195 270 9 656 
639 7 353 115 137 436 148 468 447 
640 7 575 373 580 46 126 284 458 
641 7 164 439 467 441 483 341 651 
642 7 273 124 530 553 37 122 506 
643 4 452 594 484 58 
644 7 299 552 583 237 537 701 272 
645 7 214 437 363 175 161 480 672 
646 7 327 553 124 667 612 3 530 
647 7 10 301 540 544 183 634 230 
648 7 625 220 311 564 610 264 395 
649 7 168 499 417 697 279 696 141 
650 7 59 135 588 276 655 661 278 
651 7 706 483 439 492 164 202 29 
652 7 503 631 426 584 266 158 152 
653 7 367 398 629 125 716 313 421 
654 7 232 188 417 141 96 239 669 
655 7 588 650 135 59 432 396 276 
656 7 98 128 123 504 720 320 509 
657 7 479 345 131 546 196 416 94 
658 7 282 117 465 302 145 222 609 
659 7 717 532 254 235 531 30 678 
660 7 294 242 38 529 342 582 446 
661 7 278 276 650 352 59 135 396 
662 7 676 459 431 516 262 22 206 
663 7 343 525 709 354 87 511 249 
664 7 138 76 17 626 25 450 312 
665 7 289 101 682 695 694 621 498 
666 7 11 703 445 39 425 185 463 
667 7 327 553 646 41 37 124 530 
668 7 43 470 104 18 473 391 47 
669 7 91 296 96 389 149 239 232 
670 7 449 173 35 440 572 258 78 
671 7 408 24 336 690 89 705 25 
672 7 351 156 42 255 615 175 614 
673 7 151 599 317 283 635 297 474 
674 6 710 209 593 480 424 175 
675 7 50 133 607 236 415 225 259 
676 7 459 516 262 662 431 206 22 
677 7 457 44 409 248 679 598 160 
678 7 265 34 531 30 32 659 717 
679 7 464 44 404 248 16 677 409 
680 7 203 622 687 103 488 623 249 
681 7 244 69 632 261 468 167 281 
682 7 665 101 289 695 17 694 621 
683 7 362 515 243 618 219 616 442 
684 7 511 87 406 109 303 251 411 
685 6 197 605 630 374 324 577 
686 7 288 20 147 241 482 221 450 
687 7 622 103 203 488 680 606 623 
688 7 252 381 282 658 222 172 698 
689 7 508 68 590 350 189 419 565 
690 7 705 336 408 671 571 24 25 
691 7 132 562 40 194 264 120 224 
692 7 326 485 178 7 348 614 349 
693 7 560 21 93 60 26 287 130 
694 7 621 101 289 81 695 665 498 
695 7 101 289 621 665 694 682 81 
696 7 417 56 654 232 649 239 376 
697 7 497 141 359 188 168 708 417 
698 7 172 381 688 252 51 502 210 
699 7 423 2 217 246 339 170 344 
700 7 271 476 628 388 568 212 3 
701 6 537 490 644 237 299 360 
702 3 456 394 210 
703 7 666 11 39 445 212 628 425 
704 7 586 75 23 493 59 135 588 
705 7 690 223 336 571 408 671 24 
706 7 492 651 29 483 453 439 550 
707 7 140 428 595 498 290 365 81 
708 7 359 697 460 497 168 206 569 
709 7 343 354 329 587 663 525 169 
710 5 674 209 593 480 424 
711 7 134 430 385 160 248 409 665 
712 7 192 127 500 364 510 199 597 
713 7 66 601 176 250 8 524 5 
714 7 291 256 316 377 28 121 52 
715 7 190 182 546 416 325 247 308 
716 7 367 400 421 653 589 146 527 
717 7 659 532 254 235 531 30 678 
718 7 333 257 166 64 519 505 332 
719 7 16 404 118 474 466 97 392 
720 7 215 471 413 420 292 656 320 
DEPOT_SECTION
   1
   -1
EOF
