NAME :  X-n783-kX-w78-c9.cctp
COMMENT : 	Adapted by Maziero, Usberti and Cavellucci from the Uchoa, Pecin, Pessoa, Poggi, Subramanian, and Vidal (2013)
TYPE :  CCTP
DIMENSION :    501
EDGE_WEIGHT_TYPE : 	EUC_2D	
CAPACITY : 	832
VERTICES_WITHIN_COVERAGE :  9
VERTICES_WITH_DEMAND : 	78
NODE_COORD_SECTION
1 909 919
2 878 721
3 969 85
4 591 195
5 955 148
6 587 903
7 994 792
8 625 129
9 544 703
10 461 167
11 37 644
12 615 22
13 773 788
14 384 364
15 51 291
16 109 732
17 570 124
18 692 985
19 62 150
20 358 5
21 188 450
22 674 658
23 676 904
24 815 984
25 710 16
26 74 658
27 576 1000
28 636 695
29 547 92
30 587 397
31 26 150
32 182 561
33 938 462
34 362 928
35 366 835
36 516 892
37 448 923
38 501 445
39 513 799
40 905 388
41 474 791
42 560 782
43 465 552
44 315 645
45 738 396
46 45 915
47 797 871
48 922 643
49 793 586
50 921 458
51 160 295
52 598 257
53 516 221
54 99 169
55 788 634
56 425 751
57 616 680
58 949 444
59 987 459
60 182 279
61 127 354
62 791 822
63 645 609
64 857 386
65 917 154
66 398 480
67 729 688
68 134 510
69 172 2
70 499 737
71 780 565
72 908 477
73 917 341
74 272 553
75 421 876
76 770 2
77 497 623
78 853 27
79 853 521
80 519 196
81 827 901
82 656 56
83 732 55
84 772 748
85 884 973
86 158 430
87 563 13
88 50 959
89 609 223
90 628 860
91 441 479
92 95 246
93 307 893
94 830 30
95 44 339
96 885 644
97 850 732
98 55 954
99 467 494
100 659 564
101 881 18
102 781 654
103 490 806
104 823 569
105 878 496
106 441 898
107 17 749
108 164 778
109 258 488
110 437 866
111 725 988
112 447 517
113 316 80
114 743 575
115 555 373
116 84 140
117 341 827
118 397 932
119 892 37
120 74 227
121 911 617
122 668 697
123 1 96
124 223 299
125 637 118
126 622 958
127 157 190
128 100 192
129 23 228
130 110 163
131 345 464
132 53 628
133 112 361
134 642 405
135 235 578
136 489 621
137 563 916
138 597 310
139 960 837
140 648 247
141 375 402
142 531 205
143 935 676
144 103 549
145 964 651
146 233 241
147 891 112
148 378 472
149 457 893
150 852 861
151 113 701
152 340 913
153 662 198
154 667 718
155 140 332
156 809 908
157 59 136
158 529 215
159 385 380
160 138 787
161 473 713
162 537 114
163 774 825
164 16 935
165 60 733
166 343 363
167 205 398
168 840 359
169 865 775
170 893 516
171 814 607
172 605 162
173 16 739
174 482 214
175 70 526
176 528 103
177 572 770
178 802 517
179 876 469
180 952 781
181 823 795
182 522 595
183 52 336
184 956 21
185 766 880
186 524 825
187 657 640
188 189 232
189 784 692
190 743 446
191 201 32
192 380 904
193 227 263
194 341 341
195 450 482
196 251 533
197 724 967
198 753 539
199 684 924
200 617 989
201 455 500
202 472 926
203 167 357
204 789 678
205 991 492
206 457 837
207 809 754
208 770 852
209 147 318
210 85 634
211 312 527
212 846 684
213 806 813
214 566 172
215 191 307
216 906 762
217 579 597
218 718 33
219 114 156
220 986 791
221 78 292
222 559 896
223 791 579
224 856 201
225 155 8
226 48 593
227 954 72
228 2 686
229 301 649
230 810 8
231 984 28
232 918 370
233 586 337
234 151 693
235 550 217
236 606 719
237 178 588
238 434 358
239 136 341
240 544 174
241 282 685
242 460 557
243 86 722
244 707 652
245 735 359
246 462 414
247 49 853
248 750 829
249 581 819
250 49 715
251 917 652
252 530 838
253 403 43
254 393 11
255 646 369
256 37 206
257 122 294
258 451 649
259 993 339
260 604 580
261 274 509
262 728 595
263 952 690
264 989 745
265 966 296
266 478 854
267 394 459
268 39 967
269 537 957
270 740 958
271 544 247
272 38 939
273 839 23
274 754 893
275 930 149
276 430 951
277 739 15
278 104 669
279 645 128
280 500 603
281 577 997
282 146 161
283 662 708
284 622 159
285 166 281
286 897 132
287 965 334
288 127 729
289 522 569
290 127 378
291 747 419
292 838 961
293 391 886
294 484 126
295 828 28
296 954 279
297 930 285
298 750 567
299 921 125
300 440 878
301 720 914
302 606 394
303 471 928
304 511 594
305 867 996
306 417 918
307 554 923
308 101 132
309 110 652
310 891 336
311 661 893
312 15 879
313 527 56
314 481 860
315 709 388
316 105 381
317 603 51
318 582 48
319 591 850
320 354 660
321 530 386
322 859 502
323 826 779
324 86 854
325 923 289
326 771 629
327 983 321
328 550 820
329 80 276
330 676 601
331 129 319
332 490 220
333 553 110
334 935 660
335 830 469
336 539 52
337 278 487
338 637 548
339 674 905
340 823 923
341 999 837
342 82 851
343 969 38
344 693 895
345 710 695
346 390 537
347 837 407
348 618 221
349 487 708
350 434 776
351 153 438
352 564 929
353 541 777
354 202 468
355 432 949
356 413 752
357 719 52
358 543 161
359 112 459
360 70 782
361 488 540
362 814 887
363 679 989
364 159 535
365 180 610
366 155 207
367 424 341
368 829 839
369 828 485
370 579 290
371 621 918
372 609 789
373 184 475
374 182 513
375 601 785
376 482 409
377 587 627
378 653 648
379 552 862
380 804 553
381 12 198
382 749 551
383 651 13
384 731 963
385 219 275
386 714 734
387 560 470
388 837 631
389 4 304
390 79 917
391 355 877
392 745 354
393 621 723
394 145 377
395 119 768
396 638 271
397 574 247
398 924 493
399 924 402
400 91 336
401 599 6
402 635 887
403 660 944
404 186 35
405 679 861
406 919 121
407 822 482
408 151 384
409 407 860
410 928 75
411 625 969
412 123 311
413 404 744
414 216 14
415 906 567
416 719 567
417 564 906
418 344 833
419 726 657
420 39 94
421 18 167
422 396 368
423 416 570
424 561 229
425 144 320
426 971 672
427 44 186
428 924 415
429 782 427
430 853 704
431 468 127
432 464 700
433 610 428
434 257 608
435 980 789
436 762 527
437 50 710
438 978 624
439 775 736
440 551 199
441 416 970
442 630 871
443 926 116
444 959 178
445 244 56
446 28 579
447 342 15
448 533 943
449 556 836
450 777 841
451 340 957
452 138 690
453 895 564
454 788 509
455 892 692
456 881 293
457 1 227
458 935 348
459 527 995
460 487 506
461 405 978
462 557 620
463 966 509
464 571 996
465 214 405
466 734 399
467 69 747
468 589 624
469 936 678
470 84 652
471 600 19
472 33 90
473 717 960
474 360 458
475 204 29
476 602 46
477 707 678
478 884 598
479 401 345
480 453 130
481 587 936
482 169 316
483 428 772
484 461 415
485 61 305
486 435 146
487 637 547
488 620 2
489 973 397
490 147 381
491 452 610
492 963 618
493 785 845
494 900 613
495 668 101
496 445 170
497 57 176
498 373 307
499 365 297
500 765 916
501 387 877
DEMAND_SECTION
2 85
3 34
4 47
5 49
6 75
7 87
8 13
9 92
10 85
11 3
12 18
13 87
14 96
15 72
16 38
17 5
18 59
19 75
20 81
21 68
22 99
23 66
24 67
25 33
26 30
27 73
28 61
29 18
30 37
31 81
32 36
33 17
34 31
35 25
36 85
37 12
38 44
39 60
40 5
41 23
42 58
43 29
44 9
45 13
46 1
47 100
48 88
49 53
50 30
51 66
52 47
53 35
54 55
55 83
56 20
57 84
58 36
59 50
60 76
61 70
62 80
63 79
64 44
65 26
66 60
67 80
68 40
69 60
70 46
71 62
72 50
73 32
74 18
75 3
76 16
77 30
78 4
79 68
COVERAGE_SECTION
2 6 97 430 455 212 216 169 
3 8 227 410 343 443 231 299 406 5 
4 9 89 214 172 348 440 424 235 284 240 
5 9 275 444 65 299 443 406 286 3 147 
6 9 417 137 222 481 352 371 307 402 319 
7 6 220 435 180 341 264 139 
8 8 125 279 284 172 495 17 214 4 
9 9 70 349 236 161 177 353 57 393 432 
10 6 496 486 480 431 294 174 
11 9 132 26 470 210 226 228 446 437 250 
12 9 471 488 401 476 317 383 318 82 87 
13 9 163 62 84 213 248 181 207 439 450 
14 9 422 159 479 141 166 367 194 238 498 
15 9 485 221 329 183 95 389 400 92 120 
16 9 288 243 151 395 467 165 452 234 160 
17 9 333 162 29 358 176 214 172 8 240 
18 9 363 111 473 197 384 403 270 199 411 
19 9 157 116 497 31 427 54 308 421 130 
20 4 447 254 253 113 
21 7 354 373 86 351 465 167 374 
22 9 378 187 244 122 477 283 345 419 28 
23 8 339 311 344 199 403 405 402 301 
24 7 292 305 340 85 156 270 81 
25 6 218 277 357 83 383 76 
26 8 470 210 278 309 132 11 437 151 
27 9 281 464 200 459 269 411 126 481 448 
28 9 57 283 122 393 236 154 378 22 187 
29 7 333 176 162 17 313 336 318 
30 7 302 433 115 134 321 233 255 
31 9 421 19 157 427 497 381 256 420 116 
32 5 237 364 374 365 135 
33 9 50 58 72 398 59 428 463 205 179 
34 9 152 192 118 451 293 391 306 501 93 
35 7 418 117 391 501 409 293 75 
36 9 222 314 379 307 417 137 266 448 202 
37 9 202 303 106 149 306 355 276 300 118 
38 9 376 246 484 99 195 460 387 321 91 
39 9 103 186 353 41 252 328 42 449 70 
40 9 232 399 428 64 73 458 310 489 58 
41 9 103 39 350 206 483 70 186 56 266 
42 9 177 353 328 375 249 372 39 449 186 
43 8 242 361 112 460 423 201 99 289 
44 3 229 320 241 
45 7 466 291 315 245 392 190 429 
46 9 272 390 164 98 88 312 268 247 324 
47 8 362 493 185 208 450 156 81 368 
48 9 251 334 121 143 96 494 469 145 492 
49 9 223 71 171 104 380 298 55 326 114 
50 9 33 72 58 398 428 179 399 105 170 
51 9 285 482 209 60 425 215 257 331 412 
52 9 397 89 370 348 396 424 140 138 271 
53 9 158 142 80 332 235 174 271 440 424 
54 9 130 219 128 116 308 19 497 282 157 
55 9 326 102 171 204 49 388 223 189 419 
56 7 356 483 413 350 161 41 432 
57 9 28 236 393 378 283 122 187 377 22 
58 9 33 50 428 59 399 72 489 398 205 
59 9 205 58 33 463 489 50 398 428 72 
60 9 285 51 215 385 482 124 188 193 209 
61 9 239 133 290 155 394 490 316 331 408 
62 9 163 213 450 493 208 13 181 248 368 
63 9 330 187 378 100 260 22 468 377 338 
64 8 347 168 40 310 232 399 428 73 
65 8 275 299 286 406 5 443 444 147 
66 9 267 148 91 474 195 131 346 201 112 
67 9 345 477 419 244 386 189 204 102 122 
68 7 364 374 144 359 373 175 32 
69 6 225 404 191 475 414 445 
70 9 349 161 432 9 353 41 39 103 56 
71 9 223 49 380 298 382 198 114 436 104 
72 9 50 398 179 33 105 170 58 322 428 
73 9 458 310 232 40 287 325 297 456 399 
74 7 196 261 135 211 434 109 337 
75 9 110 300 409 106 293 501 149 306 192 
76 8 277 230 218 25 295 83 94 357 
77 8 136 280 304 182 491 258 289 462 
78 6 273 94 295 101 119 230 
79 9 322 105 170 369 407 178 104 179 335 
80 9 142 158 53 440 240 235 332 174 358 
81 7 156 362 340 47 150 292 368 
82 7 383 495 12 317 476 357 125 
83 4 357 218 277 25 
84 8 439 207 13 189 386 323 181 204 
85 3 305 292 24 
86 6 351 21 408 490 373 359 
87 7 401 471 318 336 476 12 317 
88 6 98 268 272 164 46 390 
89 9 348 4 52 397 140 424 396 153 235 
90 8 442 402 319 311 405 371 6 249 
91 9 195 201 99 112 66 267 460 148 484 
92 9 120 329 221 128 257 15 485 256 412 
93 4 152 391 34 418 
94 7 295 273 78 230 101 119 76 
95 6 183 485 400 15 389 221 
96 9 251 494 48 121 478 455 388 334 212 
97 8 430 2 169 207 212 323 455 216 
98 6 88 268 272 46 164 390 
99 9 201 195 460 91 112 361 43 38 242 
100 8 338 487 330 63 260 416 187 262 
101 8 119 78 273 94 295 230 410 184 
102 8 55 204 326 189 419 171 388 67 
103 9 41 39 186 206 266 252 314 353 328 
104 9 380 49 223 171 71 178 79 388 478 
105 9 322 170 179 79 72 398 369 335 50 
106 9 149 300 37 75 306 110 202 303 293 
107 9 173 165 250 437 467 360 228 243 16 
108 4 160 395 288 16 
109 6 337 261 196 354 74 211 
110 9 300 75 409 106 149 206 266 314 293 
111 9 197 384 473 18 270 363 301 199 403 
112 9 201 99 195 91 43 460 242 361 346 
113 3 447 445 20 
114 9 298 262 382 416 198 71 223 49 436 
115 5 321 30 233 302 138 
116 7 308 19 157 54 219 130 497 
117 4 418 35 391 501 
118 9 306 192 34 276 355 441 293 461 37 
119 8 101 78 410 273 94 295 184 227 
120 9 92 256 128 329 129 427 497 54 221 
121 9 494 48 478 251 96 334 415 492 453 
122 9 283 154 28 22 345 477 378 393 57 
123 6 472 420 31 157 421 19 
124 6 385 215 193 60 482 146 
125 8 279 8 495 284 172 82 17 317 
126 9 411 200 371 403 481 281 27 464 6 
127 7 366 282 188 130 219 128 54 
128 9 54 130 219 120 497 92 116 282 427 
129 9 457 256 381 427 120 421 497 15 92 
130 7 219 54 128 308 116 282 19 
131 5 474 148 267 66 141 
132 8 11 210 226 26 470 446 309 278 
133 8 61 316 290 239 400 394 155 490 
134 4 255 302 433 30 
135 6 434 74 196 32 237 365 
136 9 77 280 304 491 182 258 289 462 242 
137 9 417 307 352 222 6 481 448 269 36 
138 5 370 233 52 396 397 
139 4 341 435 220 7 
140 6 396 348 89 52 153 397 
141 7 159 14 422 166 474 267 479 
142 9 158 80 440 53 235 240 424 271 332 
143 8 469 334 263 251 48 426 145 455 
144 3 175 68 364 
145 9 426 334 438 492 143 469 263 48 251 
146 5 193 385 188 124 60 
147 7 286 406 299 443 65 410 275 
148 7 267 66 474 131 91 346 141 
149 9 106 300 37 110 202 303 75 314 266 
150 7 368 362 81 47 156 213 340 
151 9 452 16 288 278 243 234 309 470 26 
152 8 34 93 391 192 451 293 501 118 
153 7 348 140 284 89 172 4 279 
154 7 283 122 28 393 345 386 477 
155 9 239 425 209 331 61 412 482 203 133 
156 8 81 340 362 47 500 185 274 292 
157 7 19 116 31 497 308 420 421 
158 9 142 53 80 235 440 271 424 332 240 
159 8 14 422 141 479 166 238 367 194 
160 5 395 108 288 16 360 
161 9 349 432 70 56 258 9 356 350 483 
162 9 176 333 29 17 358 294 313 240 336 
163 7 450 62 493 248 208 213 13 
164 8 272 46 268 88 98 312 390 247 
165 9 467 250 437 243 173 107 16 360 151 
166 6 194 14 159 141 422 479 
167 4 465 21 203 408 
168 7 64 347 310 40 456 73 232 
169 6 323 216 97 181 2 207 
170 8 105 322 398 79 72 453 179 415 
171 9 49 388 223 55 104 326 71 380 102 
172 9 284 4 8 214 17 279 125 348 89 
173 9 107 250 165 437 467 228 360 243 16 
174 7 332 53 80 158 142 10 496 
175 2 144 68 
176 8 162 29 333 17 313 294 336 358 
177 9 42 353 375 372 249 328 236 39 393 
178 9 454 380 407 369 436 79 71 198 104 
179 9 105 72 322 50 335 170 369 398 407 
180 3 435 220 7 
181 9 323 213 62 207 368 169 13 163 493 
182 7 304 280 289 77 136 462 217 
183 6 95 485 400 15 221 389 
184 8 343 231 227 410 3 119 101 443 
185 7 274 208 47 500 493 450 362 
186 9 252 328 39 449 103 379 353 266 314 
187 9 378 22 63 330 244 57 122 28 477 
188 8 366 146 60 193 385 127 285 51 
189 8 204 102 439 67 84 55 212 326 
190 4 291 429 466 45 
191 6 475 404 414 69 445 225 
192 9 293 501 34 118 391 306 152 75 409 
193 7 385 146 124 60 188 215 285 
194 8 166 498 14 499 159 479 422 141 
195 9 91 201 99 112 460 66 267 38 484 
196 7 74 261 109 135 337 211 374 
197 9 384 473 270 111 18 363 301 199 500 
198 8 382 436 298 71 114 416 454 380 
199 9 339 23 344 403 301 311 473 197 384 
200 9 411 126 281 27 464 481 363 403 371 
201 9 99 112 195 91 460 361 43 242 66 
202 9 303 37 149 106 355 276 36 306 300 
203 8 394 408 490 239 155 61 482 209 
204 8 189 102 55 326 212 439 67 419 
205 7 463 59 33 58 398 50 72 
206 9 266 314 110 300 103 41 75 409 149 
207 8 323 84 439 181 97 13 213 169 
208 7 450 493 163 185 248 47 62 
209 9 425 155 331 482 239 412 51 257 61 
210 5 470 26 309 132 278 
211 6 261 74 337 196 109 131 
212 8 430 455 97 2 388 96 204 189 
213 9 62 181 163 368 493 323 450 13 208 
214 9 240 358 440 4 172 17 142 235 80 
215 8 482 60 51 124 285 385 209 425 
216 2 169 2 
217 7 468 260 377 462 182 289 63 
218 6 25 357 83 277 76 82 
219 7 130 54 308 282 116 128 19 
220 6 435 7 180 264 341 139 
221 9 329 485 15 257 400 92 412 183 95 
222 9 417 137 307 6 352 379 36 481 448 
223 9 49 71 380 104 171 298 114 382 326 
224 1 65 
225 5 69 404 191 475 414 
226 6 446 132 11 210 470 26 
227 8 3 410 343 184 443 231 406 299 
228 9 437 11 173 250 107 165 26 132 470 
229 4 44 241 320 434 
230 7 295 94 273 76 78 277 101 
231 8 343 184 227 3 410 119 101 443 
232 9 40 458 73 399 310 428 287 489 64 
233 5 138 115 370 30 302 
234 5 452 151 288 278 16 
235 9 424 440 158 142 271 53 80 397 240 
236 9 393 28 57 283 154 177 9 122 375 
237 3 365 32 364 
238 4 367 479 422 14 
239 9 155 61 425 331 209 133 412 203 394 
240 9 358 214 440 80 142 235 158 4 53 
241 2 229 44 
242 8 43 361 112 423 491 201 460 280 
243 9 16 165 467 151 250 437 288 278 395 
244 9 419 477 22 67 345 187 378 122 330 
245 5 392 45 315 466 291 
246 6 484 376 38 238 91 195 
247 7 342 324 312 46 390 360 272 
248 5 163 208 450 493 62 
249 9 449 328 319 375 372 42 177 379 252 
250 9 437 165 243 467 173 107 228 16 26 
251 9 48 334 143 469 96 121 494 145 455 
252 9 186 449 328 379 39 103 249 266 314 
253 2 254 20 
254 3 253 20 447 
255 4 134 302 30 315 
256 9 427 129 381 497 457 120 421 31 19 
257 9 412 331 425 209 51 155 221 285 329 
258 6 491 136 77 432 280 161 
259 8 327 287 265 458 489 296 73 232 
260 8 217 338 468 487 63 377 100 462 
261 5 337 109 196 211 74 
262 9 114 416 298 382 330 326 71 198 244 
263 8 469 143 426 334 145 251 48 455 
264 5 435 220 7 180 263 
265 8 296 327 287 297 325 259 458 73 
266 9 314 206 110 149 300 103 36 186 252 
267 8 66 148 474 131 91 141 195 201 
268 6 88 98 272 164 46 390 
269 9 448 307 352 459 137 464 481 281 27 
270 9 384 197 473 111 301 500 18 199 274 
271 7 424 397 235 158 53 142 440 
272 7 164 88 98 46 268 390 312 
273 7 94 295 78 230 101 119 76 
274 7 185 500 301 208 47 156 450 
275 9 65 5 299 406 443 286 444 147 410 
276 9 355 441 37 306 461 118 303 202 106 
277 6 218 25 76 83 357 230 
278 7 309 470 26 151 210 452 234 
279 7 125 8 495 284 172 153 82 
280 7 304 77 136 182 289 491 462 
281 9 27 464 200 459 411 269 126 481 352 
282 5 127 219 130 366 54 
283 8 154 122 28 393 345 22 57 477 
284 9 172 8 279 125 4 153 214 348 17 
285 9 51 60 482 215 209 425 257 412 331 
286 7 147 299 406 65 443 275 5 
287 8 327 259 458 265 73 296 232 297 
288 9 16 151 395 452 243 234 160 108 467 
289 7 182 304 280 361 43 77 136 
290 7 394 490 316 133 61 408 239 
291 7 466 45 190 429 315 245 392 
292 6 24 340 305 85 156 81 
293 9 501 192 409 75 391 306 118 110 300 
294 6 431 480 10 176 486 162 
295 7 94 273 78 230 101 76 119 
296 6 265 297 325 327 287 73 
297 6 325 296 265 456 73 287 
298 9 114 382 198 71 416 262 436 223 49 
299 8 406 443 286 275 65 147 5 410 
300 9 110 75 106 149 409 206 266 314 37 
301 8 344 199 274 23 500 473 339 270 
302 6 30 433 134 255 115 233 
303 9 202 37 149 106 355 276 306 36 300 
304 7 182 280 289 77 136 462 361 
305 3 85 292 24 
306 9 118 37 106 355 276 192 293 75 300 
307 9 137 352 417 222 448 481 269 6 36 
308 6 116 219 130 54 157 19 
309 4 278 470 210 26 
310 8 73 232 456 458 40 168 325 64 
311 9 339 23 402 344 405 442 199 90 371 
312 9 247 46 164 272 342 390 324 98 88 
313 4 336 29 176 87 
314 9 266 206 149 110 300 36 252 103 106 
315 7 466 45 245 291 392 255 190 
316 4 133 290 61 394 
317 8 476 318 12 471 401 488 82 87 
318 7 476 317 471 87 12 336 401 
319 9 249 90 449 379 442 328 6 222 402 
320 2 44 229 
321 5 115 376 30 38 233 
322 9 79 105 369 170 179 407 335 72 178 
323 9 181 207 169 213 97 13 62 368 84 
324 6 342 247 390 46 360 312 
325 6 297 296 456 265 73 310 
326 9 55 102 49 171 204 419 223 262 114 
327 8 259 287 265 296 458 297 325 73 
328 9 449 186 252 249 42 379 39 353 319 
329 9 221 15 92 485 257 120 412 400 331 
330 9 63 100 187 262 378 416 22 244 338 
331 9 412 425 155 209 239 257 61 51 482 
332 9 174 53 80 158 142 10 235 271 440 
333 9 162 29 17 176 358 313 336 214 240 
334 9 143 469 251 48 145 263 426 121 492 
335 7 407 369 322 179 105 178 79 
336 5 313 29 318 87 176 
337 5 109 261 211 196 74 
338 6 487 100 260 63 330 217 
339 9 23 311 199 344 403 402 405 301 371 
340 6 156 81 362 292 47 500 
341 5 139 7 220 435 180 
342 6 324 247 390 360 312 46 
343 8 231 184 227 3 410 119 443 101 
344 8 23 339 199 311 301 405 402 403 
345 9 477 67 386 419 122 244 154 283 22 
346 4 423 66 112 148 
347 8 64 168 429 335 40 179 407 369 
348 9 89 4 140 52 153 397 396 424 172 
349 9 161 432 70 9 258 56 41 77 350 
350 9 483 56 356 41 413 103 206 161 70 
351 6 86 21 359 373 408 354 
352 9 307 137 417 481 222 448 6 269 371 
353 9 42 177 39 328 186 70 249 103 375 
354 7 373 21 374 351 86 109 465 
355 9 276 441 37 306 118 461 303 202 106 
356 5 56 413 483 350 41 
357 4 83 218 25 277 
358 9 240 214 440 80 17 142 162 333 158 
359 3 351 86 68 
360 8 467 165 395 107 243 16 160 173 
361 7 43 242 460 289 112 99 201 
362 8 81 156 47 340 150 185 368 493 
363 9 18 111 473 403 197 384 411 200 126 
364 6 374 32 68 237 144 373 
365 2 237 32 
366 8 127 188 282 128 130 219 54 92 
367 4 238 479 422 14 
368 9 150 213 62 181 493 47 362 450 163 
369 8 407 335 322 178 79 454 105 179 
370 4 138 52 397 233 
371 9 402 6 481 126 311 403 442 411 339 
372 7 375 249 177 42 319 328 393 
373 8 354 21 374 351 86 68 364 359 
374 9 364 373 32 68 354 21 196 237 109 
375 8 372 177 249 42 353 328 393 236 
376 5 246 484 38 321 238 
377 9 468 217 462 260 57 63 378 187 182 
378 9 187 22 63 57 28 122 330 244 283 
379 9 449 252 222 319 328 186 417 36 249 
380 9 104 71 223 49 178 454 436 198 171 
381 9 256 457 129 421 427 31 497 120 19 
382 8 198 298 114 436 71 416 262 223 
383 9 488 12 82 471 401 25 476 317 218 
384 9 197 270 473 111 18 301 363 500 199 
385 8 193 124 60 146 215 188 285 51 
386 6 345 67 154 477 283 122 
387 4 38 433 30 460 
388 9 171 55 96 212 478 102 49 104 326 
389 8 15 95 485 183 221 457 129 329 
390 6 46 98 272 88 324 268 
391 9 501 192 293 152 35 418 34 93 117 
392 5 245 45 466 315 291 
393 9 236 28 57 283 154 122 375 372 177 
394 7 490 408 290 61 203 133 239 
395 7 160 16 288 108 360 467 243 
396 6 140 52 348 89 138 370 
397 8 424 52 271 235 89 370 348 440 
398 8 72 33 50 170 463 105 179 58 
399 9 428 40 232 58 489 458 50 73 33 
400 8 133 183 61 412 331 485 239 221 
401 7 471 488 12 87 476 317 318 
402 9 442 311 90 371 339 23 6 405 319 
403 9 199 126 339 23 411 371 363 311 18 
404 6 191 475 69 414 225 445 
405 6 311 344 23 339 442 90 
406 8 299 443 286 147 275 65 5 410 
407 7 369 335 178 322 454 79 179 
408 6 490 394 290 203 61 133 
409 9 75 501 110 293 300 35 106 192 206 
410 8 227 443 3 406 299 119 147 343 
411 9 126 200 403 481 371 281 27 363 464 
412 9 331 257 425 209 155 239 51 400 61 
413 4 356 56 483 350 
414 6 475 191 404 69 445 225 
415 6 453 478 494 121 170 79 
416 9 114 262 298 382 198 330 436 100 71 
417 9 137 222 307 6 352 481 379 448 36 
418 5 117 35 391 501 409 
419 9 244 477 67 345 22 326 102 262 55 
420 5 472 123 157 31 19 
421 9 31 381 427 497 256 19 157 129 457 
422 7 14 159 479 238 367 141 166 
423 3 346 242 43 
424 9 235 397 271 440 158 142 4 52 53 
425 9 209 155 331 239 412 482 51 257 61 
426 8 145 263 143 469 334 438 492 48 
427 9 497 256 421 381 19 31 129 120 157 
428 9 399 40 58 50 232 33 489 72 458 
429 7 291 190 45 466 347 335 407 
430 8 212 97 2 455 207 96 204 189 
431 5 480 294 486 10 496 
432 8 161 349 70 258 56 356 413 9 
433 4 302 30 134 387 
434 6 135 74 229 44 196 365 
435 6 220 7 180 264 139 341 
436 8 198 382 454 178 71 298 380 114 
437 9 250 165 243 467 173 107 228 26 16 
438 8 492 145 426 334 48 121 143 251 
439 8 84 207 189 13 204 386 67 323 
440 9 235 142 240 158 214 80 424 358 4 
441 9 461 276 355 118 306 37 34 303 202 
442 8 90 402 311 319 371 405 6 339 
443 8 406 299 275 286 147 65 410 5 
444 9 5 275 65 299 406 443 286 3 147 
445 6 475 191 414 404 113 69 
446 4 226 132 11 175 
447 4 20 254 253 113 
448 9 269 307 352 137 417 459 36 222 481 
449 9 328 252 379 249 186 319 42 39 222 
450 7 493 208 163 62 248 47 213 
451 7 34 152 118 192 461 93 441 
452 6 234 151 278 288 309 16 
453 6 415 478 170 494 121 79 
454 7 178 436 407 198 369 380 71 
455 9 2 430 143 469 212 251 96 334 48 
456 4 325 310 297 73 
457 9 129 381 256 427 421 120 497 389 15 
458 9 73 232 287 310 40 327 399 259 325 
459 9 269 464 27 281 448 352 307 481 137 
460 9 99 201 361 112 195 43 91 242 38 
461 9 441 276 355 118 306 34 451 37 192 
462 7 377 217 468 182 304 280 77 
463 7 205 398 59 33 72 58 50 
464 9 27 281 459 200 269 411 481 126 448 
465 2 167 21 
466 7 45 291 315 245 392 190 429 
467 9 165 243 360 250 437 16 107 173 395 
468 9 377 217 462 260 63 57 378 187 182 
469 8 143 334 263 251 426 48 145 455 
470 6 26 210 278 309 132 11 
471 7 401 12 488 476 317 318 87 
472 5 420 123 157 31 19 
473 9 197 384 270 111 18 301 363 199 403 
474 5 131 148 267 66 141 
475 6 191 404 414 69 445 225 
476 8 317 318 12 471 401 488 87 82 
477 9 345 67 244 419 22 122 283 386 154 
478 8 494 121 453 415 96 388 48 251 
479 6 367 422 14 238 159 498 
480 5 431 486 294 10 496 
481 9 352 137 6 307 371 417 126 222 411 
482 9 209 51 215 425 155 285 60 331 203 
483 9 350 56 356 413 41 103 206 161 70 
484 6 246 376 38 238 91 195 
485 9 15 221 183 329 95 400 389 257 412 
486 5 480 496 10 431 294 
487 6 338 100 260 63 330 217 
488 9 12 401 471 383 476 317 87 318 82 
489 9 399 428 58 232 259 458 59 287 40 
490 7 394 408 290 203 61 133 239 
491 6 136 258 77 280 242 423 
492 8 438 145 48 334 121 426 251 494 
493 8 450 208 163 62 47 213 248 185 
494 8 121 478 96 48 251 415 453 334 
495 5 125 279 82 8 357 
496 6 10 486 480 431 174 294 
497 9 427 19 256 31 157 421 54 116 128 
498 7 499 194 479 14 367 166 422 
499 5 498 194 479 14 166 
500 8 274 185 156 301 270 47 362 340 
501 9 293 409 192 391 75 35 110 306 300 
DEPOT_SECTION
   1
   -1
EOF
