NAME :  X-n701-kX-w70-c7.cctp
COMMENT : 	Adapted by Maziero, Usberti and Cavellucci from the Uchoa, Pecin, Pessoa, Poggi, Subramanian, and Vidal (2013)
TYPE :  CCTP
DIMENSION :    367
EDGE_WEIGHT_TYPE : 	EUC_2D	
CAPACITY : 	87
VERTICES_WITHIN_COVERAGE :  7
VERTICES_WITH_DEMAND : 	70
NODE_COORD_SECTION
1 0 0
2 878 606
3 35 593
4 320 125
5 189 244
6 274 784
7 900 310
8 742 640
9 800 448
10 57 755
11 522 327
12 528 268
13 461 328
14 325 726
15 788 496
16 626 660
17 720 744
18 3 417
19 32 306
20 65 233
21 827 442
22 347 566
23 545 389
24 452 670
25 236 564
26 439 425
27 69 17
28 468 416
29 103 137
30 689 261
31 300 603
32 378 187
33 790 584
34 336 860
35 386 199
36 522 461
37 356 214
38 947 18
39 431 1000
40 817 983
41 71 731
42 918 54
43 989 840
44 260 262
45 904 724
46 970 295
47 567 694
48 426 75
49 24 178
50 656 590
51 128 178
52 969 965
53 309 968
54 855 798
55 587 48
56 118 736
57 838 354
58 274 298
59 311 702
60 183 963
61 392 495
62 950 484
63 621 676
64 52 482
65 956 934
66 745 263
67 289 149
68 689 900
69 216 107
70 852 560
71 45 441
72 66 842
73 290 815
74 68 509
75 521 672
76 408 483
77 114 255
78 383 536
79 902 19
80 964 423
81 610 39
82 719 961
83 289 599
84 747 259
85 292 168
86 560 212
87 128 950
88 211 939
89 32 550
90 353 65
91 72 691
92 19 172
93 994 883
94 457 195
95 35 32
96 425 288
97 12 586
98 302 972
99 891 540
100 206 371
101 241 223
102 601 81
103 298 860
104 977 911
105 188 304
106 318 269
107 839 548
108 107 557
109 262 668
110 824 424
111 859 540
112 323 639
113 954 411
114 271 682
115 412 518
116 922 84
117 13 661
118 354 560
119 228 552
120 573 723
121 71 320
122 627 736
123 760 323
124 777 669
125 685 750
126 63 754
127 477 613
128 224 523
129 962 282
130 351 237
131 472 449
132 249 840
133 537 728
134 244 611
135 205 27
136 921 582
137 810 570
138 487 331
139 888 770
140 85 443
141 984 369
142 973 891
143 989 256
144 638 621
145 223 951
146 914 45
147 949 533
148 6 338
149 234 558
150 170 763
151 77 45
152 845 26
153 681 306
154 231 497
155 881 371
156 420 399
157 17 680
158 334 715
159 395 79
160 285 579
161 908 478
162 847 460
163 102 417
164 71 222
165 337 978
166 44 67
167 849 533
168 984 810
169 738 919
170 918 985
171 560 291
172 32 686
173 35 244
174 452 680
175 790 271
176 832 824
177 114 661
178 702 726
179 649 586
180 433 966
181 499 695
182 159 291
183 46 465
184 108 11
185 898 637
186 46 379
187 133 485
188 182 943
189 23 384
190 426 116
191 36 988
192 945 828
193 560 676
194 975 826
195 836 379
196 295 92
197 137 226
198 256 630
199 235 922
200 292 81
201 136 84
202 713 592
203 697 981
204 165 188
205 326 480
206 836 453
207 386 481
208 705 190
209 203 945
210 816 604
211 975 849
212 47 84
213 438 468
214 937 42
215 209 270
216 61 456
217 662 907
218 673 555
219 296 837
220 253 75
221 829 599
222 138 159
223 37 564
224 974 967
225 759 756
226 207 27
227 859 340
228 375 325
229 114 18
230 923 49
231 84 327
232 378 164
233 22 470
234 952 3
235 105 215
236 80 581
237 823 527
238 854 377
239 500 240
240 560 23
241 138 966
242 909 990
243 447 664
244 187 283
245 435 345
246 325 901
247 362 602
248 19 676
249 451 76
250 910 712
251 513 457
252 768 472
253 846 788
254 343 784
255 422 91
256 665 647
257 574 373
258 318 951
259 381 57
260 529 432
261 711 692
262 531 377
263 319 988
264 886 630
265 263 731
266 339 995
267 548 384
268 530 491
269 892 599
270 910 765
271 764 542
272 746 566
273 788 471
274 517 665
275 471 427
276 314 942
277 449 692
278 705 286
279 861 753
280 253 757
281 930 746
282 194 998
283 697 596
284 388 283
285 610 597
286 406 480
287 960 884
288 891 715
289 375 465
290 881 810
291 314 80
292 372 452
293 796 503
294 980 890
295 821 409
296 528 455
297 436 399
298 677 307
299 979 797
300 691 762
301 322 213
302 600 75
303 368 879
304 782 605
305 553 57
306 779 427
307 538 432
308 423 126
309 649 580
310 561 303
311 316 878
312 426 613
313 319 189
314 696 579
315 561 392
316 549 403
317 498 309
318 697 697
319 509 466
320 276 695
321 854 859
322 855 780
323 534 381
324 782 608
325 911 584
326 794 421
327 465 430
328 925 589
329 903 700
330 447 81
331 313 985
332 552 70
333 851 771
334 897 704
335 929 716
336 542 495
337 434 996
338 302 731
339 534 722
340 548 215
341 352 885
342 415 527
343 896 713
344 540 259
345 839 438
346 365 542
347 319 886
348 439 0
349 927 975
350 864 824
351 550 29
352 542 469
353 667 751
354 364 868
355 320 938
356 389 659
357 333 868
358 762 894
359 834 595
360 430 114
361 812 478
362 540 734
363 520 472
364 632 71
365 864 521
366 878 724
367 517 469
DEMAND_SECTION
2 2
3 8
4 7
5 5
6 3
7 7
8 6
9 3
10 10
11 2
12 1
13 8
14 8
15 8
16 8
17 4
18 9
19 7
20 9
21 4
22 10
23 4
24 1
25 2
26 1
27 9
28 4
29 4
30 5
31 8
32 2
33 9
34 3
35 1
36 8
37 2
38 8
39 3
40 3
41 2
42 4
43 3
44 2
45 7
46 7
47 9
48 1
49 5
50 7
51 10
52 5
53 9
54 7
55 7
56 1
57 3
58 5
59 9
60 5
61 4
62 5
63 9
64 4
65 4
66 7
67 8
68 1
69 8
70 7
71 2
COVERAGE_SECTION
2 6 269 264 185 325 359 136 
3 7 97 223 89 236 117 108 248 
4 7 67 196 291 85 200 313 90 
5 7 215 244 197 101 182 105 204 
6 7 280 73 265 219 338 132 254 
7 7 227 155 129 46 57 238 195 
8 6 124 324 304 202 261 283 
9 7 273 21 326 306 361 110 206 
10 7 126 41 56 91 172 157 72 
11 7 317 138 310 262 171 323 12 
12 7 344 171 239 310 317 340 11 
13 7 138 245 317 96 11 297 156 
14 6 158 338 59 320 254 265 
15 6 293 273 361 252 237 9 
16 5 63 144 256 285 47 
17 7 178 300 125 225 318 261 353 
18 7 189 71 233 186 183 216 148 
19 7 121 148 231 173 186 189 20 
20 7 164 173 235 77 49 197 92 
21 7 345 206 110 162 9 295 326 
22 7 118 346 247 78 31 160 83 
23 7 267 323 316 315 262 257 307 
24 7 243 174 277 181 127 312 356 
25 7 149 119 128 134 160 83 154 
26 7 297 327 28 156 275 131 213 
27 7 151 95 184 229 166 212 201 
28 5 275 327 26 131 297 
29 7 222 51 201 212 235 204 49 
30 5 278 153 298 66 84 
31 7 83 160 112 198 134 22 247 
32 7 35 232 37 130 313 301 308 
33 7 304 137 324 210 221 359 272 
34 7 357 311 354 341 347 303 103 
35 7 32 37 232 130 301 313 94 
36 6 296 367 251 363 319 352 
37 7 130 35 301 32 313 232 106 
38 7 234 214 230 146 79 42 116 
39 2 337 180 
40 7 242 82 170 169 358 349 203 
41 7 126 10 91 56 172 157 248 
42 7 230 146 214 116 79 38 234 
43 7 211 194 168 93 299 192 294 
44 7 58 101 215 106 5 244 301 
45 7 250 343 288 334 329 335 366 
46 6 129 143 7 141 113 155 
47 6 193 120 339 133 362 75 
48 6 255 330 249 159 360 190 
49 7 92 164 173 20 29 235 212 
50 7 179 309 144 218 283 314 285 
51 7 222 204 235 29 197 164 77 
52 7 224 65 349 104 170 242 142 
53 7 98 331 258 263 276 165 355 
54 7 253 322 333 350 290 176 139 
55 7 81 302 305 102 240 332 351 
56 6 41 126 150 10 91 177 
57 7 195 227 238 155 295 110 7 
58 7 44 106 215 101 105 244 130 
59 7 158 14 338 320 114 265 109 
60 7 188 209 88 282 145 241 87 
61 7 207 76 286 115 289 342 78 
62 5 161 147 80 113 99 
63 6 16 256 47 144 122 193 
64 7 183 216 74 233 71 140 89 
65 7 104 52 224 142 287 294 349 
66 6 84 175 278 30 123 153 
67 7 85 4 313 196 200 301 291 
68 5 217 169 82 358 203 
69 5 220 196 200 135 226 
70 7 107 111 167 359 365 137 99 
71 7 216 183 233 140 64 18 189 
72 1 10 
73 5 219 6 103 132 254 
74 7 64 183 216 89 233 108 223 
75 7 274 181 193 47 339 133 362 
76 6 286 61 207 213 115 289 
77 7 197 235 20 164 182 5 51 
78 7 346 342 115 118 61 22 207 
79 7 146 230 42 214 38 234 152 
80 4 113 141 62 161 
81 6 55 302 364 102 240 305 
82 6 203 169 68 217 358 40 
83 7 31 160 198 134 112 25 22 
84 6 66 175 278 30 123 153 
85 7 67 313 4 301 101 196 37 
86 4 340 344 12 239 
87 6 241 188 60 209 282 88 
88 6 209 145 188 199 60 282 
89 7 223 97 3 74 236 64 108 
90 6 259 291 159 200 196 4 
91 7 41 172 177 248 157 56 126 
92 7 49 164 173 20 29 212 235 
93 7 294 142 104 287 211 43 194 
94 6 239 35 308 32 190 232 
95 7 166 27 151 212 184 229 201 
96 7 284 13 245 228 138 317 239 
97 7 3 223 89 236 117 248 157 
98 7 53 331 263 258 276 165 355 
99 7 111 365 167 70 325 136 107 
100 4 105 244 182 58 
101 7 44 5 215 85 244 58 301 
102 4 302 364 55 81 
103 6 219 311 347 357 34 73 
104 7 142 294 65 287 93 52 224 
105 7 244 182 215 5 100 44 58 
106 7 130 58 301 44 37 284 228 
107 7 70 167 111 237 137 365 359 
108 7 236 74 223 89 187 3 64 
109 6 114 320 198 59 134 265 
110 7 295 21 345 326 206 9 162 
111 6 167 365 70 107 99 237 
112 7 31 83 247 59 114 109 198 
113 4 80 141 62 161 
114 6 320 109 59 265 198 338 
115 5 342 61 78 76 286 
116 6 42 230 146 214 79 38 
117 7 248 157 172 91 3 97 41 
118 7 22 346 78 247 31 342 115 
119 7 149 25 128 154 134 160 83 
120 5 47 362 133 339 193 
121 5 231 19 186 148 77 
122 4 353 120 63 125 
123 2 175 66 
124 4 8 324 304 261 
125 6 300 353 178 17 318 122 
126 7 10 41 56 91 172 157 72 
127 4 312 243 24 274 
128 5 154 119 149 25 160 
129 6 46 143 7 141 227 155 
130 7 37 301 106 35 32 313 284 
131 3 327 275 28 
132 4 219 73 103 6 
133 4 339 362 120 47 
134 6 198 83 25 160 149 31 
135 4 226 220 69 201 
136 6 328 325 269 2 99 147 
137 7 33 210 221 359 107 70 237 
138 7 317 13 11 245 262 323 12 
139 7 270 279 322 333 290 54 253 
140 7 216 163 71 183 64 187 74 
141 5 113 80 46 129 7 
142 7 294 287 104 93 211 65 43 
143 6 129 46 7 141 227 155 
144 6 50 179 256 285 16 309 
145 7 88 209 199 60 188 282 98 
146 7 42 230 214 79 116 38 234 
147 6 62 136 99 328 325 161 
148 7 19 189 186 121 18 231 173 
149 7 25 119 128 134 160 154 83 
150 4 56 280 265 41 
151 7 27 166 95 184 229 212 201 
152 3 79 146 42 
153 3 298 278 30 
154 5 128 119 149 25 205 
155 5 238 227 57 195 7 
156 7 297 26 28 327 245 275 213 
157 7 248 172 117 91 41 10 126 
158 6 14 59 338 320 254 114 
159 7 259 255 48 90 190 360 330 
160 7 83 31 25 134 149 198 22 
161 5 62 365 99 162 147 
162 6 206 345 21 361 110 9 
163 5 140 216 71 186 183 
164 7 20 235 173 77 49 197 51 
165 4 266 263 331 53 
166 7 212 95 151 27 184 229 29 
167 6 111 107 365 70 237 99 
168 5 299 194 43 211 192 
169 5 358 82 68 203 217 
170 7 242 349 52 224 65 104 40 
171 4 310 344 12 11 
172 7 157 248 117 91 41 10 126 
173 7 20 164 19 49 92 235 77 
174 6 24 277 243 181 356 274 
175 6 84 66 123 278 57 227 
176 6 350 54 253 321 322 290 
177 7 91 56 41 172 236 248 157 
178 6 17 125 318 261 300 353 
179 6 309 50 144 218 285 314 
180 2 337 39 
181 7 75 274 339 174 133 277 24 
182 6 244 105 215 5 77 197 
183 7 216 64 71 233 140 74 18 
184 7 229 27 151 95 201 166 212 
185 2 264 2 
186 6 189 18 148 71 121 231 
187 6 140 74 163 108 216 64 
188 7 60 209 88 145 241 87 282 
189 7 186 18 148 71 19 121 216 
190 5 360 308 255 48 330 
191 3 87 241 60 
192 4 194 211 168 43 
193 7 47 75 274 120 339 133 63 
194 5 168 43 211 299 192 
195 7 238 57 295 227 155 110 326 
196 4 200 291 4 220 
197 7 235 77 204 51 5 164 222 
198 6 134 109 83 31 114 160 
199 5 88 145 209 188 60 
200 4 196 291 220 4 
201 7 29 229 151 222 184 69 135 
202 5 283 314 272 218 8 
203 6 82 169 68 217 358 40 
204 7 51 222 197 5 235 29 77 
205 6 289 292 207 61 346 78 
206 6 162 21 345 110 361 9 
207 7 61 289 286 76 292 115 213 
208 1 30 
209 7 88 145 188 60 199 282 241 
210 6 221 359 33 304 324 137 
211 7 43 194 192 287 93 168 294 
212 7 166 151 95 27 29 201 92 
213 4 76 286 131 26 
214 7 230 42 146 38 79 234 116 
215 7 244 5 105 44 182 101 58 
216 7 183 71 140 64 233 74 163 
217 2 68 169 
218 4 314 309 50 179 
219 6 73 103 34 311 132 357 
220 4 200 196 69 291 
221 7 359 210 137 33 70 304 324 
222 7 51 204 29 235 197 201 164 
223 7 89 3 97 236 74 108 64 
224 7 52 65 349 104 170 242 142 
225 3 17 178 300 
226 4 135 220 69 201 
227 6 57 238 155 195 7 295 
228 7 284 96 245 106 13 156 130 
229 7 184 27 151 201 95 166 135 
230 7 42 146 214 116 79 38 234 
231 5 121 19 186 77 148 
232 7 32 35 37 308 313 190 4 
233 7 183 64 71 216 18 74 140 
234 7 38 214 79 230 146 42 116 
235 7 197 164 77 20 51 222 204 
236 7 108 223 3 89 97 74 177 
237 6 107 167 293 111 365 70 
238 6 195 57 155 227 295 110 
239 6 12 344 340 94 86 317 
240 5 351 305 55 332 81 
241 6 87 60 188 282 209 88 
242 7 170 349 52 224 65 40 104 
243 7 24 174 277 312 356 127 181 
244 7 105 215 182 5 44 197 77 
245 7 13 138 297 156 96 228 317 
246 7 347 311 341 357 355 34 276 
247 7 22 118 112 346 31 356 312 
248 7 157 117 172 91 41 3 10 
249 3 330 48 255 
250 6 45 329 343 334 288 335 
251 5 36 319 367 296 363 
252 3 273 15 9 
253 7 322 54 333 279 176 350 290 
254 2 14 73 
255 7 48 360 190 330 159 249 308 
256 7 144 16 63 50 318 283 179 
257 4 315 267 23 316 
258 5 276 355 53 98 165 
259 7 159 90 48 255 330 291 249 
260 6 307 296 36 251 316 319 
261 6 318 178 17 8 125 256 
262 7 323 23 267 316 315 257 11 
263 6 331 165 266 53 98 258 
264 3 185 2 269 
265 7 280 320 338 114 6 59 14 
266 4 165 263 331 53 
267 6 23 323 315 262 316 257 
268 6 336 363 352 367 36 319 
269 6 2 325 264 136 328 185 
270 4 139 281 45 279 
271 4 272 33 293 15 
272 4 271 202 33 314 
273 6 252 15 361 9 293 306 
274 7 75 181 193 47 339 24 127 
275 5 327 28 131 26 297 
276 5 355 258 53 98 246 
277 5 174 24 243 181 356 
278 5 30 153 298 66 84 
279 6 333 322 139 366 253 54 
280 7 265 6 338 320 73 114 14 
281 3 270 335 45 
282 7 60 209 145 188 88 241 87 
283 6 202 314 50 218 179 309 
284 7 96 228 130 106 37 245 35 
285 4 144 179 309 50 
286 6 76 207 61 213 289 115 
287 7 142 294 104 93 211 65 43 
288 6 343 334 45 366 250 329 
289 7 292 207 61 286 76 205 213 
290 5 350 54 322 139 253 
291 4 196 200 90 4 
292 7 289 207 286 61 76 205 213 
293 6 15 361 273 237 252 271 
294 7 142 93 104 287 211 65 43 
295 7 110 326 21 195 345 9 206 
296 7 36 251 367 363 352 319 260 
297 7 156 26 28 327 275 245 131 
298 3 153 278 30 
299 4 168 194 43 192 
300 5 125 353 17 178 318 
301 7 313 37 130 85 106 32 35 
302 5 102 55 364 81 332 
303 3 354 341 34 
304 6 324 33 210 137 221 8 
305 5 332 351 55 240 302 
306 4 326 9 110 273 
307 5 260 296 316 36 251 
308 5 190 360 255 48 330 
309 5 179 50 218 144 285 
310 4 171 11 12 344 
311 6 347 357 103 246 34 341 
312 6 127 243 356 24 247 174 
313 7 301 85 37 67 130 32 4 
314 4 283 202 218 50 
315 6 267 23 316 257 323 262 
316 6 23 315 267 323 307 262 
317 7 138 11 13 12 310 171 344 
318 6 261 178 17 125 256 353 
319 4 367 251 363 36 
320 6 114 109 59 265 338 14 
321 4 350 176 290 54 
322 7 333 253 54 279 139 290 350 
323 7 262 23 267 316 315 257 260 
324 6 304 33 210 137 221 8 
325 6 136 328 269 2 99 264 
326 5 306 9 110 295 21 
327 5 275 28 131 26 297 
328 5 136 325 269 2 185 
329 5 334 250 343 288 45 
330 3 249 48 255 
331 7 263 53 98 165 266 258 276 
332 4 305 55 351 240 
333 6 322 253 279 54 139 290 
334 6 329 343 288 250 45 366 
335 4 250 45 281 329 
336 5 268 352 363 367 36 
337 2 39 180 
338 7 14 59 158 265 320 280 114 
339 4 133 362 120 47 
340 4 86 344 239 12 
341 5 303 354 357 34 246 
342 4 115 78 61 76 
343 6 288 334 45 250 329 366 
344 7 12 171 239 340 310 86 317 
345 6 21 206 110 162 295 9 
346 7 78 118 22 342 115 61 247 
347 6 311 246 357 34 103 341 
348 3 48 249 259 
349 7 170 242 52 224 65 104 142 
350 6 290 54 176 321 253 322 
351 4 240 305 332 55 
352 6 296 36 363 268 367 336 
353 6 125 300 122 178 17 318 
354 3 303 341 34 
355 5 276 258 53 246 98 
356 7 243 312 247 24 174 277 112 
357 7 34 311 347 341 354 246 103 
358 5 169 68 82 321 176 
359 7 221 210 137 70 2 33 107 
360 5 190 308 255 330 48 
361 6 273 15 293 9 206 21 
362 4 133 339 120 47 
363 6 367 36 319 251 296 268 
364 4 302 102 81 55 
365 6 167 111 99 107 70 237 
366 6 288 343 45 334 250 279 
367 5 363 36 319 251 296 
DEPOT_SECTION
   1
   -1
EOF
