NAME :  X-n733-kX-w73-c11.cctp
COMMENT : 	Adapted by Maziero, Usberti and Cavellucci from the Uchoa, Pecin, Pessoa, Poggi, Subramanian, and Vidal (2013)
TYPE :  CCTP
DIMENSION :    551
EDGE_WEIGHT_TYPE : 	EUC_2D	
CAPACITY : 	25
VERTICES_WITHIN_COVERAGE :  11
VERTICES_WITH_DEMAND : 	73
NODE_COORD_SECTION
1 500 500
2 143 12
3 206 907
4 895 855
5 640 970
6 865 716
7 993 356
8 618 966
9 963 539
10 50 979
11 241 998
12 32 206
13 288 926
14 299 507
15 336 180
16 589 726
17 665 488
18 36 521
19 112 895
20 814 442
21 843 474
22 17 258
23 360 273
24 814 537
25 775 524
26 825 471
27 321 87
28 773 958
29 119 166
30 368 928
31 193 250
32 452 919
33 736 322
34 386 911
35 624 313
36 694 398
37 186 803
38 948 721
39 216 973
40 915 641
41 238 810
42 946 172
43 23 561
44 613 657
45 359 434
46 604 96
47 56 554
48 862 723
49 222 161
50 974 838
51 775 67
52 815 880
53 204 362
54 435 760
55 593 358
56 203 435
57 882 803
58 194 739
59 380 323
60 836 461
61 537 136
62 789 669
63 956 1000
64 98 295
65 656 410
66 580 959
67 594 64
68 459 43
69 425 559
70 262 31
71 522 339
72 960 74
73 237 910
74 353 828
75 420 281
76 721 524
77 703 303
78 923 491
79 444 792
80 987 930
81 113 210
82 907 45
83 383 799
84 209 192
85 464 717
86 837 536
87 202 94
88 177 341
89 551 3
90 835 467
91 988 937
92 179 369
93 487 765
94 975 406
95 365 411
96 440 41
97 57 898
98 161 707
99 0 517
100 524 195
101 682 409
102 608 55
103 16 909
104 183 242
105 948 682
106 324 44
107 380 573
108 339 188
109 629 32
110 589 805
111 934 907
112 848 633
113 890 973
114 964 391
115 171 837
116 637 133
117 541 313
118 946 388
119 818 503
120 887 643
121 981 839
122 383 325
123 288 219
124 407 596
125 707 525
126 56 193
127 282 573
128 90 56
129 538 143
130 614 30
131 237 435
132 823 405
133 363 560
134 192 314
135 826 849
136 604 432
137 131 65
138 990 723
139 944 209
140 68 210
141 564 354
142 646 604
143 362 499
144 313 888
145 797 864
146 93 297
147 439 445
148 152 66
149 796 886
150 716 113
151 693 324
152 263 134
153 893 184
154 549 927
155 817 770
156 976 350
157 692 957
158 227 408
159 323 894
160 106 959
161 982 365
162 292 960
163 552 181
164 505 588
165 506 122
166 208 381
167 530 266
168 947 928
169 857 644
170 990 518
171 305 811
172 577 316
173 607 398
174 471 599
175 111 69
176 149 735
177 437 140
178 38 10
179 841 876
180 870 781
181 806 151
182 789 38
183 238 478
184 182 984
185 272 20
186 880 423
187 142 8
188 611 385
189 950 575
190 823 394
191 823 573
192 850 625
193 923 848
194 552 189
195 468 743
196 756 931
197 55 920
198 47 187
199 838 595
200 833 785
201 367 992
202 938 833
203 184 380
204 751 956
205 831 424
206 927 752
207 479 537
208 288 947
209 175 63
210 111 514
211 603 634
212 557 925
213 3 914
214 269 277
215 360 979
216 958 203
217 854 930
218 59 285
219 697 384
220 999 813
221 332 70
222 399 474
223 8 315
224 102 310
225 913 612
226 429 919
227 995 588
228 969 530
229 173 949
230 440 702
231 141 839
232 641 740
233 361 430
234 365 318
235 621 920
236 337 330
237 50 481
238 347 468
239 387 470
240 486 875
241 568 101
242 95 19
243 864 522
244 792 430
245 830 978
246 859 434
247 944 765
248 990 934
249 186 358
250 563 350
251 396 727
252 272 211
253 104 980
254 625 64
255 190 270
256 989 645
257 179 252
258 437 360
259 93 576
260 521 190
261 607 277
262 949 574
263 713 437
264 113 15
265 459 368
266 858 925
267 235 360
268 817 710
269 213 486
270 350 900
271 262 829
272 109 521
273 960 308
274 207 862
275 282 555
276 970 106
277 75 217
278 88 275
279 249 910
280 622 92
281 794 539
282 190 261
283 912 562
284 239 9
285 232 154
286 951 789
287 222 65
288 889 86
289 986 224
290 473 21
291 937 197
292 399 590
293 983 139
294 757 833
295 225 375
296 720 250
297 868 870
298 71 526
299 24 626
300 617 137
301 869 818
302 219 453
303 647 941
304 354 911
305 787 715
306 703 108
307 217 201
308 778 655
309 636 539
310 231 139
311 896 875
312 149 310
313 490 146
314 30 507
315 629 789
316 170 132
317 965 567
318 247 913
319 247 435
320 728 971
321 821 717
322 127 290
323 552 702
324 59 842
325 354 427
326 811 541
327 646 634
328 65 882
329 911 972
330 924 847
331 251 281
332 496 123
333 868 438
334 252 427
335 176 25
336 824 82
337 281 949
338 594 400
339 10 280
340 412 385
341 747 872
342 118 205
343 677 390
344 263 759
345 19 187
346 266 971
347 976 790
348 87 602
349 670 316
350 761 466
351 237 724
352 91 189
353 229 296
354 980 970
355 817 9
356 663 691
357 581 178
358 16 299
359 1 430
360 972 560
361 298 972
362 556 678
363 624 36
364 488 752
365 37 137
366 409 568
367 32 545
368 881 445
369 477 892
370 48 558
371 316 928
372 158 954
373 46 518
374 288 114
375 267 514
376 829 404
377 223 704
378 956 308
379 368 523
380 987 3
381 170 703
382 742 338
383 116 155
384 451 777
385 973 57
386 225 138
387 64 454
388 518 310
389 776 30
390 955 382
391 62 317
392 471 40
393 966 476
394 524 326
395 209 361
396 896 507
397 470 876
398 711 235
399 13 312
400 450 114
401 324 779
402 104 241
403 57 522
404 923 27
405 712 427
406 470 964
407 693 963
408 311 479
409 271 194
410 964 724
411 176 808
412 384 936
413 371 981
414 846 857
415 945 504
416 791 719
417 751 372
418 75 958
419 62 898
420 994 91
421 80 955
422 744 327
423 458 595
424 372 168
425 66 190
426 197 229
427 413 716
428 184 835
429 151 81
430 591 356
431 35 1
432 996 23
433 845 854
434 850 475
435 693 951
436 880 672
437 936 622
438 544 21
439 289 72
440 906 45
441 146 971
442 54 319
443 412 160
444 769 573
445 709 340
446 268 211
447 640 263
448 604 137
449 305 190
450 305 835
451 66 597
452 566 121
453 990 771
454 413 711
455 580 374
456 729 641
457 409 283
458 386 329
459 249 424
460 528 22
461 55 599
462 476 8
463 255 769
464 296 575
465 503 884
466 489 958
467 267 330
468 677 724
469 262 795
470 191 708
471 978 896
472 394 834
473 645 6
474 976 593
475 156 888
476 962 119
477 955 217
478 615 425
479 733 282
480 151 182
481 613 431
482 160 725
483 90 574
484 935 608
485 760 475
486 749 859
487 177 967
488 269 829
489 550 370
490 397 539
491 389 199
492 498 893
493 226 358
494 966 481
495 364 615
496 597 134
497 139 824
498 246 744
499 391 718
500 192 857
501 70 999
502 945 599
503 375 330
504 90 117
505 390 352
506 379 971
507 829 47
508 951 753
509 250 732
510 350 340
511 4 293
512 710 511
513 610 493
514 242 988
515 214 834
516 13 547
517 164 342
518 659 346
519 809 539
520 930 196
521 974 862
522 11 303
523 643 667
524 409 926
525 584 675
526 137 732
527 442 514
528 626 494
529 719 243
530 790 425
531 160 720
532 501 66
533 789 555
534 893 652
535 995 293
536 855 486
537 153 435
538 728 97
539 186 15
540 175 942
541 232 991
542 408 267
543 798 568
544 104 139
545 818 141
546 540 277
547 544 996
548 829 952
549 370 965
550 72 268
551 555 758
DEMAND_SECTION
2 5
3 3
4 1
5 1
6 5
7 9
8 9
9 3
10 2
11 3
12 4
13 1
14 2
15 4
16 1
17 10
18 9
19 3
20 3
21 3
22 2
23 3
24 1
25 1
26 4
27 5
28 8
29 4
30 7
31 5
32 10
33 3
34 5
35 1
36 10
37 5
38 2
39 1
40 4
41 5
42 4
43 10
44 6
45 4
46 8
47 3
48 6
49 1
50 2
51 2
52 2
53 1
54 7
55 6
56 5
57 4
58 5
59 2
60 3
61 5
62 1
63 5
64 3
65 3
66 10
67 10
68 1
69 5
70 2
71 6
72 3
73 9
74 6
COVERAGE_SECTION
2 11 187 264 335 539 242 137 148 209 175 128 429 
3 11 73 318 279 274 540 500 229 475 39 372 487 
4 11 311 193 330 297 301 202 414 433 57 179 111 
5 9 8 303 235 407 157 435 66 320 212 
6 11 48 321 436 268 180 534 155 169 206 416 120 
7 9 161 156 114 390 94 118 273 378 535 
8 10 5 303 66 235 212 157 407 435 154 547 
9 11 228 360 317 170 189 262 415 283 474 494 227 
10 10 501 418 421 253 160 197 103 213 97 419 
11 11 514 541 39 346 184 337 361 162 208 487 229 
12 11 345 198 126 140 425 277 22 352 365 550 339 
13 11 208 337 371 162 279 318 144 159 361 346 73 
14 9 408 375 275 238 143 127 183 464 379 
15 11 108 449 424 491 123 409 252 446 443 374 152 
16 11 323 551 525 232 362 44 315 110 523 356 468 
17 8 528 512 513 125 309 76 263 405 
18 11 373 314 403 367 298 516 99 47 370 43 237 
19 10 475 328 419 97 197 231 160 421 418 324 
20 11 205 244 60 530 26 90 132 376 21 246 190 
21 11 434 90 60 536 26 119 20 246 333 368 205 
22 10 339 511 358 522 218 12 399 550 223 140 
23 11 234 542 457 59 122 503 75 236 458 510 491 
24 11 326 519 281 86 533 119 543 191 25 243 444 
25 11 281 533 519 326 24 119 444 543 485 76 350 
26 11 90 60 21 434 20 119 536 205 246 244 333 
27 11 221 439 106 374 152 70 185 15 424 287 108 
28 11 204 196 320 548 245 149 407 435 157 217 52 
29 11 383 544 352 480 342 81 504 425 316 140 277 
30 11 412 304 34 270 549 524 506 215 371 413 159 
31 11 282 104 257 255 426 307 353 84 134 331 312 
32 11 226 369 524 397 406 492 466 240 465 34 412 
33 11 422 382 445 77 479 151 417 349 219 296 518 
34 11 30 412 524 304 270 226 549 506 159 32 371 
35 11 261 349 172 518 447 430 55 151 250 141 188 
36 11 219 101 343 405 65 263 445 417 518 151 382 
37 11 411 428 115 515 497 41 500 231 274 58 469 
38 11 410 508 206 105 138 247 453 286 347 6 436 
39 11 541 514 11 184 487 229 346 540 372 73 3 
40 11 534 120 437 225 484 436 502 105 169 112 192 
41 10 469 271 515 488 463 37 344 428 274 411 
42 10 291 520 216 139 477 293 153 476 289 276 
43 11 516 367 370 47 18 373 99 461 403 314 451 
44 10 211 523 525 327 356 362 142 16 323 232 
45 8 233 325 95 238 239 222 143 408 
46 10 280 67 241 254 496 102 448 300 452 116 
47 11 370 367 298 403 43 373 18 483 259 451 516 
48 11 6 321 268 436 180 155 200 206 416 305 534 
49 11 285 386 310 84 307 152 409 316 446 87 252 
50 11 121 521 220 202 347 330 193 286 471 453 247 
51 7 182 389 336 538 507 355 150 
52 11 149 145 179 135 414 433 297 266 217 341 486 
53 11 395 249 166 493 295 92 203 267 88 517 134 
54 11 384 79 195 427 251 85 93 364 454 230 499 
55 11 430 455 141 250 188 173 338 172 489 35 518 
56 11 302 131 158 319 459 334 537 269 166 183 203 
57 11 301 180 200 4 193 330 433 202 414 206 297 
58 10 470 482 531 381 176 377 98 351 498 509 
59 10 122 458 503 234 505 510 236 457 23 75 
60 11 90 21 26 434 20 536 246 205 333 119 368 
61 11 129 452 165 332 163 241 313 194 260 100 496 
62 10 308 305 268 416 321 456 112 169 192 6 
63 9 354 329 91 113 168 248 80 111 471 
64 10 146 224 278 322 550 218 391 442 312 402 
65 11 101 343 36 478 481 219 173 188 136 405 263 
66 8 8 212 154 547 235 5 303 466 
67 9 102 254 46 130 280 363 241 109 452 
68 11 392 96 290 462 532 400 460 332 438 165 177 
69 11 366 490 292 124 107 527 423 207 174 133 379 
70 10 185 284 439 287 106 539 221 27 335 87 
71 11 394 388 117 250 489 141 172 546 455 265 430 
72 11 385 276 420 476 82 404 440 432 293 288 380 
73 11 318 279 3 13 274 337 208 39 346 500 540 
74 8 472 83 450 171 401 144 159 270 
75 10 457 542 122 59 458 23 234 503 505 258 
76 11 125 512 25 485 17 444 350 281 533 309 263 
77 10 151 349 445 479 33 422 382 296 518 529 
78 11 415 396 494 393 228 9 368 243 536 170 283 
79 10 384 54 93 195 364 83 472 85 251 427 
80 10 248 91 471 168 354 111 521 63 329 121 
81 11 342 352 402 277 29 140 480 425 383 126 198 
82 5 440 404 288 72 385 
83 9 472 74 79 401 54 384 251 171 499 
84 11 307 49 426 285 104 386 310 480 31 409 446 
85 9 195 230 364 427 454 54 93 384 251 
86 11 24 326 519 243 119 191 281 543 533 536 199 
87 10 287 209 316 386 429 310 148 285 49 152 
88 10 517 249 92 134 53 395 203 312 166 493 
89 11 438 460 130 67 462 102 290 363 532 109 392 
90 11 60 21 26 434 536 20 119 246 205 333 368 
91 10 248 80 354 168 471 111 63 521 329 121 
92 9 203 249 53 88 166 395 517 295 493 
93 8 364 195 384 79 54 85 551 230 
94 8 114 390 118 161 7 156 393 494 
95 7 233 325 45 340 238 239 505 
96 11 68 392 290 462 532 400 460 177 332 165 438 
97 9 419 328 197 103 19 213 324 421 418 
98 7 381 531 482 176 470 526 58 
99 11 314 516 18 367 373 43 403 237 370 47 298 
100 7 260 194 163 129 357 61 313 
101 11 36 343 65 219 405 263 518 478 481 445 188 
102 9 67 254 363 130 109 280 46 241 473 
103 9 213 197 97 419 328 418 10 421 324 
104 11 257 31 426 282 255 307 84 480 353 134 322 
105 11 38 410 40 256 138 437 534 436 508 120 206 
106 10 221 27 439 185 70 374 284 287 152 96 
107 10 133 292 366 124 490 495 69 379 143 423 
108 11 15 449 424 491 123 409 252 446 443 23 374 
109 7 363 130 102 473 254 67 280 
110 4 315 551 16 232 
111 10 168 471 311 80 193 521 330 91 248 4 
112 10 192 169 199 120 534 436 191 40 225 62 
113 9 329 217 266 245 548 63 168 111 354 
114 6 390 118 94 161 156 7 
115 11 428 411 500 231 497 37 515 274 475 41 3 
116 9 300 448 496 280 46 254 306 357 452 
117 11 394 388 71 172 546 250 141 167 489 430 55 
118 6 390 114 94 161 156 7 
119 11 26 24 519 21 86 326 90 536 281 434 60 
120 10 534 40 169 436 112 225 192 437 484 199 
121 11 50 521 220 202 347 471 286 330 193 453 111 
122 10 59 458 503 234 505 510 236 457 23 75 
123 11 252 446 409 449 108 214 15 331 307 84 285 
124 9 292 366 107 69 495 423 133 490 174 
125 10 76 512 17 25 309 485 444 350 528 533 
126 10 425 198 140 12 277 352 345 81 365 342 
127 7 464 275 375 14 133 495 107 
128 9 175 242 137 264 504 148 429 2 178 
129 11 61 452 165 163 332 194 313 260 241 100 357 
130 8 363 109 102 254 67 473 280 46 
131 8 319 459 334 302 158 56 183 269 
132 7 376 190 205 20 530 244 246 
133 11 107 379 490 292 366 495 124 143 69 464 275 
134 11 88 517 353 312 249 255 53 395 282 493 92 
135 10 433 414 179 52 145 297 149 301 200 4 
136 6 481 478 173 338 188 65 
137 11 175 148 429 128 209 264 2 187 242 335 504 
138 11 410 38 453 508 105 247 347 206 286 256 220 
139 7 291 477 216 520 42 289 153 
140 11 277 425 126 198 352 12 81 402 342 345 550 
141 11 250 489 455 430 55 172 71 117 394 338 188 
142 7 327 211 44 523 309 356 456 
143 11 379 238 239 222 490 408 133 14 45 233 325 
144 11 159 270 371 13 304 450 208 30 279 337 318 
145 9 149 52 135 179 486 414 433 294 341 
146 10 64 224 278 322 218 550 391 442 312 402 
147 10 222 239 340 527 233 265 45 95 258 325 
148 10 429 137 209 175 335 2 87 187 539 128 
149 11 52 145 179 135 341 486 414 433 196 294 217 
150 6 306 538 51 116 280 181 
151 11 77 445 349 518 33 382 422 479 219 343 35 
152 10 310 374 285 386 49 409 439 449 87 27 
153 6 520 291 42 139 216 477 
154 8 212 66 492 465 466 547 235 8 
155 8 200 321 180 416 268 305 48 301 
156 9 161 7 390 114 273 378 118 94 535 
157 9 407 435 320 303 5 204 196 8 235 
158 10 459 131 334 166 295 319 56 302 267 395 
159 11 144 270 304 371 13 30 450 208 34 337 74 
160 9 253 421 418 441 372 501 10 19 197 
161 8 7 156 114 390 94 118 273 378 
162 11 361 208 337 346 13 371 514 11 318 279 541 
163 8 194 357 100 260 129 61 452 496 
164 4 174 423 207 69 
165 11 332 313 61 129 532 400 452 241 260 177 100 
166 11 295 53 395 203 493 92 249 158 267 88 56 
167 7 546 388 117 394 172 100 71 
168 10 111 80 91 248 471 354 329 521 63 113 
169 10 112 192 120 436 534 199 40 225 6 62 
170 11 228 9 494 360 415 393 317 262 189 227 78 
171 6 450 401 488 469 271 74 
172 11 117 250 141 430 55 35 261 394 546 455 388 
173 10 338 188 478 136 481 455 55 430 65 141 
174 6 423 164 69 207 124 366 
175 9 137 128 148 429 242 504 264 209 2 
176 7 526 482 531 98 381 58 470 
177 10 400 443 313 332 165 424 491 260 532 68 
178 7 431 242 128 264 175 187 2 
179 11 414 433 52 297 135 145 149 266 311 217 4 
180 10 57 200 301 155 48 206 6 247 433 4 
181 4 545 336 51 153 
182 5 389 51 355 507 336 
183 10 269 302 131 319 375 334 56 459 14 158 
184 9 487 39 229 372 441 540 541 514 11 
185 10 70 284 439 106 287 221 27 539 374 335 
186 6 333 368 246 205 376 60 
187 11 2 264 335 539 242 137 148 209 175 128 429 
188 11 173 338 55 455 430 478 481 136 65 141 250 
189 11 262 317 502 360 474 484 9 283 227 228 437 
190 7 132 376 205 530 244 20 246 
191 10 543 199 326 24 519 533 86 281 444 192 
192 10 112 169 199 120 534 436 191 225 40 62 
193 11 330 202 4 311 50 521 121 297 111 57 301 
194 8 163 100 260 357 129 61 452 496 
195 9 364 85 93 54 384 230 79 427 454 
196 10 204 28 320 149 341 435 157 407 486 548 
197 10 97 419 328 103 418 421 213 10 19 160 
198 9 126 425 12 345 140 277 352 365 81 
199 10 191 192 112 543 169 86 326 24 519 533 
200 8 155 180 301 57 135 48 321 433 
201 11 413 215 506 549 412 30 361 524 162 304 371 
202 11 330 193 50 121 286 521 4 347 311 57 220 
203 9 92 249 166 53 395 88 295 517 493 
204 10 28 196 320 407 435 157 548 245 149 341 
205 11 376 132 20 246 190 60 244 333 530 90 26 
206 11 247 508 38 286 410 347 180 453 57 138 48 
207 5 527 164 69 423 174 
208 11 337 162 13 361 346 371 318 279 514 73 144 
209 10 148 429 335 87 137 287 539 2 175 187 
210 9 272 298 403 483 259 373 47 237 18 
211 8 44 327 525 142 523 362 356 323 
212 7 154 66 235 492 465 547 8 
213 9 103 197 97 419 328 10 418 421 324 
214 11 331 353 467 123 252 446 255 31 282 409 134 
215 11 413 201 549 506 412 30 361 371 304 162 524 
216 9 477 139 291 520 42 289 153 293 476 
217 10 266 548 245 113 179 297 52 311 329 149 
218 10 550 278 391 442 146 64 358 339 22 224 
219 11 36 343 101 405 445 65 518 263 417 151 382 
220 11 121 347 50 453 286 521 202 247 508 330 193 
221 11 27 106 439 374 185 70 152 424 15 287 284 
222 11 239 143 147 238 45 233 379 527 325 490 95 
223 9 399 522 358 511 339 442 391 22 218 
224 9 64 146 322 278 391 312 442 218 550 
225 10 484 437 40 502 120 534 283 189 262 169 
226 11 524 32 34 412 369 397 406 30 240 466 506 
227 11 474 360 317 189 262 502 256 9 484 228 437 
228 11 9 170 360 415 317 262 189 494 393 78 474 
229 9 540 372 487 441 184 39 3 475 160 
230 7 85 454 427 195 251 499 54 
231 9 497 115 428 411 475 500 37 19 274 
232 8 468 315 16 356 523 110 525 44 
233 8 45 325 95 238 239 222 340 143 
234 9 59 503 122 458 510 236 505 23 457 
235 8 303 8 5 66 212 154 435 157 
236 7 510 234 503 59 122 458 505 
237 9 387 314 373 18 403 298 99 367 210 
238 10 143 45 408 233 239 325 222 379 95 14 
239 11 222 143 238 45 233 325 379 147 95 490 527 
240 6 397 369 465 492 32 226 
241 11 452 46 496 67 61 448 129 280 102 300 165 
242 10 264 128 187 2 175 137 178 431 148 335 
243 11 86 396 536 434 119 21 24 326 519 90 283 
244 11 530 20 205 132 376 190 350 26 60 485 90 
245 10 548 217 28 113 266 329 204 196 149 52 
246 10 333 186 368 205 60 90 376 434 21 20 
247 11 508 206 286 347 38 410 453 138 202 57 220 
248 10 91 80 354 471 168 111 63 521 329 121 
249 11 92 53 88 203 395 517 166 493 295 134 267 
250 11 141 489 430 455 55 172 71 117 394 188 338 
251 6 499 427 454 54 230 85 
252 11 446 409 123 449 307 84 214 285 15 49 108 
253 9 160 421 418 501 441 10 372 487 229 
254 7 102 280 363 67 109 130 46 
255 11 282 31 257 104 426 134 353 312 331 322 88 
256 11 474 105 227 437 502 484 40 138 189 262 317 
257 11 104 31 282 255 426 134 307 322 312 84 353 
258 10 265 340 505 458 122 59 503 75 457 234 
259 9 483 348 451 47 461 370 298 272 210 
260 7 100 194 163 129 313 61 357 
261 8 447 35 172 546 349 117 167 430 
262 11 189 317 502 360 474 484 9 283 227 228 437 
263 11 405 101 36 219 350 343 485 65 17 512 417 
264 10 242 2 187 128 137 175 148 335 539 178 
265 10 258 340 71 505 394 147 388 458 122 59 
266 10 217 548 179 297 113 245 52 311 414 329 
267 9 493 295 395 53 166 467 158 249 203 
268 9 321 416 305 48 6 62 155 308 436 
269 10 183 302 56 131 319 375 334 459 158 537 
270 11 304 159 30 34 144 371 412 524 13 549 74 
271 9 488 41 469 450 171 515 463 274 344 
272 9 210 298 403 483 259 47 373 237 370 
273 7 378 535 156 7 161 390 118 
274 11 500 515 428 115 3 73 475 41 411 37 271 
275 7 127 464 375 14 133 408 183 
276 10 476 420 72 293 385 42 288 432 82 440 
277 11 140 425 126 352 402 81 198 12 342 550 278 
278 10 550 64 146 218 224 402 322 391 442 277 
279 11 318 73 13 3 337 208 346 274 162 144 371 
280 9 46 254 67 102 116 300 448 496 241 
281 11 519 326 533 24 25 543 444 86 119 191 199 
282 11 255 31 257 104 426 353 134 312 331 307 322 
283 10 262 189 225 502 484 317 9 396 360 243 
284 10 70 185 539 287 335 439 209 106 87 2 
285 11 49 310 386 152 84 307 409 316 87 446 374 
286 11 247 347 508 453 206 202 50 220 121 330 193 
287 10 87 209 70 284 335 539 185 439 148 386 
288 5 440 82 336 404 72 
289 9 477 216 139 291 520 42 535 293 273 
290 11 462 392 68 96 532 460 438 89 400 332 165 
291 8 520 139 216 42 477 153 289 293 
292 10 124 366 107 69 495 133 490 423 174 379 
293 11 476 276 420 42 72 216 291 520 139 385 477 
294 6 486 341 145 149 135 52 
295 10 493 166 267 395 53 158 203 249 92 459 
296 6 529 398 479 77 33 151 
297 11 414 179 311 433 4 135 301 52 266 193 330 
298 11 403 373 47 18 272 370 210 367 314 237 483 
299 6 461 451 43 348 370 47 
300 10 448 116 496 46 280 452 357 241 254 67 
301 11 57 180 433 4 414 200 297 135 193 330 311 
302 9 56 131 183 319 269 334 459 158 537 
303 8 5 235 8 435 157 407 66 320 
304 11 270 30 34 159 412 371 144 549 524 506 13 
305 7 416 268 321 62 308 155 48 
306 5 150 538 116 51 280 
307 11 84 426 49 285 446 104 409 31 252 257 310 
308 10 62 456 305 416 268 112 321 192 169 444 
309 5 528 513 17 142 125 
310 10 386 285 49 152 87 84 316 374 307 409 
311 11 4 297 193 330 111 414 179 433 202 266 301 
312 11 322 517 88 134 224 64 146 255 249 282 257 
313 10 332 165 61 129 400 177 260 100 163 194 
314 11 18 373 403 99 237 367 516 298 43 47 370 
315 6 110 232 16 551 468 356 
316 10 87 480 429 386 383 49 29 310 285 544 
317 11 360 189 262 9 474 227 228 502 484 283 170 
318 11 279 73 3 13 337 208 346 162 274 39 144 
319 7 334 131 459 302 158 56 183 
320 9 204 407 157 435 28 196 303 5 341 
321 8 268 416 305 48 6 155 62 200 
322 11 64 312 224 146 278 402 550 257 517 255 218 
323 9 362 525 16 551 44 364 211 85 93 
324 4 328 97 419 19 
325 6 233 45 95 238 239 222 
326 11 519 24 281 86 533 543 191 119 25 444 243 
327 7 142 523 44 211 356 525 456 
328 7 419 97 197 324 19 103 213 
329 9 113 63 168 111 354 217 266 245 548 
330 11 193 202 4 311 50 521 121 57 111 297 301 
331 11 214 353 467 255 282 31 134 123 446 252 426 
332 11 165 313 61 129 400 532 177 452 260 241 100 
333 9 246 368 186 60 205 434 21 90 536 
334 6 459 319 131 158 302 56 
335 10 539 2 187 209 148 137 287 429 264 284 
336 4 507 51 182 545 
337 11 208 162 13 346 361 371 279 318 514 73 11 
338 10 173 188 455 478 136 481 55 430 489 141 
339 10 511 358 22 522 399 223 218 442 550 391 
340 10 258 505 265 95 458 147 503 122 233 59 
341 6 486 294 145 149 196 52 
342 11 81 352 29 402 480 277 140 383 425 126 544 
343 11 36 101 219 65 518 405 263 445 188 151 173 
344 7 463 498 509 469 351 41 401 
345 9 12 198 126 425 365 140 277 22 352 
346 11 337 162 514 361 208 11 541 13 39 318 279 
347 11 453 286 220 247 508 50 121 202 206 410 138 
348 6 451 259 483 461 47 370 
349 10 151 518 77 35 445 447 33 479 219 261 
350 11 485 244 530 263 20 25 405 26 119 512 76 
351 7 509 498 377 344 58 463 470 
352 11 425 81 140 342 277 126 29 383 198 544 402 
353 11 331 134 214 255 467 282 31 493 267 257 395 
354 10 91 248 63 80 168 329 471 111 113 521 
355 5 182 507 389 51 336 
356 9 523 468 232 327 44 525 16 211 456 
357 9 163 194 448 496 129 300 100 452 61 
358 10 522 399 511 223 339 22 442 218 391 550 
359 6 387 237 314 99 18 373 
360 11 317 9 189 262 228 474 227 170 502 283 484 
361 11 162 208 337 346 13 371 514 215 11 541 201 
362 6 323 525 16 44 211 551 
363 8 109 130 102 254 473 67 280 46 
364 8 93 195 85 384 54 79 551 230 
365 7 198 345 504 126 425 544 12 
366 11 69 292 124 107 490 133 423 379 527 495 174 
367 11 43 516 370 18 47 373 403 314 99 298 461 
368 9 333 186 246 434 21 60 536 90 205 
369 8 397 240 492 465 32 226 466 406 
370 11 47 367 43 403 516 18 298 373 461 451 483 
371 11 13 208 159 144 162 337 304 270 361 30 549 
372 9 229 441 540 487 184 160 253 39 475 
373 11 18 403 314 298 367 47 237 370 516 99 43 
374 11 152 439 27 221 310 386 285 449 106 49 15 
375 10 14 275 183 408 127 269 464 302 319 131 
376 7 132 190 205 20 246 530 244 
377 5 351 470 509 58 498 
378 6 273 535 156 7 161 390 
379 11 143 490 133 107 239 222 238 366 69 14 408 
380 10 432 385 404 72 420 82 440 276 476 288 
381 7 98 531 470 482 176 58 526 
382 11 422 33 445 417 151 77 479 219 349 36 343 
383 10 29 544 352 480 504 342 81 316 425 126 
384 10 79 54 93 195 364 85 83 427 251 230 
385 11 72 420 432 276 380 404 476 82 440 293 288 
386 10 310 285 49 152 87 316 84 307 374 409 
387 7 237 314 373 359 403 298 18 
388 10 394 117 71 546 167 172 250 141 489 265 
389 6 182 51 355 507 336 538 
390 6 118 114 94 161 156 7 
391 9 442 218 146 224 64 278 358 399 550 
392 11 68 290 96 462 532 460 438 400 332 89 165 
393 10 494 415 78 170 228 9 94 396 360 114 
394 11 71 388 117 250 141 489 546 172 167 430 455 
395 11 53 493 166 295 249 267 92 203 88 517 134 
396 11 78 243 536 415 434 283 21 368 86 90 9 
397 7 240 369 492 465 32 226 524 
398 6 529 296 479 77 447 33 
399 9 223 522 358 511 339 442 391 218 22 
400 11 177 332 313 165 443 532 68 96 392 61 129 
401 5 171 74 450 83 344 
402 11 81 277 278 342 550 140 64 322 352 146 218 
403 11 373 298 18 314 47 367 370 237 516 43 272 
404 7 82 440 385 72 288 380 432 
405 11 263 36 101 219 343 65 350 417 485 17 530 
406 11 466 32 226 369 524 492 547 154 465 397 240 
407 9 157 435 320 303 5 204 196 8 28 
408 8 14 238 143 375 45 325 233 379 
409 11 252 446 123 449 307 285 49 152 84 15 108 
410 11 38 138 508 105 206 247 453 286 347 256 40 
411 11 37 428 115 497 515 231 500 41 274 58 176 
412 11 30 34 524 549 506 304 413 226 215 270 201 
413 11 215 201 506 549 412 30 524 34 304 361 371 
414 11 433 179 135 297 52 301 4 145 311 149 57 
415 11 78 494 228 393 9 170 396 360 317 283 262 
416 7 305 268 321 62 155 308 48 
417 11 382 422 33 445 219 36 530 405 244 151 190 
418 9 421 160 10 253 501 197 419 97 441 
419 9 97 328 197 103 19 324 421 213 418 
420 11 276 72 385 476 293 432 380 42 404 82 440 
421 9 418 160 253 10 197 501 419 97 19 
422 11 33 382 445 417 479 77 151 219 349 296 36 
423 7 174 164 69 124 366 292 207 
424 10 491 15 108 443 177 449 400 27 123 374 
425 10 126 198 140 352 277 12 345 81 342 29 
426 11 104 31 257 282 307 84 255 480 49 446 353 
427 7 454 251 499 230 54 85 195 
428 11 115 500 411 515 37 274 231 497 41 475 3 
429 10 148 137 209 175 87 316 335 128 2 504 
430 11 55 455 141 250 188 172 489 338 173 35 117 
431 7 178 242 128 264 175 187 2 
432 11 380 385 72 420 404 276 82 440 476 293 288 
433 11 414 135 179 297 52 301 145 4 311 149 57 
434 11 21 536 90 60 26 333 246 119 368 20 243 
435 9 157 407 320 303 5 204 196 8 235 
436 11 534 120 169 6 40 112 48 192 225 105 268 
437 11 484 225 502 40 189 474 262 534 120 256 105 
438 11 460 89 532 67 462 130 290 102 392 363 241 
439 10 27 374 221 106 70 185 152 287 284 310 
440 5 82 404 288 72 385 
441 9 372 487 229 184 540 160 253 421 39 
442 9 391 218 399 358 146 223 522 224 64 
443 9 177 424 491 400 108 15 313 332 165 
444 10 533 543 281 25 519 326 191 24 76 199 
445 11 151 33 382 77 422 219 349 518 417 343 36 
446 11 252 409 123 449 307 84 214 285 49 331 426 
447 8 261 35 349 77 398 151 296 529 
448 10 496 300 116 46 452 357 280 241 129 61 
449 11 15 108 123 409 252 446 152 424 374 285 491 
450 9 171 488 271 74 144 401 469 159 41 
451 8 461 348 483 259 370 47 299 43 
452 11 241 61 496 129 448 46 300 357 165 163 280 
453 11 347 220 286 508 247 138 410 38 206 50 121 
454 7 427 251 499 230 85 54 195 
455 10 55 430 141 250 338 489 188 173 172 478 
456 8 308 62 444 327 356 523 142 305 
457 10 75 542 59 122 23 458 234 503 505 258 
458 10 122 59 503 505 234 510 236 457 75 258 
459 6 334 319 131 158 302 56 
460 11 438 89 532 462 290 392 68 67 130 102 241 
461 9 451 348 299 370 483 259 47 43 367 
462 11 290 392 68 96 460 532 438 89 400 332 165 
463 7 344 469 498 509 41 351 271 
464 8 127 275 14 375 133 495 107 379 
465 7 492 240 369 397 32 154 212 
466 11 406 32 492 369 547 154 226 465 212 240 397 
467 9 267 493 353 331 214 295 395 236 53 
468 6 356 232 523 315 16 44 
469 7 463 41 271 488 344 171 498 
470 7 381 98 58 377 531 482 351 
471 10 521 80 248 91 111 168 121 50 193 330 
472 10 83 74 79 34 270 384 54 304 397 401 
473 6 109 363 130 102 254 67 
474 11 227 317 189 502 262 360 484 437 256 9 228 
475 10 19 500 231 3 115 274 540 428 229 372 
476 10 276 293 420 72 42 385 288 291 520 216 
477 7 139 216 291 289 520 42 153 
478 7 481 136 173 338 188 65 455 
479 9 296 77 33 529 422 398 382 151 445 
480 11 29 342 383 81 316 84 352 544 426 104 307 
481 6 478 136 173 338 188 65 
482 8 531 176 98 381 526 470 58 377 
483 10 259 348 451 47 461 370 298 272 403 210 
484 11 502 437 225 189 262 40 474 283 317 120 360 
485 11 350 25 244 530 263 512 20 76 119 26 405 
486 6 341 294 145 149 52 196 
487 9 184 229 372 540 441 39 541 3 514 
488 8 271 469 41 450 171 515 463 274 
489 10 141 250 455 71 430 55 394 338 117 172 
490 11 366 379 69 107 133 292 527 143 124 222 239 
491 9 424 443 108 15 542 177 23 449 457 
492 8 465 369 240 397 32 154 466 212 
493 11 267 295 395 53 166 249 203 92 158 467 88 
494 10 393 415 78 170 228 9 396 94 360 317 
495 8 292 107 124 133 366 464 69 490 
496 10 448 300 452 46 116 241 357 280 61 129 
497 8 231 115 411 428 37 500 475 19 
498 7 509 351 344 463 377 58 469 
499 5 251 427 454 230 54 
500 11 274 428 115 515 475 3 411 37 231 497 41 
501 9 10 253 418 421 160 197 441 372 419 
502 11 484 189 262 437 474 225 317 360 283 227 40 
503 9 59 122 458 234 505 510 236 457 23 
504 8 544 383 175 29 365 128 137 429 
505 9 458 503 122 59 340 234 510 258 236 
506 11 549 413 215 201 412 30 524 34 304 226 371 
507 5 336 355 182 389 51 
508 11 247 206 38 410 286 453 347 138 105 220 202 
509 6 498 351 344 463 377 58 
510 7 236 234 503 59 122 458 505 
511 10 522 358 339 399 223 22 218 442 391 550 
512 11 125 76 17 485 25 350 263 309 405 444 528 
513 3 528 309 17 
514 11 11 541 346 39 337 162 361 184 208 487 318 
515 11 274 428 500 41 37 115 411 271 488 469 3 
516 11 43 367 99 18 370 314 47 373 403 298 461 
517 8 88 249 92 312 134 203 53 395 
518 11 349 151 35 343 445 219 77 188 36 65 55 
519 11 326 24 281 533 86 543 25 119 191 444 243 
520 7 291 139 42 216 477 153 289 
521 11 50 121 471 202 330 193 220 111 80 168 347 
522 10 358 399 223 511 339 22 442 218 391 550 
523 9 356 44 327 211 525 142 468 232 16 
524 11 226 34 412 30 32 506 549 304 270 413 215 
525 10 362 44 323 211 16 523 327 356 232 551 
526 7 176 482 531 98 381 58 470 
527 9 207 69 490 222 366 147 239 379 143 
528 3 513 17 309 
529 6 296 398 479 77 33 447 
530 11 244 20 132 205 376 190 350 26 60 485 90 
531 8 482 98 176 381 526 470 58 377 
532 11 392 68 460 290 165 332 438 462 96 400 241 
533 11 543 281 326 519 444 24 25 191 86 119 199 
534 10 120 436 40 169 225 112 192 437 484 105 
535 7 273 378 156 7 289 161 477 
536 11 434 21 90 60 26 243 119 396 368 333 246 
537 5 56 203 302 92 166 
538 8 150 306 51 389 182 181 336 116 
539 10 335 2 187 209 284 148 287 264 137 429 
540 9 229 372 487 441 184 3 39 475 73 
541 11 514 11 39 346 184 487 337 162 361 208 229 
542 9 457 75 23 59 122 458 234 491 503 
543 11 533 191 281 444 326 519 24 199 25 86 119 
544 9 383 504 29 352 425 480 316 342 365 
545 3 181 336 51 
546 8 167 117 388 394 172 71 261 250 
547 11 66 466 154 212 8 406 5 235 492 303 465 
548 10 245 217 266 28 113 52 149 196 179 204 
549 11 506 413 215 201 412 30 524 34 304 371 270 
550 11 278 218 146 64 402 391 277 224 442 22 140 
551 10 16 323 110 364 93 315 362 195 232 525 
DEPOT_SECTION
   1
   -1
EOF
