NAME :  X-n716-kX-w143-c7.cctp
COMMENT : 	Adapted by Maziero, Usberti and Cavellucci from the Uchoa, Pecin, Pessoa, Poggi, Subramanian, and Vidal (2013)
TYPE :  CCTP
DIMENSION :    623
EDGE_WEIGHT_TYPE : 	EUC_2D	
CAPACITY : 	1007
VERTICES_WITHIN_COVERAGE :  7
VERTICES_WITH_DEMAND : 	143
NODE_COORD_SECTION
1 377 105
2 535 93
3 820 625
4 689 745
5 807 568
6 589 169
7 649 756
8 821 693
9 567 240
10 517 211
11 598 141
12 903 670
13 713 679
14 574 89
15 395 116
16 829 560
17 409 30
18 804 653
19 918 527
20 829 641
21 828 559
22 559 118
23 591 816
24 985 650
25 510 71
26 528 66
27 556 132
28 568 115
29 692 731
30 877 663
31 703 728
32 820 568
33 716 754
34 790 391
35 613 71
36 898 518
37 838 501
38 465 142
39 440 163
40 859 635
41 907 620
42 532 157
43 791 140
44 463 11
45 894 947
46 883 591
47 718 559
48 697 747
49 928 495
50 877 488
51 732 699
52 747 648
53 541 167
54 801 767
55 817 673
56 495 114
57 853 634
58 769 733
59 592 630
60 481 157
61 832 750
62 630 650
63 858 405
64 774 793
65 393 33
66 918 650
67 842 625
68 781 709
69 670 731
70 698 682
71 888 510
72 691 227
73 607 583
74 684 755
75 719 538
76 561 258
77 657 827
78 712 85
79 686 764
80 620 4
81 801 588
82 802 595
83 651 724
84 558 156
85 679 745
86 815 769
87 466 111
88 544 45
89 884 664
90 720 830
91 700 661
92 765 754
93 525 725
94 486 50
95 743 668
96 765 682
97 679 662
98 677 739
99 821 657
100 678 742
101 627 767
102 597 221
103 484 73
104 709 772
105 738 931
106 564 124
107 619 81
108 841 603
109 807 381
110 817 571
111 822 587
112 547 622
113 768 501
114 676 748
115 861 546
116 981 603
117 671 700
118 954 787
119 506 265
120 535 190
121 711 647
122 951 510
123 673 817
124 664 807
125 568 712
126 802 650
127 813 632
128 752 771
129 541 571
130 649 901
131 782 710
132 734 199
133 626 25
134 459 77
135 708 753
136 896 709
137 516 250
138 724 727
139 717 623
140 621 24
141 813 655
142 606 693
143 717 802
144 341 76
145 390 94
146 533 205
147 628 35
148 871 644
149 953 650
150 972 653
151 911 704
152 462 6
153 799 558
154 856 548
155 426 177
156 650 737
157 698 750
158 677 68
159 882 489
160 500 9
161 706 709
162 618 687
163 724 495
164 769 171
165 813 596
166 493 12
167 569 840
168 800 914
169 814 628
170 761 651
171 449 703
172 459 88
173 780 712
174 743 689
175 671 749
176 780 634
177 666 798
178 757 743
179 935 662
180 703 732
181 446 133
182 840 701
183 716 790
184 689 226
185 544 125
186 719 724
187 542 166
188 698 689
189 763 420
190 791 644
191 688 744
192 641 803
193 913 536
194 773 597
195 704 820
196 703 717
197 883 666
198 812 727
199 695 972
200 483 119
201 458 155
202 569 802
203 818 695
204 680 669
205 604 723
206 702 777
207 849 641
208 793 567
209 494 71
210 723 547
211 817 501
212 682 664
213 654 801
214 770 590
215 819 644
216 568 904
217 825 582
218 805 573
219 619 286
220 444 89
221 802 575
222 531 665
223 611 583
224 882 653
225 432 156
226 941 611
227 654 19
228 827 604
229 517 50
230 673 241
231 873 575
232 805 702
233 873 905
234 382 39
235 572 101
236 724 757
237 659 792
238 724 720
239 696 688
240 528 89
241 841 589
242 458 136
243 474 156
244 395 137
245 464 23
246 787 798
247 449 182
248 472 104
249 719 534
250 826 574
251 510 126
252 576 211
253 827 635
254 531 155
255 553 135
256 532 92
257 571 678
258 524 221
259 831 657
260 715 782
261 573 132
262 501 712
263 786 9
264 397 88
265 528 185
266 614 113
267 370 164
268 722 24
269 676 561
270 810 607
271 839 712
272 791 642
273 906 703
274 497 60
275 897 655
276 933 544
277 905 584
278 619 848
279 794 660
280 500 633
281 777 677
282 701 755
283 538 23
284 659 216
285 479 165
286 762 652
287 635 649
288 603 716
289 469 60
290 961 442
291 830 674
292 906 771
293 610 158
294 908 677
295 380 165
296 724 774
297 898 676
298 647 742
299 523 98
300 685 113
301 981 544
302 676 692
303 680 745
304 645 758
305 557 68
306 757 755
307 686 747
308 799 670
309 516 261
310 507 53
311 785 686
312 495 73
313 617 30
314 398 104
315 587 644
316 632 164
317 687 765
318 530 37
319 708 738
320 670 841
321 420 201
322 832 651
323 669 756
324 834 40
325 790 543
326 971 447
327 758 803
328 578 210
329 721 751
330 708 762
331 622 645
332 701 683
333 537 199
334 820 588
335 734 650
336 841 717
337 488 202
338 741 780
339 788 773
340 991 514
341 640 746
342 849 646
343 879 660
344 697 803
345 537 90
346 478 251
347 652 757
348 589 6
349 588 132
350 832 604
351 553 791
352 863 485
353 722 716
354 811 641
355 477 61
356 653 665
357 943 769
358 417 157
359 623 524
360 563 48
361 732 557
362 877 596
363 520 80
364 746 900
365 719 547
366 833 635
367 682 720
368 708 619
369 717 744
370 576 805
371 724 645
372 624 678
373 420 66
374 684 762
375 603 661
376 565 102
377 658 696
378 657 772
379 685 550
380 420 118
381 611 73
382 739 646
383 696 742
384 499 127
385 630 1
386 458 130
387 703 731
388 540 79
389 704 774
390 794 695
391 809 734
392 636 81
393 667 716
394 866 744
395 908 653
396 592 805
397 805 793
398 611 127
399 579 90
400 524 75
401 758 738
402 489 114
403 494 94
404 528 65
405 547 656
406 559 88
407 522 61
408 890 512
409 995 478
410 544 195
411 814 524
412 801 670
413 901 581
414 709 580
415 924 348
416 945 660
417 607 77
418 734 731
419 695 744
420 648 914
421 531 66
422 400 777
423 709 609
424 854 545
425 739 759
426 850 405
427 956 623
428 674 735
429 522 149
430 767 665
431 668 719
432 700 119
433 884 343
434 738 650
435 704 884
436 686 655
437 669 715
438 839 634
439 673 770
440 535 155
441 681 673
442 612 153
443 680 186
444 508 183
445 617 696
446 854 424
447 752 788
448 609 792
449 727 873
450 682 693
451 539 196
452 657 736
453 621 216
454 786 784
455 941 669
456 629 62
457 799 640
458 512 85
459 790 810
460 659 773
461 814 655
462 723 624
463 614 81
464 766 472
465 746 775
466 724 690
467 553 87
468 488 46
469 728 755
470 629 541
471 545 91
472 683 771
473 759 838
474 770 472
475 828 706
476 947 526
477 571 297
478 891 583
479 617 861
480 473 73
481 684 261
482 949 759
483 549 106
484 669 741
485 607 102
486 496 70
487 681 708
488 624 784
489 548 78
490 864 673
491 952 875
492 651 752
493 709 747
494 724 748
495 266 39
496 894 666
497 928 560
498 707 731
499 511 817
500 622 699
501 779 670
502 805 653
503 714 810
504 912 739
505 652 689
506 620 693
507 508 130
508 528 154
509 534 55
510 453 106
511 820 653
512 707 784
513 618 298
514 798 672
515 720 862
516 614 45
517 493 26
518 757 655
519 504 689
520 845 653
521 551 125
522 734 628
523 705 719
524 463 8
525 680 929
526 576 77
527 574 577
528 478 93
529 801 601
530 716 610
531 924 825
532 692 799
533 490 168
534 644 822
535 757 397
536 873 635
537 723 618
538 778 727
539 701 727
540 655 71
541 878 620
542 629 757
543 834 753
544 883 622
545 852 520
546 828 545
547 737 691
548 698 610
549 660 626
550 710 688
551 725 765
552 653 735
553 724 719
554 829 553
555 635 6
556 853 652
557 759 729
558 598 56
559 731 454
560 699 762
561 931 436
562 877 690
563 646 849
564 672 660
565 692 743
566 782 574
567 723 64
568 479 75
569 560 127
570 418 158
571 610 838
572 406 120
573 509 118
574 645 98
575 627 101
576 999 816
577 793 527
578 742 669
579 616 172
580 458 301
581 700 223
582 747 764
583 677 767
584 687 680
585 902 705
586 529 653
587 769 686
588 810 979
589 891 663
590 917 552
591 580 241
592 828 605
593 845 598
594 494 195
595 903 617
596 652 236
597 957 745
598 720 631
599 573 182
600 716 702
601 698 762
602 480 176
603 520 195
604 887 583
605 609 48
606 533 641
607 906 679
608 721 79
609 887 598
610 634 37
611 990 612
612 927 659
613 654 624
614 552 100
615 846 570
616 525 68
617 892 591
618 462 157
619 909 770
620 649 951
621 863 795
622 619 603
623 869 503
DEMAND_SECTION
2 47
3 21
4 19
5 37
6 40
7 79
8 60
9 88
10 84
11 75
12 12
13 42
14 21
15 91
16 6
17 57
18 7
19 66
20 7
21 99
22 75
23 4
24 85
25 10
26 29
27 6
28 20
29 7
30 50
31 26
32 29
33 99
34 45
35 57
36 14
37 33
38 2
39 38
40 43
41 64
42 85
43 84
44 46
45 53
46 45
47 48
48 48
49 85
50 60
51 2
52 17
53 12
54 99
55 43
56 40
57 29
58 13
59 29
60 26
61 66
62 45
63 34
64 33
65 6
66 72
67 34
68 16
69 36
70 69
71 10
72 10
73 12
74 97
75 87
76 24
77 57
78 17
79 86
80 76
81 81
82 30
83 10
84 36
85 28
86 41
87 53
88 7
89 40
90 46
91 28
92 28
93 62
94 51
95 30
96 98
97 53
98 5
99 15
100 27
101 37
102 68
103 11
104 14
105 71
106 97
107 49
108 50
109 43
110 65
111 19
112 42
113 88
114 96
115 57
116 65
117 36
118 28
119 50
120 38
121 84
122 8
123 69
124 29
125 86
126 99
127 29
128 78
129 79
130 23
131 68
132 50
133 26
134 26
135 57
136 10
137 84
138 64
139 35
140 27
141 3
142 18
143 63
144 100
COVERAGE_SECTION
2 7 256 345 240 471 299 388 614 
3 6 169 127 253 366 20 354 
4 7 191 307 565 419 48 383 303 
5 7 218 221 110 32 153 208 250 
6 6 599 293 579 442 11 84 
7 7 347 304 492 341 298 378 156 
8 6 203 475 232 55 182 291 
9 6 591 76 252 328 102 258 
10 7 258 603 146 333 451 120 265 
11 6 349 442 398 293 261 6 
12 7 297 294 607 496 589 275 395 
13 7 550 332 70 466 188 239 91 
14 7 399 235 526 406 376 467 614 
15 6 314 572 244 145 380 264 
16 7 21 554 32 250 546 110 615 
17 7 65 234 373 245 44 152 524 
18 7 502 126 141 461 279 354 457 
19 7 193 36 276 590 476 408 49 
20 7 253 366 215 322 438 511 259 
21 7 16 554 32 546 250 110 615 
22 7 106 28 569 521 27 483 185 
23 7 396 370 202 571 448 167 278 
24 7 150 149 611 427 416 116 455 
25 7 363 458 486 312 400 616 209 
26 7 404 421 616 407 400 509 363 
27 7 255 569 521 106 22 185 261 
28 7 22 106 376 569 235 261 521 
29 7 539 31 180 387 383 565 419 
30 7 343 89 197 224 589 490 496 
31 7 539 387 180 498 523 29 196 
32 7 110 250 16 21 5 217 218 
33 7 329 135 236 369 493 494 330 
34 6 109 535 189 426 63 446 
35 7 381 417 463 107 456 558 605 
36 7 408 71 19 193 159 623 50 
37 7 211 545 352 623 411 50 546 
38 7 242 386 201 618 243 181 60 
39 7 225 155 201 247 570 618 358 
40 7 57 207 536 148 342 556 67 
41 7 595 544 541 609 66 395 617 
42 6 254 440 508 53 187 429 
43 7 164 132 432 608 78 567 300 
44 7 524 152 245 166 517 160 468 
45 4 233 588 491 168 
46 7 362 609 604 617 478 231 413 
47 7 365 210 361 75 414 249 379 
48 7 157 419 383 565 4 191 282 
49 7 122 19 476 36 408 71 193 
50 7 159 352 623 71 408 36 37 
51 7 547 466 174 600 353 238 553 
52 7 382 434 518 335 170 286 95 
53 7 187 42 440 254 508 84 265 
54 7 86 339 454 397 246 391 61 
55 7 291 99 412 141 308 461 514 
56 7 402 200 384 573 251 403 507 
57 7 40 207 342 67 438 556 366 
58 6 538 557 401 178 92 173 
59 7 315 375 331 622 62 112 287 
60 7 243 285 533 602 618 38 201 
61 7 543 86 391 198 336 54 394 
62 7 287 331 356 372 375 613 549 
63 7 426 446 109 433 34 561 352 
64 7 246 454 327 447 459 339 128 
65 7 234 17 373 264 145 144 314 
66 6 395 612 179 275 12 294 
67 7 438 366 57 207 253 40 20 
68 6 131 173 538 390 311 232 
69 7 428 484 98 431 100 452 393 
70 7 332 239 188 584 550 13 441 
71 7 408 36 623 159 50 19 352 
72 7 184 581 230 284 481 596 443 
73 6 223 622 527 470 59 359 
74 7 374 307 79 317 4 85 114 
75 7 249 365 210 47 361 379 163 
76 7 9 591 477 309 137 252 328 
77 7 534 123 320 124 563 213 192 
78 6 608 567 432 158 300 540 
79 7 317 374 472 74 583 601 560 
80 7 385 555 140 133 313 348 147 
81 7 82 221 529 165 218 334 5 
82 5 529 81 165 270 334 
83 7 552 156 452 298 393 431 69 
84 7 187 53 255 440 27 42 254 
85 7 303 100 114 98 307 175 191 
86 7 54 61 543 397 339 454 391 
87 7 248 510 200 386 528 402 172 
88 7 509 318 360 283 421 26 305 
89 7 197 343 30 589 496 224 275 
90 7 195 503 143 515 344 183 473 
91 7 436 121 212 70 97 13 204 
92 6 306 178 401 58 128 582 
93 7 262 519 125 222 257 351 405 
94 7 468 355 274 289 310 209 486 
95 7 578 434 518 52 335 174 382 
96 7 587 281 430 501 311 174 95 
97 7 212 204 564 436 441 584 91 
98 7 100 428 85 303 484 114 69 
99 7 511 461 141 259 215 322 55 
100 7 85 98 303 114 428 307 484 
101 5 542 488 304 7 341 
102 5 328 252 453 591 9 
103 7 568 209 312 480 486 355 274 
104 7 389 206 330 260 512 560 296 
105 6 364 435 525 199 449 168 
106 7 569 22 28 27 261 521 255 
107 7 463 381 35 417 392 456 575 
108 7 593 350 592 228 241 67 111 
109 7 34 426 535 63 189 446 433 
110 7 32 250 5 218 217 16 21 
111 7 334 217 165 250 110 228 32 
112 7 606 405 586 59 222 315 280 
113 7 464 474 577 163 325 211 411 
114 7 85 175 303 100 98 307 484 
115 6 154 424 545 615 231 546 
116 7 611 427 226 24 150 149 301 
117 7 302 450 487 377 437 393 431 
118 7 357 482 597 531 619 292 576 
119 6 309 137 346 258 10 76 
120 7 451 265 333 410 146 603 53 
121 7 371 91 598 335 139 436 462 
122 7 476 49 19 276 340 301 193 
123 7 124 77 177 320 213 532 344 
124 7 177 213 123 237 77 192 534 
125 6 257 288 205 142 93 445 
126 7 18 502 457 141 190 279 354 
127 7 169 354 3 215 253 457 20 
128 7 465 582 338 306 447 425 92 
129 7 527 112 73 606 223 280 59 
130 7 420 525 620 479 563 435 278 
131 6 68 173 538 390 232 311 
132 6 581 164 72 184 443 230 
133 7 140 147 313 610 555 80 516 
134 7 172 480 220 289 568 355 103 
135 7 493 282 33 330 157 48 329 
136 5 585 273 151 562 607 
137 7 309 119 258 346 10 76 146 
138 7 186 238 553 353 418 498 369 
139 7 462 537 598 368 530 423 522 
140 7 133 313 147 610 80 516 555 
141 7 461 511 99 502 18 126 215 
142 7 445 162 506 500 288 372 205 
143 7 503 183 260 344 512 195 532 
144 7 145 234 264 314 15 65 572 
145 7 264 314 15 572 380 373 244 
146 7 333 451 120 410 603 10 258 
147 7 610 133 313 140 516 605 456 
148 7 536 224 40 343 30 556 57 
149 7 416 150 179 455 427 612 24 
150 7 24 149 416 427 455 179 611 
151 5 273 585 136 607 294 
152 7 524 44 245 166 517 160 468 
153 7 208 5 218 221 325 110 32 
154 7 424 115 615 554 545 546 16 
155 6 39 570 225 358 247 321 
156 7 552 298 452 83 341 492 7 
157 7 48 282 419 383 565 4 135 
158 5 540 78 392 574 608 
159 7 50 352 623 71 408 36 545 
160 6 166 517 44 524 152 245 
161 6 196 523 600 353 31 539 
162 7 506 445 372 142 500 375 288 
163 7 249 559 75 113 464 474 210 
164 6 43 132 432 581 443 72 
165 4 82 270 334 111 
166 6 160 517 44 524 245 152 
167 7 23 370 202 571 396 278 351 
168 3 364 105 588 
169 7 127 3 354 253 215 457 20 
170 7 286 518 52 430 382 434 95 
171 7 262 519 93 280 422 222 586 
172 7 134 220 510 528 248 480 87 
173 7 68 131 538 390 58 311 232 
174 7 547 51 466 578 95 96 587 
175 7 114 323 484 85 100 303 98 
176 6 272 190 457 170 286 126 
177 6 124 237 213 123 192 460 
178 5 401 306 92 557 58 
179 6 455 612 416 66 149 395 
180 7 387 31 498 539 319 29 383 
181 4 242 386 38 201 
182 5 271 475 336 8 203 
183 7 260 512 143 296 104 206 389 
184 7 72 581 230 284 481 596 443 
185 3 521 255 27 
186 7 138 238 553 353 498 523 31 
187 7 53 42 440 254 508 84 265 
188 7 239 70 332 550 584 450 13 
189 6 535 34 559 464 474 109 
190 7 272 457 126 176 18 279 502 
191 7 4 307 565 419 303 383 48 
192 6 213 534 237 124 177 488 
193 6 19 590 276 36 497 408 
194 4 214 566 529 81 
195 7 503 344 90 143 532 123 183 
196 6 523 161 539 31 387 180 
197 7 89 30 343 589 496 224 275 
198 7 391 232 475 61 271 336 203 
199 7 525 620 105 420 130 364 435 
200 7 402 56 384 87 248 528 573 
201 7 618 38 243 242 39 60 285 
202 7 370 351 396 23 167 448 571 
203 6 8 232 475 55 182 291 
204 7 441 212 97 564 584 436 70 
205 3 288 142 445 
206 7 389 104 512 260 560 330 601 
207 7 342 57 40 438 556 520 67 
208 6 153 221 218 566 5 81 
209 7 312 486 103 274 25 568 355 
210 7 365 75 47 361 249 414 379 
211 7 37 411 577 545 546 113 352 
212 7 97 204 441 436 564 584 91 
213 6 237 124 177 192 534 123 
214 3 194 566 81 
215 7 354 511 20 253 461 99 127 
216 7 167 479 278 571 130 420 23 
217 7 111 250 334 110 32 241 165 
218 7 221 5 110 208 32 81 153 
219 6 513 477 591 596 76 9 
220 6 172 134 510 87 248 373 
221 7 218 5 208 81 110 153 32 
222 7 586 405 606 519 257 280 112 
223 6 73 622 527 470 59 613 
224 7 343 30 89 197 589 148 275 
225 6 39 570 358 155 201 181 
226 7 427 41 595 116 149 66 277 
227 7 555 610 133 385 147 140 80 
228 4 592 350 108 165 
229 6 310 407 318 509 26 404 
230 7 184 596 72 481 284 581 443 
231 6 604 46 478 362 617 609 
232 6 390 203 8 475 131 68 
233 3 45 168 491 
234 7 65 17 373 264 144 145 314 
235 7 376 14 399 28 406 614 22 
236 7 469 329 551 33 494 369 425 
237 6 177 213 124 460 378 192 
238 7 553 353 186 138 418 523 498 
239 7 188 70 332 584 550 450 13 
240 7 256 2 345 299 363 400 388 
241 7 593 108 217 350 111 615 228 
242 5 386 38 181 201 618 
243 7 60 285 618 201 38 533 602 
244 6 572 15 358 380 570 295 
245 7 44 524 152 517 166 468 94 
246 7 459 64 454 397 339 327 54 
247 5 39 155 201 618 225 
248 7 87 528 200 510 402 172 403 
249 7 75 365 210 47 361 379 163 
250 7 32 217 110 16 111 21 334 
251 5 507 573 384 56 402 
252 5 328 102 599 9 591 
253 7 20 366 3 215 438 127 169 
254 6 42 508 440 429 53 187 
255 5 27 521 569 185 106 
256 7 2 240 345 299 471 388 363 
257 7 405 125 375 142 315 222 162 
258 7 10 146 333 603 451 137 120 
259 7 322 99 511 520 20 291 461 
260 7 183 512 104 296 206 389 143 
261 7 106 569 349 27 28 22 255 
262 7 519 93 171 222 586 125 405 
263 6 324 268 567 608 78 158 
264 7 145 314 15 373 572 380 220 
265 7 120 603 451 333 410 444 146 
266 4 485 398 575 11 
267 6 295 244 358 570 15 155 
268 6 567 608 78 158 263 227 
269 6 379 414 47 365 75 210 
270 4 165 529 82 228 
271 5 336 182 475 8 203 
272 7 190 457 126 176 18 279 502 
273 5 585 151 136 607 294 
274 7 486 209 310 312 94 25 468 
275 7 589 395 496 224 12 89 197 
276 6 497 590 193 19 476 122 
277 5 413 478 617 604 46 
278 7 479 571 563 534 23 77 192 
279 6 308 18 412 126 502 514 
280 7 606 586 222 112 405 519 129 
281 6 501 311 587 96 430 514 
282 7 157 135 560 601 48 330 493 
283 4 318 88 509 229 
284 7 596 230 184 72 443 453 581 
285 6 60 243 533 602 618 201 
286 7 170 518 430 52 382 434 95 
287 7 62 331 356 372 613 375 549 
288 4 205 142 445 500 
289 7 355 480 568 94 103 134 468 
290 7 326 561 409 49 122 340 476 
291 7 55 259 99 8 322 511 203 
292 7 619 504 357 482 394 621 118 
293 6 442 579 11 316 6 398 
294 4 607 12 297 496 
295 6 267 244 358 570 155 15 
296 7 551 260 104 236 183 338 469 
297 6 12 607 294 496 589 89 
298 7 156 341 552 492 452 7 304 
299 6 240 256 2 345 458 363 
300 5 432 78 574 158 608 
301 7 340 476 122 276 497 116 590 
302 7 450 117 584 487 377 239 441 
303 7 85 100 114 307 98 191 4 
304 7 7 347 492 341 298 542 378 
305 7 489 467 388 406 360 526 88 
306 6 92 178 582 128 401 425 
307 7 4 191 303 85 565 74 100 
308 6 412 514 279 18 55 502 
309 7 119 137 346 258 76 10 9 
310 7 229 274 407 25 468 486 94 
311 6 281 390 587 501 514 96 
312 7 209 486 103 274 25 568 403 
313 7 140 133 147 516 610 605 80 
314 6 15 145 264 572 380 244 
315 7 59 375 331 257 405 62 112 
316 6 579 293 442 11 6 398 
317 7 79 374 472 74 583 601 560 
318 6 88 283 229 509 407 310 
319 7 498 180 387 493 31 369 383 
320 7 77 123 563 534 124 195 177 
321 5 155 247 39 570 358 
322 7 259 20 511 99 520 215 366 
323 7 175 114 583 74 85 439 484 
324 7 263 43 268 567 608 78 164 
325 5 577 153 208 5 411 
326 7 290 409 561 49 122 340 476 
327 7 447 64 246 338 465 128 459 
328 5 252 102 599 591 9 
329 7 494 33 236 369 469 135 493 
330 7 135 560 104 282 601 33 389 
331 7 62 287 375 372 59 315 356 
332 7 70 188 239 550 13 584 450 
333 7 451 146 410 120 265 603 10 
334 6 111 217 165 250 110 228 
335 7 434 382 371 52 95 578 522 
336 5 271 182 475 8 198 
337 5 594 602 444 10 603 
338 7 465 128 447 582 296 425 551 
339 7 454 54 64 246 397 86 92 
340 7 301 409 122 476 276 49 326 
341 5 298 7 156 304 492 
342 7 207 556 520 57 40 438 322 
343 7 30 89 197 224 589 496 148 
344 7 532 195 503 143 512 183 206 
345 7 2 256 471 240 388 299 467 
346 3 119 137 309 
347 7 7 492 304 298 341 378 323 
348 1 80 
349 7 11 261 398 106 28 569 22 
350 5 592 228 108 593 241 
351 7 202 370 396 23 499 167 448 
352 7 50 159 623 37 71 545 408 
353 7 238 553 186 138 600 161 523 
354 7 127 215 457 126 169 502 18 
355 7 289 480 94 103 568 468 209 
356 6 564 287 505 97 62 204 
357 7 482 118 597 619 292 504 531 
358 6 570 225 155 39 244 181 
359 3 470 223 73 
360 5 88 305 509 526 489 
361 6 210 47 365 75 249 414 
362 7 46 609 604 617 478 231 541 
363 7 400 458 240 25 616 26 256 
364 5 105 449 435 515 168 
365 7 210 75 47 249 361 379 414 
366 7 253 438 20 67 3 322 207 
367 6 487 431 437 29 69 393 
368 7 139 423 530 548 537 462 598 
369 7 329 494 493 33 319 135 236 
370 7 202 396 23 351 448 167 571 
371 7 335 121 382 434 598 522 462 
372 7 162 506 445 500 142 375 62 
373 7 264 220 17 134 145 65 314 
374 7 79 317 74 472 583 439 601 
375 7 315 331 372 62 162 142 59 
376 7 235 28 614 406 14 483 22 
377 6 505 117 302 393 437 450 
378 6 460 347 439 7 304 237 
379 6 269 47 365 75 210 249 
380 4 572 15 314 181 
381 7 35 417 463 107 456 558 605 
382 7 434 335 52 371 522 518 95 
383 7 419 565 48 4 157 191 307 
384 6 507 251 573 56 402 200 
385 7 555 80 133 140 227 313 147 
386 5 242 181 38 87 201 
387 7 180 31 498 539 319 29 523 
388 7 489 345 471 2 256 467 240 
389 7 206 104 512 330 560 601 260 
390 6 232 311 68 131 173 514 
391 7 198 61 543 232 538 54 475 
392 7 107 574 456 540 463 575 35 
393 7 437 431 69 117 367 487 83 
394 5 543 61 336 271 136 
395 7 66 275 12 496 589 612 294 
396 7 23 370 448 202 488 571 351 
397 7 246 454 459 54 86 339 64 
398 4 266 11 349 485 
399 7 14 235 526 376 406 467 28 
400 7 363 616 26 404 421 407 25 
401 5 178 557 58 92 306 
402 7 56 200 384 248 573 403 87 
403 7 528 56 458 312 402 103 209 
404 7 26 421 616 407 400 509 363 
405 7 222 586 606 257 112 315 59 
406 7 467 471 614 14 376 489 235 
407 7 404 26 616 421 229 509 400 
408 7 71 36 623 159 50 19 193 
409 7 340 326 290 122 301 476 49 
410 5 451 333 120 146 265 
411 7 577 211 546 325 37 554 153 
412 6 308 514 279 55 18 502 
413 5 277 478 617 604 46 
414 5 47 423 530 548 361 
415 7 433 63 561 426 290 446 326 
416 6 179 455 149 612 150 66 
417 7 381 35 463 107 558 485 456 
418 6 138 238 553 186 353 494 
419 7 383 565 48 4 157 191 307 
420 7 130 525 620 479 435 563 278 
421 7 26 404 616 407 400 509 388 
422 4 171 499 262 93 
423 6 530 368 548 139 537 462 
424 7 154 115 545 546 554 615 16 
425 6 582 469 236 551 465 128 
426 7 63 446 109 34 433 352 50 
427 7 226 149 116 150 611 416 24 
428 7 98 69 100 484 85 303 114 
429 4 508 254 42 440 
430 6 501 286 518 170 281 96 
431 7 393 437 69 367 428 487 83 
432 5 300 78 608 158 574 
433 7 415 63 426 109 446 561 34 
434 7 335 382 52 371 95 578 518 
435 7 449 515 364 525 320 90 105 
436 7 97 212 91 204 564 441 584 
437 7 393 431 367 487 117 69 83 
438 7 366 67 20 207 253 57 342 
439 7 583 472 79 374 460 317 323 
440 6 42 254 508 53 187 429 
441 7 204 212 584 97 564 70 436 
442 6 293 11 579 316 398 6 
443 6 284 184 72 581 316 230 
444 7 603 594 265 533 120 337 10 
445 7 506 500 162 142 372 288 205 
446 7 63 426 352 109 50 159 34 
447 7 338 465 327 128 64 582 296 
448 6 488 396 23 101 192 370 
449 5 515 435 364 90 473 
450 6 302 117 584 239 487 188 
451 6 333 410 120 146 265 603 
452 7 552 156 298 83 484 69 428 
453 7 102 596 284 328 579 252 591 
454 7 339 246 64 397 54 459 86 
455 5 179 416 612 149 66 
456 7 35 392 107 381 516 463 605 
457 7 272 190 126 354 18 502 127 
458 7 363 25 240 400 299 403 256 
459 6 246 64 397 454 327 339 
460 7 378 439 347 237 583 7 323 
461 7 141 511 99 502 18 215 126 
462 6 139 537 598 522 368 530 
463 7 107 417 381 35 392 485 456 
464 6 474 113 559 163 189 211 
465 7 128 338 582 447 425 296 306 
466 7 51 547 550 600 13 174 332 
467 7 406 471 489 614 388 345 2 
468 7 94 274 355 310 517 289 486 
469 7 236 329 494 551 33 425 369 
470 5 359 223 73 269 379 
471 7 345 467 2 614 256 388 489 
472 7 317 583 79 374 439 74 601 
473 5 327 90 459 515 64 
474 6 464 113 559 163 189 211 
475 6 182 271 8 203 336 232 
476 7 122 276 19 193 49 301 497 
477 7 76 513 219 9 591 309 119 
478 6 604 617 413 46 277 609 
479 7 278 571 563 534 130 23 77 
480 7 568 103 355 289 134 172 209 
481 7 230 72 184 581 596 284 219 
482 6 357 597 118 619 504 292 
483 6 614 22 376 471 2 467 
484 7 98 175 428 100 69 114 85 
485 6 266 575 463 107 398 417 
486 7 209 312 274 103 25 568 310 
487 6 367 117 437 450 393 302 
488 6 101 448 192 542 304 213 
489 7 388 467 305 471 406 345 2 
490 6 30 197 343 562 89 556 
491 5 531 576 233 118 45 
492 7 7 347 304 298 341 156 452 
493 7 135 319 369 33 157 282 48 
494 7 329 369 469 236 33 493 135 
495 7 144 234 65 145 264 17 314 
496 7 589 12 89 197 275 297 343 
497 5 590 276 193 277 19 
498 7 180 387 31 319 539 523 186 
499 5 351 202 167 370 23 
500 6 445 506 162 142 372 288 
501 6 281 430 311 96 279 514 
502 7 18 126 141 461 279 354 457 
503 7 143 195 344 183 90 532 512 
504 7 619 292 136 151 585 273 482 
505 6 377 117 302 356 372 450 
506 7 445 162 500 142 372 288 505 
507 5 251 384 573 56 429 
508 6 254 42 440 429 53 187 
509 7 421 404 26 407 88 616 229 
510 5 87 172 220 248 386 
511 7 99 461 141 215 259 322 20 
512 7 260 206 389 183 104 296 143 
513 6 219 477 591 76 596 481 
514 5 308 412 279 55 311 
515 7 449 435 90 195 364 473 503 
516 7 605 313 147 558 140 610 133 
517 6 166 160 468 94 245 310 
518 7 170 286 52 430 95 382 434 
519 7 262 222 93 586 405 280 606 
520 7 342 556 207 322 259 20 438 
521 6 185 27 569 255 22 106 
522 5 462 598 537 139 382 
523 7 196 31 539 161 387 498 180 
524 7 152 44 245 166 517 160 468 
525 7 420 620 130 199 435 105 364 
526 7 14 399 406 305 235 467 376 
527 7 73 129 223 112 622 59 470 
528 7 248 403 568 172 103 480 87 
529 4 82 270 81 165 
530 6 423 537 368 139 462 548 
531 6 118 292 491 619 357 621 
532 7 344 512 195 206 143 503 123 
533 6 285 602 60 243 444 594 
534 7 77 192 213 124 563 123 320 
535 6 189 34 109 559 464 474 
536 7 148 40 541 544 57 224 207 
537 6 462 139 530 598 368 522 
538 7 58 173 131 68 557 401 178 
539 7 31 387 180 498 523 29 196 
540 5 392 158 456 574 107 
541 7 544 536 40 362 609 148 595 
542 4 101 304 341 7 
543 7 61 86 391 394 198 54 336 
544 7 541 536 595 41 609 148 40 
545 7 37 623 424 115 154 546 71 
546 7 554 21 16 32 411 424 110 
547 7 174 51 466 578 95 600 13 
548 5 423 368 530 139 537 
549 4 613 287 564 62 
550 7 13 332 188 70 239 466 600 
551 7 236 296 469 33 329 425 104 
552 7 156 452 298 83 69 341 484 
553 7 238 353 186 138 418 523 600 
554 7 21 16 546 32 250 110 615 
555 7 385 80 133 140 227 147 313 
556 7 342 520 207 40 57 148 322 
557 5 401 58 178 538 418 
558 7 605 516 35 381 417 463 526 
559 6 464 163 474 189 113 535 
560 7 601 282 330 157 317 79 135 
561 7 290 326 49 159 50 122 409 
562 6 490 197 297 30 89 136 
563 7 77 320 278 534 479 571 123 
564 6 97 212 204 436 441 356 
565 7 419 4 191 383 48 307 157 
566 6 208 214 221 153 218 81 
567 6 608 78 268 158 432 300 
568 7 103 480 355 209 312 289 486 
569 7 106 27 22 521 255 28 261 
570 6 358 225 155 39 244 181 
571 7 278 479 23 396 534 563 167 
572 6 15 380 314 244 145 264 
573 5 251 507 384 56 402 
574 4 575 392 540 107 
575 5 266 574 485 107 392 
576 7 118 357 491 482 531 597 619 
577 5 325 411 153 211 113 
578 7 95 434 174 335 518 52 382 
579 6 293 316 442 6 11 453 
580 3 346 119 309 
581 7 72 184 230 481 132 284 443 
582 6 128 425 465 306 338 92 
583 7 439 472 79 374 317 74 323 
584 7 441 70 239 204 188 332 450 
585 5 273 136 151 607 294 
586 7 222 606 405 280 112 519 257 
587 7 96 281 311 501 430 68 174 
588 5 168 105 45 233 364 
589 7 496 89 197 275 343 224 12 
590 4 497 193 276 19 
591 6 9 76 102 252 328 453 
592 4 228 350 108 165 
593 7 108 241 350 592 228 111 217 
594 6 337 444 602 603 533 10 
595 7 41 544 541 609 617 46 277 
596 7 284 230 453 184 72 481 581 
597 6 482 357 118 504 619 292 
598 7 462 139 537 522 371 368 121 
599 5 6 328 252 84 410 
600 7 161 466 353 550 51 553 196 
601 7 560 282 330 317 79 157 135 
602 6 285 533 60 243 594 618 
603 7 265 10 120 146 333 444 451 
604 7 478 46 617 413 609 231 362 
605 7 516 558 313 35 147 456 381 
606 7 586 405 112 222 280 257 315 
607 5 294 12 297 496 589 
608 6 78 567 158 432 300 268 
609 7 46 617 362 604 478 413 277 
610 7 147 133 140 313 516 456 227 
611 7 116 427 24 150 226 149 416 
612 6 179 66 455 416 395 12 
613 4 549 287 62 331 
614 7 483 471 376 467 406 2 345 
615 7 16 241 250 21 154 217 554 
616 7 26 404 421 400 407 363 25 
617 7 478 46 604 609 413 277 362 
618 7 201 243 38 60 285 242 39 
619 7 292 504 357 482 118 394 621 
620 7 420 525 130 199 435 105 216 
621 6 292 394 543 619 61 86 
622 7 223 73 59 613 331 549 62 
623 7 50 159 352 71 408 545 37 
DEPOT_SECTION
   1
   -1
EOF
