NAME :  X-n749-kX-w74-c11.cctp
COMMENT : 	Adapted by Maziero, Usberti and Cavellucci from the Uchoa, Pecin, Pessoa, Poggi, Subramanian, and Vidal (2013)
TYPE :  CCTP
DIMENSION :    574
EDGE_WEIGHT_TYPE : 	EUC_2D	
CAPACITY : 	396
VERTICES_WITHIN_COVERAGE :  11
VERTICES_WITH_DEMAND : 	74
NODE_COORD_SECTION
1 643 512
2 707 407
3 394 355
4 140 470
5 364 215
6 493 857
7 117 466
8 462 38
9 551 479
10 545 460
11 423 274
12 440 602
13 525 357
14 574 994
15 387 377
16 583 424
17 16 481
18 615 427
19 511 799
20 110 518
21 223 506
22 163 520
23 834 419
24 442 482
25 42 547
26 478 421
27 372 108
28 320 252
29 731 372
30 341 234
31 787 331
32 433 254
33 555 397
34 640 350
35 565 185
36 320 196
37 64 374
38 283 411
39 46 582
40 328 453
41 779 448
42 602 152
43 466 934
44 280 317
45 403 425
46 482 80
47 504 575
48 649 348
49 388 331
50 518 731
51 550 364
52 745 421
53 384 205
54 236 226
55 602 498
56 670 80
57 380 177
58 135 333
59 594 841
60 189 250
61 682 470
62 515 19
63 311 39
64 398 363
65 217 615
66 530 879
67 410 679
68 382 240
69 146 456
70 543 339
71 316 436
72 397 382
73 507 783
74 436 314
75 88 469
76 158 431
77 722 341
78 121 445
79 470 876
80 82 446
81 220 551
82 534 495
83 502 5
84 411 463
85 338 218
86 282 593
87 457 514
88 321 215
89 642 783
90 265 503
91 113 541
92 638 920
93 523 805
94 722 444
95 364 408
96 310 484
97 519 392
98 240 338
99 603 451
100 759 337
101 297 386
102 167 488
103 402 351
104 472 108
105 580 538
106 695 410
107 104 462
108 404 98
109 114 450
110 456 111
111 756 305
112 446 59
113 86 489
114 557 516
115 44 553
116 618 456
117 404 261
118 460 908
119 379 268
120 633 383
121 331 210
122 706 444
123 570 378
124 514 367
125 175 505
126 586 552
127 386 95
128 734 396
129 93 530
130 791 501
131 417 932
132 389 341
133 479 232
134 378 185
135 447 23
136 665 479
137 527 14
138 517 904
139 441 419
140 325 83
141 766 356
142 337 208
143 62 529
144 620 439
145 426 246
146 772 362
147 486 62
148 418 385
149 511 494
150 650 348
151 271 262
152 411 558
153 646 356
154 696 414
155 728 486
156 373 318
157 424 669
158 37 391
159 527 551
160 467 76
161 47 399
162 519 673
163 177 563
164 694 337
165 123 536
166 451 780
167 432 394
168 379 160
169 545 767
170 109 240
171 512 821
172 398 332
173 604 453
174 446 505
175 662 382
176 98 478
177 619 86
178 440 331
179 111 379
180 313 75
181 378 124
182 345 109
183 140 505
184 369 214
185 471 938
186 295 494
187 406 535
188 507 9
189 337 217
190 557 465
191 694 200
192 143 453
193 488 429
194 68 566
195 594 723
196 397 360
197 671 843
198 801 435
199 142 482
200 6 644
201 515 950
202 367 377
203 147 488
204 414 917
205 339 119
206 108 87
207 605 490
208 575 507
209 532 463
210 115 540
211 202 497
212 48 487
213 5 557
214 473 812
215 98 491
216 468 325
217 128 283
218 542 852
219 327 183
220 689 497
221 643 790
222 87 460
223 595 425
224 358 159
225 719 414
226 577 932
227 487 810
228 456 549
229 419 419
230 220 574
231 396 468
232 527 214
233 458 24
234 527 678
235 91 444
236 634 503
237 355 117
238 149 516
239 121 467
240 365 233
241 564 673
242 643 335
243 594 567
244 368 64
245 448 908
246 470 869
247 305 267
248 469 868
249 582 349
250 727 340
251 735 436
252 460 476
253 461 906
254 179 434
255 498 36
256 304 429
257 367 144
258 479 327
259 604 443
260 558 409
261 371 88
262 513 866
263 388 135
264 277 459
265 412 274
266 537 411
267 693 319
268 603 794
269 371 214
270 98 529
271 476 2
272 404 102
273 415 273
274 578 488
275 404 330
276 512 538
277 109 606
278 654 46
279 14 285
280 483 231
281 501 824
282 526 585
283 664 331
284 56 415
285 560 452
286 398 275
287 388 344
288 148 546
289 419 366
290 37 552
291 510 758
292 154 358
293 588 23
294 317 496
295 610 553
296 101 531
297 597 86
298 682 434
299 779 374
300 118 357
301 458 252
302 496 396
303 235 313
304 725 432
305 492 69
306 443 349
307 429 390
308 443 58
309 358 258
310 289 187
311 313 208
312 297 425
313 443 516
314 543 458
315 797 465
316 513 45
317 564 201
318 435 16
319 357 400
320 537 509
321 364 62
322 709 500
323 539 440
324 179 201
325 492 865
326 429 5
327 667 984
328 265 491
329 541 338
330 399 351
331 100 480
332 327 163
333 678 434
334 173 106
335 327 276
336 346 168
337 135 440
338 386 214
339 345 84
340 79 687
341 516 484
342 773 468
343 244 603
344 45 401
345 390 262
346 515 532
347 489 973
348 657 919
349 114 522
350 293 326
351 393 348
352 177 517
353 350 158
354 643 781
355 514 33
356 662 863
357 254 350
358 402 378
359 710 395
360 388 325
361 256 400
362 207 297
363 800 371
364 574 924
365 509 86
366 455 472
367 31 603
368 120 491
369 141 450
370 468 101
371 268 677
372 85 472
373 387 214
374 426 270
375 381 324
376 457 865
377 562 354
378 567 453
379 413 912
380 403 427
381 523 918
382 389 370
383 453 486
384 573 379
385 191 580
386 423 683
387 319 275
388 612 413
389 459 44
390 683 490
391 786 466
392 596 138
393 473 859
394 592 373
395 381 210
396 127 314
397 716 359
398 384 243
399 93 482
400 760 471
401 194 604
402 768 315
403 727 512
404 421 623
405 55 365
406 508 407
407 399 120
408 729 403
409 197 490
410 492 445
411 146 443
412 241 369
413 646 486
414 132 542
415 384 384
416 617 237
417 609 513
418 449 444
419 808 393
420 626 449
421 773 960
422 670 376
423 777 492
424 146 551
425 360 508
426 94 660
427 473 382
428 434 322
429 170 460
430 354 262
431 301 175
432 717 388
433 123 484
434 843 415
435 69 466
436 796 452
437 413 237
438 351 384
439 821 294
440 396 325
441 272 191
442 419 258
443 391 760
444 515 18
445 637 988
446 876 412
447 327 110
448 90 512
449 630 373
450 680 354
451 224 510
452 564 151
453 528 173
454 474 967
455 414 347
456 135 481
457 455 897
458 453 24
459 516 867
460 562 814
461 418 933
462 148 784
463 511 480
464 551 776
465 725 450
466 469 558
467 101 446
468 43 517
469 567 415
470 399 115
471 99 504
472 209 156
473 570 935
474 664 488
475 479 56
476 649 209
477 387 178
478 80 463
479 360 169
480 640 488
481 298 260
482 287 721
483 382 315
484 659 867
485 322 258
486 205 652
487 616 354
488 218 21
489 529 714
490 828 384
491 630 396
492 374 408
493 477 75
494 43 364
495 404 366
496 526 74
497 83 360
498 459 934
499 196 555
500 682 409
501 409 376
502 476 39
503 531 448
504 566 402
505 549 831
506 133 461
507 469 68
508 302 430
509 517 292
510 557 57
511 380 411
512 89 524
513 544 311
514 429 219
515 539 887
516 498 861
517 451 15
518 445 659
519 400 240
520 298 186
521 250 655
522 534 558
523 456 479
524 506 804
525 296 419
526 368 320
527 466 505
528 388 190
529 577 164
530 417 375
531 784 347
532 435 53
533 393 173
534 520 751
535 644 335
536 453 44
537 215 464
538 416 198
539 491 848
540 261 548
541 334 468
542 558 308
543 535 942
544 446 325
545 624 371
546 271 71
547 364 389
548 468 103
549 217 249
550 550 410
551 96 395
552 543 380
553 30 452
554 357 65
555 358 152
556 577 491
557 718 433
558 232 501
559 346 235
560 358 411
561 459 113
562 49 567
563 136 439
564 765 305
565 529 87
566 130 452
567 490 841
568 592 865
569 283 390
570 323 281
571 533 53
572 400 325
573 150 462
574 395 247
DEMAND_SECTION
2 86
3 42
4 29
5 22
6 21
7 61
8 22
9 12
10 72
11 71
12 28
13 16
14 14
15 4
16 74
17 64
18 40
19 38
20 64
21 46
22 65
23 82
24 99
25 65
26 53
27 1
28 13
29 29
30 68
31 64
32 37
33 52
34 47
35 7
36 86
37 88
38 9
39 36
40 80
41 91
42 75
43 42
44 75
45 94
46 23
47 48
48 33
49 22
50 63
51 80
52 6
53 21
54 39
55 61
56 55
57 15
58 56
59 35
60 86
61 93
62 32
63 5
64 15
65 14
66 71
67 10
68 57
69 39
70 70
71 19
72 40
73 90
74 42
75 48
COVERAGE_SECTION
2 11 106 359 154 225 432 408 500 557 128 304 122 
3 11 196 330 351 64 103 287 132 495 382 455 15 
4 11 506 199 456 573 69 192 203 239 369 566 433 
5 11 184 269 240 395 53 338 373 85 189 559 142 
6 11 516 325 539 567 393 262 459 246 248 79 281 
7 11 239 107 109 506 433 566 78 176 331 4 456 
8 11 389 536 502 233 458 135 475 517 112 308 507 
9 11 190 10 314 82 209 274 285 556 378 320 341 
10 11 314 190 209 285 503 9 323 378 82 341 463 
11 10 374 273 265 442 32 117 286 145 345 437 
12 11 404 152 466 228 518 47 157 187 67 386 313 
13 11 124 70 329 51 552 97 377 302 33 123 513 
14 11 473 226 445 543 364 201 347 381 327 92 454 
15 11 382 415 72 358 64 196 202 495 501 3 547 
16 11 223 469 259 504 260 388 18 378 99 173 285 
17 4 553 212 468 435 
18 8 144 388 259 223 420 99 173 116 
19 7 524 93 73 171 227 281 214 
20 11 349 270 296 471 129 448 165 512 91 210 368 
21 10 451 558 211 409 90 537 81 328 352 125 
22 10 352 238 125 183 288 102 424 203 414 165 
23 11 434 490 198 419 446 436 315 363 41 391 299 
24 11 383 523 366 252 174 527 313 87 84 418 231 
25 8 115 290 562 143 468 194 39 213 
26 11 193 410 302 406 139 418 427 97 167 366 252 
27 11 181 127 237 261 182 470 407 263 272 108 205 
28 11 485 247 387 481 335 30 570 559 430 88 85 
29 11 397 432 128 359 408 77 250 141 2 146 225 
30 11 559 85 189 240 121 142 28 88 309 5 430 
31 11 531 402 100 141 146 564 111 363 299 439 250 
32 11 145 442 374 11 301 273 437 265 117 514 519 
33 11 260 504 550 552 469 266 123 384 51 97 16 
34 11 153 48 150 242 535 487 449 545 283 120 175 
35 7 317 529 452 453 232 42 392 
36 11 311 219 121 88 142 520 189 85 431 310 332 
37 10 405 494 497 161 158 344 551 284 179 300 
38 9 525 312 569 508 256 101 361 71 264 
39 8 562 367 194 115 290 25 213 143 
40 11 541 71 256 508 96 312 294 525 264 560 186 
41 11 436 391 342 315 198 400 52 423 251 130 465 
42 10 392 529 452 35 317 297 177 476 453 416 
43 11 185 498 118 253 245 454 457 347 461 131 201 
44 8 350 357 98 303 151 247 570 387 
45 11 380 229 511 492 139 84 167 72 95 148 231 
46 10 493 305 160 147 507 475 370 548 365 104 
47 8 282 159 522 276 466 346 228 12 
48 11 150 34 153 242 535 283 449 450 487 545 422 
49 11 360 132 172 375 440 287 572 275 483 351 156 
50 11 489 534 291 169 73 234 464 162 19 93 241 
51 11 377 552 123 13 70 384 329 33 249 124 504 
52 11 251 304 408 128 225 557 94 465 2 41 432 
53 11 395 338 373 269 528 184 134 5 477 57 533 
54 11 549 151 441 60 324 310 481 520 472 362 311 
55 10 207 417 274 556 208 236 480 116 173 105 
56 10 278 177 297 392 42 293 510 191 529 452 
57 11 477 134 533 528 168 479 53 224 395 555 257 
58 6 396 300 292 217 179 497 
59 6 568 460 505 268 218 484 
60 10 549 324 362 54 217 303 170 151 396 472 
61 7 136 390 474 220 122 298 333 
62 11 444 137 188 355 83 255 316 571 271 502 147 
63 11 180 140 546 554 339 321 244 447 261 182 205 
64 11 196 495 3 382 330 103 351 358 501 15 72 
65 11 401 343 486 230 385 521 81 499 163 86 371 
66 9 515 459 262 138 218 516 325 381 6 
67 11 386 157 518 404 12 443 162 166 234 50 152 
68 11 398 574 240 519 345 338 373 119 269 184 117 
69 11 192 573 369 411 506 4 566 337 563 429 199 
70 11 329 377 13 51 513 542 124 249 552 123 384 
71 9 256 508 40 312 525 541 38 264 96 
72 11 358 15 415 501 382 495 64 148 530 196 3 
73 11 19 524 291 93 227 534 171 169 281 214 464 
74 9 428 544 178 216 275 306 572 455 440 
75 11 372 222 478 176 399 331 107 435 113 80 215 
76 7 411 254 563 337 369 192 69 
77 11 250 397 164 29 267 100 450 141 432 111 402 
78 8 109 566 337 563 467 506 7 369 
79 11 246 248 376 393 325 457 6 253 516 118 539 
80 8 235 222 478 467 75 435 372 107 
81 11 230 499 385 451 540 21 163 558 352 211 343 
82 8 320 341 9 149 463 114 209 10 
83 11 188 444 62 271 137 355 255 316 502 233 8 
84 11 231 24 380 45 418 229 366 383 523 252 139 
85 11 189 142 121 30 88 559 5 311 36 184 240 
86 10 343 540 230 65 521 81 371 401 90 385 
87 10 527 174 313 383 24 228 523 252 366 466 
88 11 121 311 189 85 142 36 30 559 219 28 520 
89 10 354 221 268 197 59 195 356 460 484 464 
90 11 328 186 558 21 451 540 264 96 294 211 537 
91 8 210 165 296 270 349 414 20 129 
92 11 348 484 226 356 364 445 327 473 568 197 59 
93 6 19 524 171 73 281 227 
94 11 465 304 557 251 122 225 52 2 154 298 155 
95 9 560 492 319 511 547 438 202 415 15 
96 11 294 186 541 40 264 328 71 90 256 425 508 
97 11 406 302 124 266 552 13 33 550 51 260 427 
98 7 357 303 412 44 362 350 361 
99 9 173 259 116 144 420 18 223 16 378 
100 11 141 402 531 146 31 111 250 564 77 299 29 
101 9 569 38 525 312 361 256 508 71 438 
102 9 125 203 199 429 409 352 573 4 22 
103 11 330 3 351 196 64 455 495 132 287 172 275 
104 7 548 370 561 110 46 160 493 
105 10 126 208 114 243 295 417 55 556 274 522 
106 10 154 2 500 359 225 298 333 432 557 408 
107 11 7 109 467 75 176 222 239 331 372 235 399 
108 8 272 127 470 407 27 261 181 263 
109 9 78 467 7 107 566 239 506 337 235 
110 6 561 548 104 370 160 46 
111 11 564 402 100 31 250 77 531 141 146 267 439 
112 6 308 532 536 389 507 8 
113 9 399 215 176 331 372 75 471 448 478 
114 8 208 320 82 105 556 274 9 346 
115 8 25 290 562 194 39 143 468 213 
116 6 420 173 99 144 259 18 
117 11 345 265 286 442 273 574 519 11 374 119 437 
118 10 253 245 457 498 43 185 79 246 248 376 
119 8 345 286 309 398 117 430 574 68 
120 11 449 491 545 175 153 34 487 388 48 422 150 
121 11 142 189 85 88 36 311 30 219 559 5 184 
122 10 94 557 465 304 298 251 333 154 225 61 
123 11 384 394 33 51 504 377 552 249 260 469 550 
124 11 13 97 552 302 51 70 329 406 427 266 377 
125 9 352 22 102 409 211 238 203 183 199 
126 10 105 243 295 417 114 208 522 55 159 556 
127 8 261 108 27 272 470 407 181 244 
128 11 408 432 225 29 359 52 2 304 251 557 106 
129 7 270 512 296 448 20 349 91 
130 10 423 391 315 342 400 436 41 155 403 198 
131 10 461 204 379 245 498 43 118 253 457 185 
132 11 287 351 49 172 330 3 103 360 440 275 375 
133 4 280 301 32 232 
134 11 57 477 528 533 53 479 168 395 184 269 338 
135 11 458 517 233 318 8 536 389 326 532 502 308 
136 6 474 61 413 390 480 220 
137 11 62 444 188 355 83 316 255 571 271 510 502 
138 11 381 66 515 459 262 543 201 325 516 6 79 
139 11 229 418 167 307 26 45 380 148 193 427 530 
140 11 180 339 447 182 554 205 321 237 63 261 244 
141 11 146 100 531 299 31 363 29 402 250 77 397 
142 11 121 189 85 88 36 311 30 219 5 559 184 
143 4 468 25 512 115 
144 7 420 18 259 116 99 173 388 
145 11 32 442 437 374 117 514 519 11 273 265 574 
146 11 141 299 531 100 363 31 29 402 419 250 128 
147 11 305 475 493 46 507 160 502 255 316 389 365 
148 10 530 307 501 167 358 289 72 495 64 15 
149 7 341 463 82 320 209 346 9 
150 11 48 153 34 535 242 283 450 449 422 487 545 
151 11 481 247 28 54 387 485 570 44 549 335 303 
152 10 187 228 12 313 466 87 174 404 425 527 
153 11 34 48 150 242 535 449 545 120 487 175 283 
154 10 106 2 500 225 298 359 333 557 122 432 
155 10 322 403 400 465 220 94 390 122 342 61 
156 6 526 483 375 360 49 440 
157 11 386 67 518 404 12 162 443 234 152 50 166 
158 7 161 344 494 284 37 405 497 
159 8 522 276 346 47 282 320 114 105 
160 9 507 493 46 475 147 370 305 112 548 
161 6 344 158 284 37 405 494 
162 9 234 489 241 50 518 534 291 282 195 
163 11 499 385 424 288 230 401 22 81 352 414 238 
164 11 267 450 77 283 397 250 150 48 422 535 29 
165 10 210 91 414 349 20 296 270 288 424 129 
166 6 214 227 73 524 19 291 
167 9 307 148 530 139 229 501 289 358 72 
168 10 57 533 257 477 224 479 555 134 263 353 
169 10 464 534 291 73 93 50 19 460 524 489 
170 11 217 396 324 60 58 279 549 362 300 497 292 
171 6 281 524 93 19 227 567 
172 10 275 440 572 49 360 132 287 351 103 330 
173 9 99 259 116 144 420 18 223 16 207 
174 10 313 87 383 527 24 523 252 366 228 187 
175 11 422 120 153 449 450 500 491 48 150 34 545 
176 11 331 399 75 215 372 113 107 222 7 478 239 
177 10 297 56 278 392 42 510 293 452 529 565 
178 7 544 428 74 306 216 455 275 
179 4 551 300 497 37 
180 11 140 339 63 447 546 554 182 205 321 244 237 
181 11 263 27 407 257 470 237 127 272 555 168 182 
182 10 205 237 447 339 27 140 261 181 257 127 
183 11 238 203 199 368 456 22 433 349 102 20 4 
184 11 269 5 395 53 338 373 240 68 134 85 528 
185 11 43 498 454 118 253 245 347 457 201 461 131 
186 11 96 294 328 90 264 541 40 71 558 508 540 
187 11 152 313 174 228 425 87 24 466 527 231 383 
188 11 83 444 62 137 355 255 271 316 502 233 571 
189 11 85 121 142 88 30 559 311 5 36 184 240 
190 11 10 285 9 314 378 209 274 323 503 556 82 
191 8 476 416 42 392 267 56 111 529 
192 11 69 369 411 573 506 566 337 563 4 78 239 
193 11 26 410 406 302 418 503 97 139 427 266 323 
194 6 562 39 115 25 290 143 
195 9 241 169 489 464 268 50 354 89 534 
196 11 64 3 330 495 103 351 382 287 358 15 501 
197 10 356 484 221 89 354 59 348 568 92 268 
198 11 436 41 315 391 23 342 419 434 400 52 490 
199 11 456 203 4 433 573 183 506 368 69 102 239 
200 11 367 39 340 213 562 426 290 115 194 25 277 
201 11 543 381 347 454 138 185 43 473 498 364 226 
202 9 547 438 415 15 382 319 72 95 492 
203 10 199 456 183 4 102 433 573 368 238 506 
204 9 379 131 461 245 457 118 253 498 43 
205 10 182 447 237 27 339 257 555 140 181 353 
206 10 334 472 488 324 170 546 60 54 441 549 
207 11 55 417 274 556 236 208 480 116 173 99 413 
208 10 556 274 114 55 105 207 417 9 320 82 
209 11 314 10 503 323 9 190 341 463 285 82 378 
210 8 91 165 296 414 349 270 20 129 
211 8 409 21 451 125 558 352 537 102 
212 7 435 468 17 113 553 372 478 
213 10 290 25 115 562 39 367 468 143 194 17 
214 6 227 281 524 567 166 19 
215 11 399 331 113 176 471 368 448 372 75 433 20 
216 6 258 544 178 74 428 306 
217 10 396 170 58 60 300 292 362 497 549 179 
218 5 505 66 459 262 515 
219 11 36 332 336 121 142 431 311 520 88 353 189 
220 8 390 322 474 61 136 155 403 413 
221 10 89 354 268 197 59 356 484 195 460 568 
222 11 478 75 372 80 235 107 435 467 176 399 331 
223 11 16 18 259 388 99 144 173 469 504 116 420 
224 10 555 353 479 336 257 168 57 332 134 477 
225 11 2 408 304 557 359 128 154 106 432 52 251 
226 11 473 364 543 381 515 14 92 201 138 568 66 
227 8 214 281 524 19 171 567 73 93 
228 10 466 87 313 174 527 152 187 12 47 276 
229 11 45 380 139 167 307 148 418 511 72 358 501 
230 11 81 385 499 343 401 65 163 540 451 86 21 
231 11 84 380 45 24 229 425 418 366 511 383 523 
232 4 317 453 280 35 
233 11 458 135 517 8 389 536 502 318 271 326 112 
234 9 162 489 241 50 534 195 291 518 169 
235 8 80 467 222 107 478 109 75 372 
236 7 480 413 417 55 207 474 136 
237 10 182 205 27 181 447 257 261 339 555 127 
238 11 183 22 125 203 352 288 414 102 165 199 424 
239 11 7 506 433 566 107 109 4 456 78 368 176 
240 11 5 68 184 559 269 398 30 309 338 395 373 
241 8 234 162 489 195 50 534 169 282 
242 11 535 48 34 150 153 283 487 449 545 450 120 
243 9 126 295 105 417 522 114 208 55 159 
244 8 321 554 261 339 127 27 140 108 
245 10 118 253 457 498 43 204 379 185 79 131 
246 10 248 79 393 376 325 6 516 539 457 567 
247 7 481 387 485 28 570 335 151 
248 10 246 79 393 376 325 6 516 539 457 567 
249 11 377 394 123 384 487 51 70 329 545 542 552 
250 11 77 397 29 100 164 267 141 111 402 432 450 
251 11 304 94 465 557 52 225 122 408 2 128 400 
252 10 523 366 383 24 527 174 418 87 313 410 
253 10 118 457 245 43 498 79 185 246 248 376 
254 4 76 429 411 69 
255 11 355 316 502 62 444 188 475 147 83 305 8 
256 10 508 312 525 71 38 40 264 101 569 541 
257 10 555 224 168 353 181 263 479 237 336 57 
258 8 216 544 178 306 74 428 509 124 
259 9 99 173 144 18 116 223 420 16 388 
260 11 550 469 504 33 266 16 123 552 384 323 223 
261 10 127 27 244 339 321 554 182 237 108 272 
262 10 459 516 66 325 6 539 218 515 567 138 
263 11 181 407 257 470 168 27 555 272 224 237 533 
264 11 328 508 186 312 256 96 525 71 90 38 40 
265 10 273 11 286 117 374 442 345 32 145 574 
266 11 550 260 33 97 323 406 469 504 552 503 302 
267 11 164 283 77 450 250 397 150 242 535 48 153 
268 10 221 89 354 460 59 464 169 505 195 568 
269 11 184 5 395 338 53 373 240 68 528 134 398 
270 8 296 129 512 20 349 91 448 210 
271 11 83 233 517 188 458 135 502 8 255 444 62 
272 8 108 470 127 407 27 181 261 263 
273 10 265 11 374 117 442 286 32 345 145 574 
274 11 556 208 55 207 9 190 114 378 285 417 10 
275 9 172 572 440 49 360 132 455 103 287 
276 7 346 159 522 47 320 149 466 
277 6 426 194 91 210 424 39 
278 10 56 177 293 297 510 392 42 571 137 496 
279 11 494 405 37 497 170 158 217 396 161 344 300 
280 4 133 301 232 32 
281 8 171 227 567 524 539 19 93 214 
282 9 47 522 159 276 346 466 126 243 105 
283 11 535 242 150 48 450 34 153 164 267 422 175 
284 5 161 344 158 80 37 
285 11 378 190 10 314 323 9 503 209 16 469 274 
286 9 265 117 345 273 119 11 442 374 574 
287 11 132 351 3 49 330 103 172 196 360 64 275 
288 9 424 414 165 22 238 163 210 91 352 
289 9 530 501 495 148 455 64 358 103 196 
290 8 25 115 562 39 213 143 194 468 
291 11 534 73 50 169 19 464 524 489 93 227 166 
292 4 58 300 179 396 
293 10 510 137 571 297 177 278 62 444 355 316 
294 10 96 186 541 40 425 90 328 264 71 256 
295 7 243 126 105 417 236 55 208 
296 9 270 129 512 20 91 349 210 448 165 
297 10 177 510 392 293 42 565 278 496 571 56 
298 6 333 154 500 122 106 61 
299 11 146 363 141 531 419 100 31 29 128 490 52 
300 6 179 58 497 292 396 551 
301 9 32 133 145 280 374 442 11 514 437 
302 11 406 97 427 26 124 193 266 13 410 552 550 
303 9 98 362 357 44 412 350 151 549 60 
304 11 557 251 94 465 225 122 52 408 2 154 106 
305 11 147 46 493 475 507 365 160 316 255 496 502 
306 7 178 544 428 289 455 216 74 
307 10 167 148 530 501 289 358 139 229 72 495 
308 6 112 532 536 389 8 507 
309 8 430 119 240 559 30 68 398 345 
310 10 520 431 441 36 311 219 88 332 121 142 
311 11 88 36 121 142 189 85 520 219 310 431 30 
312 10 525 508 256 38 71 569 101 264 40 361 
313 11 174 87 527 383 24 228 523 187 252 366 466 
314 11 10 209 190 503 285 323 9 378 341 82 463 
315 10 391 436 342 41 198 423 130 400 23 52 
316 11 355 255 571 62 444 147 305 496 137 188 475 
317 7 35 232 529 453 452 42 416 
318 11 326 135 517 458 233 536 8 389 532 271 308 
319 9 95 560 547 438 492 202 511 415 15 
320 8 82 114 149 346 9 341 208 276 
321 8 244 554 261 339 127 140 27 182 
322 8 220 403 155 390 61 474 136 465 
323 11 503 314 10 209 285 266 190 378 550 260 469 
324 11 60 472 549 54 170 441 334 217 362 151 310 
325 11 516 6 539 393 262 246 248 459 567 79 376 
326 10 318 517 135 458 233 536 8 271 532 389 
327 11 445 348 92 14 226 421 473 364 484 356 543 
328 11 90 186 264 558 21 451 96 294 537 540 211 
329 11 70 13 377 513 51 542 124 249 552 123 384 
330 11 103 3 351 196 64 287 132 455 495 172 382 
331 11 176 399 215 75 113 372 107 7 368 433 222 
332 9 219 336 353 431 224 555 36 479 520 
333 6 298 500 154 106 122 61 
334 9 472 206 324 488 546 441 54 310 180 
335 6 570 387 485 247 28 430 
336 10 353 479 224 332 555 219 257 168 57 134 
337 8 563 411 369 566 78 192 69 506 
338 11 373 395 53 269 184 5 528 68 240 398 134 
339 11 140 554 182 261 321 244 447 180 237 27 205 
340 8 426 200 277 367 39 462 194 562 
341 7 463 149 82 209 320 9 314 
342 11 391 400 41 315 423 436 130 198 155 251 465 
343 11 65 230 86 401 521 81 385 540 486 499 163 
344 6 161 158 284 37 405 494 
345 10 119 117 286 574 398 68 519 265 273 442 
346 7 276 159 320 522 149 82 47 
347 11 454 201 185 43 498 543 381 118 253 138 245 
348 11 92 484 356 327 445 197 226 364 568 473 59 
349 11 20 296 165 270 210 91 129 471 512 448 414 
350 4 44 357 98 570 
351 11 287 3 330 132 103 196 64 172 49 275 455 
352 9 125 22 238 102 211 409 183 288 203 
353 10 224 555 336 479 257 332 168 219 57 134 
354 10 89 221 268 197 195 59 356 460 484 464 
355 11 316 62 444 255 137 188 571 83 502 147 305 
356 10 484 197 348 92 568 59 221 89 354 268 
357 8 98 412 44 303 350 569 361 101 
358 11 72 501 495 15 382 530 64 148 196 415 289 
359 11 432 2 106 225 408 128 154 29 500 397 557 
360 11 49 375 440 172 483 572 132 156 275 287 526 
361 9 38 569 412 101 525 312 357 508 256 
362 9 303 549 60 98 357 151 44 54 58 
363 11 299 419 146 531 490 141 31 100 23 434 198 
364 11 226 473 543 381 515 138 568 66 92 201 14 
365 11 565 496 305 46 147 493 316 571 475 104 160 
366 11 252 523 383 24 418 174 527 87 84 313 410 
367 9 39 562 200 290 115 194 213 25 277 
368 11 433 456 215 331 183 199 239 7 471 176 203 
369 10 192 69 411 566 337 563 506 573 4 78 
370 8 548 104 561 110 46 160 493 507 
371 9 521 482 486 343 65 86 401 230 385 
372 11 75 478 222 399 176 113 331 435 107 215 80 
373 11 338 395 53 269 184 5 528 68 240 398 519 
374 11 11 273 442 265 32 117 145 286 437 301 345 
375 10 360 483 49 156 526 440 132 172 572 287 
376 7 248 246 79 393 457 325 6 
377 11 51 249 70 123 329 384 552 394 13 33 542 
378 11 285 190 10 314 9 323 16 99 209 503 173 
379 9 204 131 461 245 457 118 253 498 43 
380 11 45 229 511 492 84 139 231 95 167 72 148 
381 11 138 543 201 515 66 473 364 459 262 185 226 
382 11 15 64 196 72 358 415 3 495 330 501 351 
383 10 523 24 252 366 174 527 87 313 418 84 
384 11 123 394 504 33 51 377 552 249 260 469 550 
385 11 163 401 499 230 81 65 424 288 343 352 22 
386 11 67 157 518 404 12 443 162 166 234 50 489 
387 6 570 335 247 485 28 481 
388 9 18 223 491 144 16 259 120 99 420 
389 10 536 8 502 112 233 308 458 475 135 507 
390 8 220 474 61 136 322 413 480 155 
391 10 315 342 436 41 400 423 198 130 251 52 
392 9 42 529 452 297 35 177 317 453 565 
393 9 246 248 79 376 6 325 539 516 567 
394 11 384 123 249 487 545 377 449 504 120 51 33 
395 11 53 338 373 269 184 5 528 134 240 68 57 
396 7 58 217 300 292 497 179 170 
397 11 77 29 250 432 164 359 450 128 267 408 100 
398 11 68 574 519 345 240 119 117 338 373 309 437 
399 11 176 331 113 215 372 75 107 222 471 478 368 
400 11 342 391 423 41 155 315 436 465 130 251 94 
401 11 385 65 230 163 486 499 343 81 424 288 521 
402 11 564 111 100 31 531 141 146 250 77 439 299 
403 8 322 155 220 390 400 423 61 465 
404 11 12 518 157 67 386 152 466 228 187 47 313 
405 10 494 37 497 158 161 344 284 551 179 300 
406 11 302 97 266 193 26 124 410 550 427 552 323 
407 8 470 263 272 181 108 127 27 257 
408 11 128 225 432 359 2 52 304 29 557 251 106 
409 8 211 125 102 21 537 352 451 558 
410 11 193 26 503 463 406 418 209 252 341 366 323 
411 9 369 192 337 563 69 76 566 573 506 
412 6 357 98 361 569 303 38 
413 6 480 474 136 236 390 61 
414 9 165 288 210 424 91 349 238 20 296 
415 11 15 72 382 202 358 547 64 492 501 196 495 
416 6 476 317 35 529 191 42 
417 10 55 207 236 208 105 556 274 295 480 126 
418 11 139 366 252 523 26 24 229 84 193 383 410 
419 11 490 363 299 23 434 198 146 531 141 436 41 
420 6 116 144 173 99 259 18 
421 10 327 348 445 92 356 484 197 226 14 364 
422 11 175 450 153 150 48 500 120 34 449 106 359 
423 10 130 342 400 391 315 41 436 155 403 198 
424 9 288 414 165 163 210 91 22 238 349 
425 10 294 541 187 231 96 40 186 84 152 313 
426 7 340 277 367 200 39 194 562 
427 9 302 26 167 406 124 306 307 97 139 
428 8 74 178 544 306 275 455 216 572 
429 7 573 69 102 192 254 411 76 
430 7 309 119 559 335 30 240 485 
431 10 520 310 219 36 332 441 311 88 121 336 
432 11 359 128 408 2 29 225 397 106 154 500 52 
433 11 368 456 239 7 199 4 331 203 506 176 215 
434 11 23 446 490 419 198 436 363 315 41 299 391 
435 7 478 372 75 222 80 113 399 
436 11 315 41 391 198 342 400 423 130 23 52 419 
437 11 519 145 574 442 514 32 117 398 68 345 338 
438 8 547 202 319 95 560 415 492 15 
439 11 31 402 564 531 111 100 363 141 146 299 490 
440 10 572 172 360 275 49 375 132 483 287 351 
441 10 310 520 431 311 36 54 88 219 121 332 
442 11 145 374 32 117 11 273 265 437 519 574 286 
443 4 166 67 386 157 
444 11 62 188 137 355 83 255 316 571 271 502 475 
445 11 327 14 92 348 226 473 364 543 484 356 201 
446 11 434 23 490 419 198 363 436 315 41 299 391 
447 9 205 182 140 237 339 180 27 261 257 
448 8 471 512 129 270 20 215 296 113 
449 11 545 120 153 491 487 34 48 150 175 394 242 
450 11 164 422 283 150 48 175 153 397 267 34 535 
451 10 21 558 211 409 81 90 328 537 352 125 
452 7 529 35 392 42 453 317 232 
453 5 35 232 452 317 529 
454 11 347 185 43 498 201 118 253 245 461 543 131 
455 9 103 330 275 289 196 351 495 3 172 
456 11 199 4 433 203 368 239 506 7 573 183 69 
457 10 253 118 245 79 246 248 376 498 43 393 
458 11 233 135 517 8 318 536 389 502 326 271 532 
459 10 262 66 516 325 6 218 515 539 138 567 
460 6 505 93 464 59 218 268 
461 10 131 204 379 245 498 43 118 253 457 185 
462 8 340 426 486 482 371 521 277 65 
463 8 341 149 82 209 503 10 314 320 
464 10 169 93 460 534 73 291 19 524 268 505 
465 11 94 251 304 557 122 52 155 225 400 154 298 
466 11 228 47 87 276 313 12 346 527 152 159 174 
467 9 235 109 107 80 78 222 7 75 478 
468 5 143 25 212 115 290 
469 11 260 504 16 550 33 223 266 384 123 285 323 
470 8 407 272 108 181 263 127 27 261 
471 11 448 215 20 113 512 349 399 331 270 368 176 
472 9 324 334 441 54 310 549 431 520 60 
473 11 226 364 543 381 201 515 14 138 66 92 568 
474 7 136 413 390 480 61 220 236 
475 11 147 507 502 305 493 160 389 46 8 255 536 
476 7 416 191 42 317 529 35 392 
477 11 57 533 134 528 168 53 479 395 224 538 338 
478 10 222 75 372 435 80 235 176 399 107 331 
479 10 224 336 353 555 168 57 134 257 477 533 
480 6 413 236 474 136 207 55 
481 9 247 28 485 387 151 335 570 30 88 
482 8 371 521 486 443 343 65 86 67 
483 8 156 375 360 526 49 440 572 172 
484 11 356 197 348 92 568 59 221 89 354 268 364 
485 9 28 387 247 335 570 481 30 430 559 
486 11 65 521 401 343 371 385 230 163 86 499 81 
487 11 545 34 449 153 394 242 48 120 249 535 150 
488 9 546 63 334 180 140 206 472 447 339 
489 11 50 234 534 162 291 241 169 195 464 73 19 
490 11 419 363 434 23 299 446 531 198 146 31 141 
491 10 120 449 388 545 18 175 153 144 394 487 
492 11 511 95 560 319 547 415 202 438 15 45 72 
493 9 46 160 507 147 305 475 370 548 104 
494 9 405 37 158 161 344 497 284 551 179 
495 11 64 196 501 358 3 103 289 330 382 530 72 
496 10 565 365 571 316 305 510 147 355 46 255 
497 8 37 405 179 300 551 494 161 158 
498 11 43 185 118 245 253 454 457 461 131 204 347 
499 11 163 81 385 230 352 22 288 401 424 451 125 
500 7 106 154 2 298 333 359 175 
501 11 358 530 495 72 148 289 64 196 382 15 307 
502 11 8 475 389 255 233 536 147 458 507 135 305 
503 11 323 209 314 10 285 190 378 9 266 463 341 
504 11 260 33 469 550 123 384 16 266 552 223 394 
505 5 460 218 93 171 59 
506 11 566 4 192 239 69 369 7 573 78 456 337 
507 9 160 493 475 46 147 305 112 389 308 
508 10 256 312 525 71 38 40 264 101 569 541 
509 5 513 542 258 329 70 
510 10 571 496 565 293 316 297 355 137 365 62 
511 11 492 95 560 319 45 415 547 380 72 15 202 
512 7 129 270 448 296 20 471 349 
513 8 542 329 70 509 377 13 51 249 
514 11 437 538 145 32 519 442 373 338 301 574 53 
515 9 66 138 459 262 218 381 516 364 325 
516 11 6 325 539 262 459 567 393 246 248 79 66 
517 11 135 458 233 318 326 8 271 536 389 502 532 
518 11 157 386 67 404 12 162 234 489 47 50 466 
519 11 574 437 398 68 117 345 442 145 373 338 119 
520 10 310 431 36 441 311 219 88 332 121 142 
521 11 371 486 65 343 86 401 482 230 385 81 540 
522 9 159 282 276 346 47 114 320 105 126 
523 10 252 366 383 24 174 527 87 418 313 84 
524 7 19 93 171 227 73 281 214 
525 10 312 256 508 38 71 569 101 264 361 40 
526 6 156 375 483 360 49 440 
527 10 87 174 383 313 523 252 24 366 228 149 
528 11 134 477 57 53 533 395 338 373 269 538 168 
529 8 452 35 42 392 317 453 232 297 
530 10 501 289 148 358 495 307 72 64 167 196 
531 11 31 146 141 100 299 363 402 564 111 419 250 
532 6 308 112 536 389 8 135 
533 10 477 57 528 134 168 53 479 538 224 263 
534 11 291 50 169 73 489 464 19 93 524 227 171 
535 11 242 48 150 34 283 153 487 449 450 545 120 
536 9 389 8 112 308 458 532 233 135 502 
537 5 409 211 558 21 429 
538 11 514 528 53 373 338 533 477 395 437 134 57 
539 10 567 6 516 325 393 281 262 246 248 459 
540 11 81 90 230 86 451 558 21 328 343 186 499 
541 11 40 96 294 71 186 425 256 508 312 264 231 
542 8 513 70 329 509 377 249 51 13 
543 11 201 381 473 138 226 364 347 515 66 185 14 
544 7 178 428 74 216 306 258 455 
545 11 449 120 487 34 491 153 394 48 150 175 242 
546 9 180 63 140 447 488 339 182 205 554 
547 9 202 319 438 95 415 492 560 15 511 
548 7 370 104 561 110 46 160 493 
549 10 60 54 362 151 324 303 441 481 247 98 
550 11 260 266 33 469 504 552 323 16 97 123 384 
551 4 179 497 37 300 
552 11 51 33 97 123 13 384 550 124 266 377 504 
553 5 17 212 435 284 478 
554 9 321 244 339 261 140 127 180 27 182 
555 10 224 353 257 479 336 168 57 332 181 263 
556 11 274 208 55 207 9 114 190 378 417 82 285 
557 11 304 94 122 251 465 225 2 154 52 408 106 
558 9 21 451 211 90 328 409 537 81 540 
559 11 30 85 240 189 309 5 142 430 121 28 184 
560 9 95 319 492 511 547 438 202 415 15 
561 6 110 548 104 370 160 46 
562 8 39 115 194 290 25 143 367 213 
563 8 337 411 369 566 78 192 69 506 
564 11 111 402 100 31 531 141 250 77 146 439 299 
565 9 496 365 571 305 510 316 46 147 493 
566 10 506 78 369 192 337 563 69 109 239 411 
567 9 539 6 281 516 325 393 171 227 214 
568 8 59 218 505 515 460 364 66 484 
569 9 101 38 361 525 312 256 508 412 357 
570 6 335 387 247 485 28 481 
571 11 316 496 510 355 565 62 137 255 444 365 305 
572 9 440 275 172 360 49 132 375 483 287 
573 11 69 192 4 369 506 411 429 199 566 456 203 
574 10 519 398 68 345 117 437 119 442 286 145 
DEPOT_SECTION
   1
   -1
EOF
