NAME :  X-n766-kX-w306-c9.cctp
COMMENT : 	Adapted by Maziero, Usberti and Cavellucci from the Uchoa, Pecin, Pessoa, Poggi, Subramanian, and Vidal (2013)
TYPE :  CCTP
DIMENSION :    702
EDGE_WEIGHT_TYPE : 	EUC_2D	
CAPACITY : 	166
VERTICES_WITHIN_COVERAGE :  9
VERTICES_WITH_DEMAND : 	306
NODE_COORD_SECTION
1 0 0
2 409 418
3 378 220
4 469 585
5 91 695
6 455 648
7 86 403
8 493 292
9 124 630
10 43 202
11 961 668
12 538 143
13 114 523
14 273 287
15 884 865
16 551 791
17 609 232
18 69 625
19 191 484
20 562 650
21 858 506
22 688 951
23 174 158
24 175 404
25 314 484
26 210 517
27 574 158
28 76 499
29 136 195
30 47 593
31 87 897
32 526 650
33 683 60
34 437 962
35 863 428
36 866 335
37 16 391
38 948 422
39 1 945
40 13 299
41 404 889
42 974 290
43 59 281
44 966 52
45 815 145
46 238 897
47 546 414
48 297 370
49 421 143
50 292 86
51 420 958
52 661 796
53 98 757
54 15 722
55 599 669
56 287 134
57 925 251
58 115 179
59 449 945
60 487 960
61 683 779
62 628 855
63 290 322
64 145 109
65 356 887
66 416 654
67 899 981
68 228 187
69 634 10
70 673 503
71 999 237
72 280 64
73 407 977
74 417 841
75 773 52
76 922 376
77 270 503
78 998 123
79 353 527
80 352 21
81 19 697
82 590 322
83 326 401
84 851 668
85 156 557
86 700 423
87 232 556
88 272 248
89 383 472
90 659 930
91 62 513
92 551 459
93 108 723
94 127 359
95 765 936
96 199 264
97 942 980
98 595 746
99 736 127
100 808 393
101 194 803
102 879 138
103 329 531
104 544 840
105 384 143
106 622 102
107 350 231
108 656 364
109 730 846
110 800 218
111 556 454
112 967 994
113 654 141
114 213 582
115 158 64
116 381 518
117 281 153
118 991 305
119 322 68
120 378 996
121 941 397
122 89 16
123 666 113
124 518 249
125 665 277
126 796 357
127 759 988
128 938 366
129 688 589
130 224 487
131 626 118
132 852 200
133 948 17
134 816 580
135 243 75
136 55 873
137 585 640
138 841 326
139 41 67
140 418 268
141 445 424
142 897 432
143 404 444
144 391 537
145 574 728
146 411 117
147 167 197
148 502 596
149 724 799
150 137 619
151 121 457
152 857 627
153 847 277
154 658 690
155 508 997
156 638 579
157 601 692
158 884 98
159 524 729
160 610 664
161 845 965
162 554 127
163 817 205
164 612 861
165 142 905
166 735 77
167 990 120
168 63 415
169 259 715
170 322 763
171 97 810
172 459 337
173 664 488
174 538 13
175 148 748
176 876 902
177 30 706
178 434 176
179 604 49
180 464 151
181 734 742
182 390 613
183 879 972
184 957 393
185 351 361
186 614 200
187 840 412
188 162 699
189 166 217
190 640 833
191 309 407
192 468 408
193 663 357
194 834 918
195 560 636
196 338 624
197 29 716
198 885 881
199 819 918
200 818 716
201 657 620
202 315 660
203 767 710
204 28 821
205 639 287
206 973 213
207 37 615
208 669 338
209 273 325
210 533 9
211 716 872
212 517 434
213 561 232
214 0 537
215 843 863
216 929 542
217 705 899
218 207 798
219 911 610
220 339 859
221 612 102
222 316 810
223 365 275
224 760 848
225 393 15
226 313 107
227 104 662
228 280 739
229 860 699
230 517 239
231 982 715
232 570 26
233 27 603
234 71 270
235 301 17
236 376 970
237 618 71
238 451 280
239 322 295
240 21 95
241 552 836
242 957 868
243 756 914
244 911 695
245 456 521
246 216 642
247 266 379
248 23 325
249 157 140
250 689 733
251 971 840
252 420 309
253 187 599
254 160 281
255 942 581
256 736 235
257 283 191
258 243 947
259 701 533
260 688 457
261 882 105
262 880 403
263 727 763
264 570 595
265 623 916
266 841 842
267 950 982
268 752 33
269 853 91
270 224 467
271 252 39
272 184 424
273 117 489
274 956 1000
275 972 425
276 895 182
277 668 858
278 289 178
279 397 772
280 490 992
281 958 336
282 308 253
283 270 351
284 654 299
285 143 955
286 423 495
287 288 575
288 647 818
289 585 134
290 874 685
291 599 498
292 812 27
293 346 184
294 225 623
295 306 312
296 66 672
297 692 808
298 873 625
299 963 854
300 406 262
301 592 596
302 541 20
303 78 96
304 406 574
305 218 533
306 779 657
307 615 657
308 721 148
309 447 492
310 468 394
311 486 290
312 579 792
313 356 736
314 315 612
315 58 395
316 290 79
317 729 421
318 356 702
319 656 508
320 743 847
321 548 92
322 454 572
323 49 808
324 902 700
325 801 148
326 968 613
327 309 508
328 484 528
329 417 871
330 590 883
331 588 906
332 85 837
333 50 718
334 939 795
335 105 219
336 679 87
337 935 858
338 637 841
339 43 674
340 3 542
341 783 185
342 539 977
343 605 590
344 960 56
345 587 221
346 581 900
347 194 248
348 207 151
349 293 630
350 273 573
351 422 318
352 234 860
353 301 713
354 206 726
355 602 361
356 859 230
357 962 915
358 550 353
359 249 328
360 725 828
361 81 319
362 549 215
363 585 62
364 806 233
365 417 151
366 29 337
367 28 797
368 903 544
369 180 278
370 894 511
371 708 654
372 146 870
373 537 706
374 622 795
375 951 148
376 492 839
377 104 80
378 775 9
379 789 686
380 227 95
381 452 189
382 488 244
383 605 462
384 978 354
385 894 959
386 648 116
387 596 57
388 560 381
389 337 243
390 555 699
391 556 92
392 348 195
393 725 18
394 672 142
395 534 484
396 595 369
397 547 135
398 503 150
399 525 398
400 542 437
401 650 135
402 942 842
403 552 921
404 466 261
405 584 443
406 626 568
407 439 321
408 718 266
409 533 231
410 674 161
411 669 79
412 428 5
413 638 718
414 34 333
415 403 892
416 384 624
417 575 146
418 648 154
419 656 373
420 436 227
421 883 410
422 415 834
423 655 565
424 747 331
425 985 962
426 659 480
427 775 47
428 520 443
429 643 534
430 410 356
431 920 324
432 610 14
433 527 229
434 641 50
435 491 20
436 559 497
437 856 433
438 638 485
439 367 202
440 959 121
441 586 434
442 303 743
443 377 740
444 437 871
445 638 183
446 898 946
447 654 71
448 535 8
449 816 858
450 848 841
451 623 349
452 562 292
453 469 187
454 933 277
455 502 750
456 557 736
457 909 533
458 522 831
459 986 393
460 638 100
461 498 835
462 554 269
463 771 974
464 542 759
465 781 219
466 466 370
467 236 287
468 375 290
469 538 500
470 432 394
471 500 734
472 950 392
473 519 148
474 535 229
475 406 224
476 912 370
477 893 908
478 402 173
479 515 391
480 525 148
481 763 808
482 557 729
483 500 29
484 637 159
485 976 323
486 541 414
487 260 372
488 398 168
489 514 765
490 574 448
491 931 992
492 361 158
493 538 113
494 491 269
495 497 533
496 733 250
497 548 50
498 908 293
499 683 466
500 699 366
501 562 673
502 467 137
503 610 675
504 641 54
505 630 119
506 431 793
507 328 389
508 372 101
509 524 908
510 858 6
511 435 784
512 584 463
513 519 733
514 317 132
515 604 158
516 983 457
517 511 585
518 907 343
519 627 247
520 901 332
521 689 533
522 546 156
523 355 930
524 588 246
525 404 127
526 601 493
527 388 924
528 600 73
529 930 112
530 686 332
531 395 917
532 507 405
533 615 262
534 876 977
535 435 108
536 809 927
537 521 849
538 601 80
539 48 799
540 717 125
541 546 482
542 322 236
543 905 895
544 511 215
545 166 836
546 498 231
547 618 125
548 539 424
549 787 969
550 919 958
551 409 768
552 477 915
553 420 79
554 568 275
555 839 150
556 355 725
557 615 191
558 766 234
559 673 566
560 423 762
561 442 171
562 403 55
563 639 371
564 837 336
565 885 892
566 384 474
567 862 505
568 309 275
569 992 289
570 697 410
571 390 123
572 305 640
573 359 186
574 629 740
575 544 788
576 499 737
577 974 260
578 339 757
579 602 118
580 770 156
581 989 366
582 353 228
583 441 358
584 497 210
585 576 115
586 502 232
587 373 696
588 859 428
589 561 324
590 595 357
591 998 458
592 806 797
593 485 162
594 829 360
595 449 277
596 526 761
597 908 981
598 335 791
599 502 274
600 923 363
601 698 99
602 909 979
603 986 411
604 614 151
605 698 294
606 668 73
607 556 420
608 557 187
609 552 849
610 346 216
611 769 505
612 569 541
613 919 370
614 699 319
615 989 314
616 455 187
617 945 932
618 479 893
619 639 494
620 948 927
621 820 824
622 652 92
623 948 942
624 372 659
625 542 251
626 342 391
627 789 947
628 683 440
629 973 865
630 943 907
631 551 554
632 633 204
633 426 745
634 927 980
635 602 251
636 481 4
637 628 134
638 346 250
639 656 459
640 558 601
641 768 185
642 631 104
643 966 113
644 809 870
645 494 697
646 600 127
647 807 418
648 416 19
649 975 299
650 649 646
651 640 109
652 610 549
653 989 457
654 341 236
655 523 10
656 936 356
657 720 140
658 943 386
659 485 338
660 788 498
661 587 435
662 443 245
663 571 95
664 332 64
665 668 266
666 408 844
667 687 234
668 937 404
669 864 155
670 503 291
671 987 528
672 385 875
673 789 895
674 415 607
675 537 223
676 621 144
677 371 45
678 407 837
679 484 378
680 710 162
681 640 104
682 671 15
683 978 976
684 269 160
685 403 3
686 482 896
687 499 14
688 628 69
689 984 364
690 924 466
691 922 957
692 744 71
693 393 41
694 418 720
695 914 314
696 409 313
697 737 602
698 432 103
699 429 662
700 358 858
701 512 303
702 360 105
DEMAND_SECTION
2 85
3 89
4 71
5 68
6 52
7 76
8 57
9 73
10 89
11 100
12 61
13 92
14 99
15 56
16 91
17 71
18 69
19 79
20 93
21 61
22 94
23 63
24 89
25 88
26 100
27 96
28 92
29 75
30 69
31 72
32 86
33 77
34 68
35 81
36 100
37 95
38 68
39 71
40 79
41 55
42 73
43 82
44 67
45 91
46 96
47 62
48 76
49 53
50 78
51 53
52 61
53 100
54 70
55 57
56 99
57 61
58 55
59 66
60 57
61 70
62 73
63 84
64 80
65 84
66 94
67 53
68 99
69 61
70 96
71 80
72 67
73 87
74 91
75 58
76 84
77 96
78 96
79 97
80 68
81 100
82 60
83 90
84 81
85 60
86 91
87 97
88 55
89 64
90 75
91 65
92 67
93 51
94 60
95 56
96 62
97 85
98 73
99 68
100 81
101 80
102 100
103 64
104 84
105 78
106 54
107 9
108 6
109 4
110 3
111 5
112 7
113 5
114 6
115 10
116 4
117 1
118 4
119 9
120 5
121 2
122 5
123 1
124 7
125 7
126 10
127 1
128 9
129 9
130 5
131 8
132 2
133 3
134 8
135 8
136 9
137 9
138 5
139 1
140 1
141 5
142 2
143 1
144 5
145 7
146 10
147 10
148 6
149 9
150 3
151 2
152 3
153 2
154 2
155 9
156 3
157 6
158 8
159 6
160 9
161 5
162 10
163 6
164 10
165 6
166 7
167 2
168 1
169 9
170 4
171 8
172 7
173 5
174 9
175 10
176 3
177 10
178 5
179 9
180 7
181 9
182 8
183 1
184 8
185 6
186 9
187 10
188 6
189 9
190 2
191 2
192 3
193 7
194 4
195 9
196 2
197 7
198 7
199 9
200 7
201 9
202 8
203 5
204 5
205 6
206 6
207 4
208 2
209 5
210 5
211 10
212 8
213 4
214 2
215 9
216 3
217 5
218 10
219 6
220 7
221 10
222 2
223 9
224 5
225 9
226 9
227 1
228 10
229 8
230 3
231 2
232 9
233 10
234 2
235 4
236 7
237 10
238 7
239 7
240 6
241 5
242 3
243 6
244 2
245 5
246 8
247 8
248 9
249 2
250 5
251 1
252 9
253 1
254 1
255 1
256 7
257 1
258 7
259 5
260 8
261 2
262 6
263 1
264 9
265 7
266 8
267 7
268 7
269 1
270 3
271 1
272 5
273 4
274 10
275 9
276 1
277 5
278 7
279 2
280 1
281 10
282 9
283 5
284 5
285 5
286 3
287 9
288 2
289 8
290 1
291 1
292 7
293 1
294 9
295 1
296 9
297 10
298 7
299 7
300 7
301 10
302 8
303 8
304 3
305 2
306 9
307 2
COVERAGE_SECTION
2 9 143 470 141 89 192 566 430 310 583 
3 9 439 582 475 107 610 392 573 654 638 
4 9 322 148 517 674 328 495 304 6 245 
5 9 93 296 227 333 339 53 177 197 188 
6 8 699 66 674 645 4 148 32 182 
7 9 168 315 94 151 37 361 366 414 24 
8 7 311 670 599 701 494 404 238 
9 9 150 227 18 253 296 5 188 85 30 
10 9 335 234 58 43 29 40 240 303 361 
11 9 231 326 244 324 219 255 290 298 229 
12 9 397 480 522 473 162 493 398 417 27 
13 9 273 28 91 85 151 19 26 30 150 
14 9 467 209 568 63 88 295 359 282 239 
15 9 198 565 543 176 215 450 477 266 337 
16 9 575 312 464 596 241 489 104 458 456 
17 9 635 519 345 524 533 186 632 557 213 
18 9 207 30 233 296 227 9 339 150 5 
19 9 130 270 26 305 272 273 151 77 85 
20 9 195 501 137 32 55 390 640 160 307 
21 9 567 370 457 368 660 437 690 35 588 
22 9 90 217 265 243 95 127 211 463 277 
23 9 249 348 147 29 64 189 68 58 380 
24 9 272 94 151 270 19 7 487 247 130 
25 9 327 77 103 79 89 566 116 191 83 
26 9 305 130 19 87 270 77 114 85 350 
27 9 417 289 522 515 608 397 162 12 646 
28 9 91 273 13 151 168 214 340 7 30 
29 9 58 147 189 335 23 249 347 348 64 
30 9 233 207 18 340 214 91 296 339 9 
31 9 136 165 332 372 285 171 204 323 39 
32 9 20 195 501 373 390 645 148 640 137 
33 9 606 411 336 447 504 601 434 622 682 
34 9 51 59 73 60 280 236 527 531 552 
35 9 588 437 421 187 262 142 647 100 690 
36 9 138 564 520 518 594 695 431 476 498 
37 9 315 168 366 414 248 7 40 361 94 
38 9 668 275 121 184 472 658 603 459 516 
39 9 136 31 204 332 285 323 165 367 539 
40 9 248 414 366 43 234 361 37 10 315 
41 9 415 329 672 531 444 527 666 65 74 
42 9 649 569 118 615 577 485 454 281 71 
43 9 234 361 40 248 414 366 335 10 254 
44 9 344 133 643 440 529 167 78 158 375 
45 9 325 555 580 669 341 163 641 102 132 
46 9 352 258 545 165 372 101 218 220 285 
47 9 486 548 607 400 399 212 388 428 479 
48 9 247 283 507 487 191 83 63 626 209 
49 9 365 525 146 488 178 561 478 105 571 
50 9 316 72 226 119 664 56 135 514 271 
51 9 34 73 59 236 527 531 120 60 415 
52 9 288 61 297 374 190 338 277 149 574 
53 9 93 175 171 5 333 539 323 197 332 
54 9 197 177 81 333 339 296 367 5 539 
55 9 160 503 307 157 137 501 20 195 390 
56 9 117 514 684 226 278 50 316 257 72 
57 9 454 498 577 206 42 695 356 649 431 
58 9 29 335 147 249 23 189 10 64 303 
59 9 34 51 60 552 73 686 618 531 280 
60 9 280 59 155 552 34 342 509 686 51 
61 9 52 297 149 250 263 288 181 374 360 
62 9 164 338 190 277 288 330 374 265 331 
63 9 209 295 283 14 359 239 48 568 487 
64 9 249 115 377 23 303 348 58 380 29 
65 9 700 672 220 523 415 41 527 531 329 
66 8 699 6 416 624 674 182 587 694 
67 9 597 602 183 385 534 634 550 691 491 
68 9 348 684 257 23 147 278 117 189 347 
69 9 432 682 434 504 179 688 387 237 447 
70 9 173 319 426 521 619 499 438 259 429 
71 9 577 206 569 42 649 118 57 454 615 
72 9 316 50 271 135 119 235 664 226 380 
73 9 51 236 34 120 59 527 531 523 60 
74 9 422 666 678 329 444 672 41 506 415 
75 9 427 268 692 378 166 292 393 99 269 
76 9 613 476 600 128 658 656 121 472 668 
77 9 327 25 130 270 305 26 87 103 350 
78 9 167 643 440 375 529 344 44 206 71 
79 9 103 116 144 327 25 566 89 304 286 
80 9 677 225 693 664 235 685 119 562 648 
81 9 177 197 54 339 333 296 5 207 18 
82 8 589 590 355 452 451 396 358 554 
83 9 507 191 626 48 185 247 487 283 25 
84 9 290 229 152 298 200 324 379 244 306 
85 9 253 13 114 150 305 26 87 273 9 
86 8 570 628 317 260 499 500 639 419 
87 9 305 114 350 26 287 253 77 294 130 
88 9 282 14 568 542 467 257 389 239 654 
89 9 566 143 116 286 2 79 144 309 25 
90 9 22 265 217 277 331 62 211 164 330 
91 9 28 13 273 214 340 30 151 233 168 
92 9 111 400 541 490 395 512 428 405 548 
93 9 5 53 175 333 188 227 296 197 177 
94 9 7 361 24 315 168 254 272 369 414 
95 9 243 627 463 549 536 673 127 199 217 
96 9 347 369 254 467 189 147 88 14 359 
97 9 267 634 491 274 112 691 550 602 597 
98 9 145 574 456 482 312 413 157 464 374 
99 9 540 657 308 680 580 601 166 692 394 
100 9 647 187 126 594 437 588 564 35 262 
101 9 218 545 352 175 354 372 171 46 53 
102 9 669 261 158 555 276 269 529 45 132 
103 9 79 327 25 116 287 144 77 350 566 
104 8 241 609 458 537 461 16 376 575 
105 9 571 525 492 488 365 478 49 146 508 
106 9 642 221 131 460 681 505 651 547 579 
107 9 582 654 610 389 638 542 3 439 392 
108 8 419 193 563 208 451 500 530 355 
109 9 320 360 211 224 149 481 297 217 277 
110 9 364 465 163 341 558 641 132 356 256 
111 9 92 490 400 512 405 541 548 607 441 
112 9 274 267 683 97 491 425 634 623 691 
113 8 401 418 394 484 386 637 410 123 
114 9 253 87 294 305 246 350 85 26 287 
115 9 64 377 249 380 122 135 303 23 271 
116 9 144 79 566 89 286 103 304 309 327 
117 9 684 56 278 257 514 226 68 50 293 
118 9 615 569 649 42 485 281 577 384 689 
119 9 664 316 50 226 72 702 677 235 80 
120 9 236 73 51 34 523 527 531 59 415 
121 9 668 472 658 184 38 76 128 613 600 
122 9 377 139 303 115 240 64 249 380 23 
123 9 386 622 651 401 681 336 113 394 460 
124 9 230 433 409 586 625 474 546 382 599 
125 8 665 284 205 605 519 667 533 408 
126 9 594 100 564 138 424 647 187 36 317 
127 9 463 549 627 95 243 536 22 161 199 
128 9 656 600 76 613 658 476 472 121 184 
129 9 559 423 201 156 697 521 259 406 371 
130 9 270 19 26 305 77 87 272 327 25 
131 9 505 547 642 106 637 651 681 221 386 
132 9 356 163 276 669 555 110 364 45 102 
133 9 44 344 510 529 643 158 440 261 167 
134 9 152 298 697 21 306 660 567 611 368 
135 9 380 271 72 316 50 56 226 119 235 
136 9 31 332 204 323 539 171 367 39 372 
137 9 20 195 55 307 160 501 503 301 264 
138 9 564 36 594 153 126 520 518 695 100 
139 9 240 303 377 122 64 115 58 10 249 
140 8 300 595 662 238 252 420 475 696 
141 9 192 470 2 310 143 466 679 532 583 
142 9 421 35 262 588 437 690 668 38 121 
143 9 2 89 566 141 286 470 309 192 116 
144 9 116 79 304 286 103 566 89 245 309 
145 9 482 456 98 390 373 157 464 159 513 
146 9 525 571 698 535 49 365 105 553 508 
147 9 189 29 23 58 249 347 348 68 335 
148 9 517 4 322 640 32 495 631 264 6 
149 9 360 297 263 481 61 109 320 181 224 
150 9 9 227 253 85 18 246 188 114 294 
151 9 273 28 7 13 272 168 19 24 91 
152 9 298 84 219 290 134 229 306 324 244 
153 9 138 356 364 564 36 498 110 132 520 
154 9 413 650 503 250 307 160 157 574 371 
155 9 280 342 60 34 59 403 552 509 51 
156 9 406 423 343 559 652 201 429 301 129 
157 9 503 55 160 307 501 145 413 390 98 
158 9 261 269 102 529 669 555 440 45 643 
159 9 513 471 373 576 455 596 482 456 464 
160 9 307 503 55 157 137 650 501 20 154 
161 9 534 183 194 385 536 199 67 446 549 
162 9 397 493 12 585 417 522 289 391 321 
163 9 110 364 132 341 465 356 641 325 555 
164 9 62 330 338 190 346 331 288 265 277 
165 9 372 285 31 545 332 136 46 352 171 
166 9 692 601 75 268 99 427 540 33 336 
167 9 78 643 440 375 529 344 44 206 158 
168 9 315 7 37 151 28 94 366 414 273 
169 9 228 353 442 354 202 170 246 572 578 
170 9 578 442 598 313 222 228 556 353 443 
171 9 332 323 539 53 204 367 545 136 372 
172 9 407 659 583 466 351 252 679 430 311 
173 8 426 70 319 438 619 499 639 260 
174 9 210 448 302 655 232 497 687 483 435 
175 9 93 53 188 354 101 218 5 171 545 
176 9 565 477 198 543 15 194 446 215 199 
177 9 197 81 54 333 339 296 5 93 53 
178 9 561 381 616 365 478 49 453 488 180 
179 9 387 363 528 237 538 688 432 434 504 
180 8 502 593 561 453 616 178 398 381 
181 9 263 203 250 149 61 481 297 379 360 
182 9 416 674 304 66 624 196 699 6 314 
183 9 534 385 67 597 602 446 161 550 691 
184 9 472 121 658 668 459 38 128 603 275 
185 9 626 507 83 48 430 191 295 63 239 
186 5 557 632 445 17 345 
187 9 588 437 35 647 100 262 421 594 142 
188 9 175 354 93 227 5 9 246 150 53 
189 9 147 29 347 96 23 335 369 58 254 
190 9 338 288 62 277 164 374 52 297 61 
191 9 83 507 626 48 247 487 185 283 25 
192 9 310 141 679 466 470 532 479 212 583 
193 9 108 419 208 563 530 500 451 614 284 
194 9 199 536 176 161 673 627 644 215 565 
195 9 20 137 640 32 501 264 55 301 160 
196 9 314 572 202 349 416 624 182 287 674 
197 9 177 54 81 333 339 296 5 93 53 
198 9 565 15 176 543 477 215 450 337 266 
199 9 536 194 673 627 644 161 95 176 215 
200 9 379 229 203 84 290 306 592 324 181 
201 9 650 129 156 423 307 559 343 371 406 
202 9 572 349 196 314 353 624 318 587 556 
203 9 379 181 200 306 263 250 371 84 229 
204 9 367 323 539 136 332 171 53 31 54 
205 9 284 125 533 665 519 635 208 605 82 
206 9 71 577 57 375 454 42 569 276 649 
207 9 233 30 18 339 296 340 227 81 214 
208 9 530 193 108 614 419 500 284 563 451 
209 9 63 359 283 295 14 487 48 467 247 
210 9 448 174 655 302 687 483 232 435 497 
211 9 217 109 320 360 224 277 243 297 149 
212 9 428 548 400 486 532 47 399 607 92 
213 9 362 474 675 625 345 409 524 433 462 
214 9 340 91 233 30 28 207 18 13 273 
215 9 266 450 449 644 15 621 198 176 565 
216 9 457 368 255 370 671 219 690 567 21 
217 9 211 243 22 90 277 109 320 95 360 
218 9 101 545 352 354 175 228 372 169 46 
219 9 298 255 152 326 368 216 11 457 84 
220 9 700 65 672 222 598 666 678 41 415 
221 9 106 579 642 131 547 505 538 460 646 
222 9 598 170 220 578 700 442 228 313 65 
223 9 468 638 300 389 107 654 239 582 140 
224 9 320 109 360 481 211 644 673 449 149 
225 7 685 648 693 412 677 80 562 
226 9 514 50 316 56 119 664 702 72 117 
227 9 5 9 296 18 150 93 339 188 333 
228 9 442 169 353 170 578 354 313 556 598 
229 9 290 84 324 200 244 152 379 298 306 
230 9 124 433 586 409 474 546 544 675 625 
231 9 11 244 324 334 326 290 229 251 219 
232 9 302 497 174 363 448 387 179 210 432 
233 9 207 30 18 340 214 339 296 81 91 
234 9 43 361 335 40 248 414 10 366 254 
235 9 72 80 271 119 664 316 50 677 135 
236 9 120 73 523 51 527 531 34 59 415 
237 9 688 528 538 179 387 504 106 434 221 
238 8 595 404 140 311 662 494 252 407 
239 9 295 568 63 282 223 14 638 468 389 
240 9 139 303 377 122 10 64 58 115 249 
241 9 104 609 458 537 16 575 312 461 330 
242 9 299 629 337 402 251 630 357 543 620 
243 9 95 673 627 217 536 211 463 199 549 
244 9 324 290 229 11 84 231 298 219 152 
245 8 328 309 286 495 322 4 144 304 
246 9 294 253 114 349 188 150 169 354 87 
247 9 487 283 48 191 209 359 63 507 83 
248 9 366 414 40 43 361 37 234 315 168 
249 9 23 64 348 58 147 29 115 189 377 
250 9 61 181 263 154 413 574 52 149 297 
251 9 299 629 402 242 337 334 630 357 543 
252 9 351 696 407 140 238 595 172 430 300 
253 9 114 294 85 246 150 87 9 305 26 
254 9 369 96 347 189 467 335 147 94 361 
255 9 216 326 219 368 457 671 298 370 11 
256 7 496 558 408 465 667 641 110 
257 9 278 684 117 68 56 88 542 293 392 
258 9 46 352 285 165 523 372 65 220 236 
259 9 521 70 559 319 423 129 173 429 426 
260 9 499 628 639 86 426 173 70 570 317 
261 9 158 269 102 529 669 555 45 276 440 
262 9 421 35 588 142 437 187 476 76 613 
263 9 181 149 61 250 297 481 360 203 52 
264 9 640 301 343 195 631 137 612 20 517 
265 9 331 90 346 330 164 62 403 277 22 
266 9 450 215 621 449 644 15 592 198 565 
267 9 97 274 112 491 634 683 691 550 425 
268 9 427 75 393 378 692 166 292 33 682 
269 9 158 261 102 555 669 45 292 325 529 
270 9 130 19 26 77 272 305 24 87 25 
271 9 135 72 235 316 380 50 119 664 226 
272 9 24 270 19 151 130 94 487 273 247 
273 9 151 13 28 91 19 85 7 168 272 
274 9 112 267 97 491 683 634 425 602 597 
275 9 603 38 516 184 459 653 472 668 121 
276 9 669 102 132 356 555 375 57 261 529 
277 9 338 190 62 288 211 217 297 164 52 
278 9 257 117 684 56 514 293 392 68 542 
279 8 551 560 443 506 511 633 313 694 
280 9 155 60 342 34 59 51 552 73 509 
281 9 485 384 656 128 615 689 431 649 581 
282 9 542 568 389 88 654 638 239 107 14 
283 9 487 209 247 359 48 63 295 14 191 
284 9 205 125 665 208 605 530 614 533 193 
285 9 165 31 372 258 46 136 545 332 352 
286 9 309 245 566 89 116 144 143 328 141 
287 9 350 314 349 87 103 572 196 327 77 
288 9 190 338 52 374 62 277 297 61 164 
289 9 417 646 585 579 27 515 162 547 604 
290 9 229 84 324 244 152 298 200 219 379 
291 7 526 383 512 436 619 438 612 
292 9 378 427 75 510 268 269 692 393 166 
293 9 392 573 439 492 610 582 107 3 654 
294 9 246 114 253 87 349 350 287 572 150 
295 9 63 239 209 568 14 283 48 282 359 
296 9 339 5 227 18 333 177 81 197 207 
297 9 61 52 149 360 288 109 277 263 190 
298 9 152 219 84 290 134 229 244 324 255 
299 9 242 629 251 402 337 630 357 334 543 
300 8 140 475 662 468 223 420 595 238 
301 9 343 264 640 406 137 156 652 195 631 
302 9 174 448 210 655 232 497 483 687 435 
303 9 377 139 240 64 122 115 249 58 10 
304 9 674 144 182 322 416 116 4 79 245 
305 9 26 87 130 114 19 77 85 270 350 
306 9 379 203 697 200 371 84 152 134 229 
307 9 160 503 55 137 650 157 20 154 501 
308 8 657 680 540 99 394 410 580 601 
309 9 286 245 328 143 495 566 89 141 116 
310 9 192 679 466 470 141 532 583 479 399 
311 8 8 670 494 599 701 404 238 595 
312 9 16 575 374 98 464 241 104 456 596 
313 9 556 443 578 318 170 587 442 279 598 
314 9 196 349 572 287 202 350 416 624 182 
315 9 168 7 37 366 414 94 248 361 151 
316 9 50 72 119 226 664 135 56 271 514 
317 9 86 570 628 260 500 499 647 639 100 
318 8 587 556 313 443 624 353 578 202 
319 9 70 173 619 426 429 438 521 639 499 
320 9 109 224 360 211 481 149 217 297 673 
321 6 391 493 663 162 585 497 
322 9 4 304 245 674 328 148 495 517 144 
323 9 539 367 204 332 171 136 53 333 54 
324 9 244 290 229 84 11 298 231 152 200 
325 9 45 580 555 341 641 163 669 99 110 
326 9 255 11 219 216 671 368 298 457 244 
327 9 25 103 77 79 287 116 350 89 566 
328 6 495 245 309 322 4 469 
329 9 444 41 415 666 74 672 678 422 531 
330 9 346 331 164 62 265 609 403 241 104 
331 9 346 330 265 403 164 509 62 609 90 
332 9 171 323 136 539 204 31 372 367 53 
333 9 197 177 54 81 339 5 296 93 53 
334 9 402 251 337 299 242 629 15 231 198 
335 9 29 58 189 234 10 147 43 254 23 
336 9 411 606 601 33 622 123 447 386 460 
337 9 402 242 299 629 251 543 630 15 198 
338 9 190 62 288 164 277 374 52 330 297 
339 9 296 81 177 197 333 5 18 54 207 
340 9 214 91 233 30 207 28 18 13 273 
341 9 641 580 465 110 163 325 45 558 364 
342 9 155 280 60 403 509 331 346 552 59 
343 9 301 406 156 264 652 640 137 423 201 
344 9 44 133 643 529 440 167 78 158 261 
345 9 17 524 213 186 635 362 557 608 519 
346 9 331 330 403 265 164 509 609 62 104 
347 9 96 369 189 254 467 147 68 88 29 
348 9 23 68 249 380 147 684 117 64 189 
349 9 572 314 202 196 287 350 294 246 353 
350 9 287 87 314 349 114 305 294 77 103 
351 9 252 696 407 430 172 583 238 595 140 
352 9 46 218 101 545 258 372 222 165 220 
353 9 442 228 169 170 202 556 318 578 313 
354 9 188 169 175 218 228 101 246 353 93 
355 7 590 396 451 563 82 388 358 
356 9 132 153 163 364 110 276 57 669 465 
357 9 620 630 617 623 242 629 425 691 543 
358 7 388 589 590 396 82 399 479 
359 9 209 283 63 467 487 14 247 295 48 
360 9 109 320 149 297 224 481 211 277 61 
361 9 43 414 234 366 248 94 40 315 7 
362 7 675 474 213 409 433 608 625 
363 9 387 528 179 538 237 663 232 497 391 
364 9 110 465 163 558 341 356 132 153 641 
365 9 49 488 478 525 178 561 105 146 571 
366 9 414 248 40 361 37 43 315 234 168 
367 9 539 204 323 171 332 54 53 136 197 
368 9 457 216 370 255 567 21 219 690 298 
369 9 254 96 347 467 189 147 359 14 29 
370 9 457 567 368 21 216 690 142 255 437 
371 9 650 697 201 154 129 306 203 250 379 
372 9 165 545 31 332 171 101 285 352 136 
373 9 390 159 482 513 456 501 145 645 471 
374 9 288 52 190 312 338 574 98 62 61 
375 9 440 643 529 167 78 276 206 102 261 
376 4 461 458 537 104 
377 9 303 64 115 139 122 249 240 58 23 
378 9 268 427 292 75 393 692 166 510 682 
379 9 306 203 200 84 229 181 290 371 152 
380 9 135 348 72 271 316 50 56 115 684 
381 7 616 453 561 178 180 420 593 
382 5 546 586 494 404 230 
383 7 512 405 526 661 441 490 291 
384 9 689 581 281 485 459 615 128 656 184 
385 9 446 183 67 534 550 602 597 691 634 
386 9 651 681 123 505 401 460 642 131 622 
387 9 179 363 528 538 237 688 232 432 504 
388 6 358 47 396 486 399 607 
389 9 654 638 542 107 582 610 282 223 568 
390 9 373 501 482 145 456 159 157 20 513 
391 8 321 663 493 585 162 363 497 397 
392 9 293 573 439 610 582 107 3 492 654 
393 9 268 378 682 692 427 33 75 166 606 
394 8 113 410 401 418 123 386 484 680 
395 7 541 469 436 92 111 428 400 
396 6 355 590 451 388 563 82 
397 9 162 12 522 493 480 417 473 27 585 
398 7 473 480 593 12 502 180 522 
399 9 479 532 486 47 548 212 607 388 400 
400 9 548 111 607 47 428 486 92 212 490 
401 9 113 386 418 637 394 505 123 484 651 
402 9 337 299 251 242 629 334 15 543 630 
403 9 509 346 331 330 342 265 609 686 552 
404 5 595 238 494 382 662 
405 8 441 661 490 512 383 111 607 92 
406 9 156 652 423 343 429 301 559 201 264 
407 9 351 252 172 696 583 238 430 595 659 
408 8 496 605 256 667 665 125 614 558 
409 9 474 433 675 230 625 124 362 544 213 
410 6 394 418 113 401 680 484 
411 9 606 336 447 622 33 123 601 460 504 
412 5 648 685 225 693 636 
413 9 574 154 157 98 503 250 160 55 145 
414 9 366 248 40 361 43 37 315 234 7 
415 9 41 329 672 531 527 444 65 666 74 
416 9 182 674 624 66 196 304 699 314 587 
417 9 27 289 162 397 515 522 585 646 12 
418 6 484 113 401 394 410 637 
419 8 108 193 563 208 451 500 530 355 
420 6 662 475 381 616 140 404 
421 9 262 142 35 588 437 187 476 76 613 
422 9 74 678 666 329 444 506 672 511 41 
423 9 559 156 406 429 129 521 652 201 259 
424 9 614 126 500 530 605 408 208 496 100 
425 9 683 112 267 623 97 274 617 620 357 
426 8 173 639 438 619 70 319 499 260 
427 9 75 268 378 692 292 166 393 99 269 
428 9 212 400 548 92 486 111 47 532 395 
429 9 319 423 652 406 619 70 559 156 521 
430 9 583 351 696 470 407 252 172 466 185 
431 9 695 520 518 498 656 600 281 128 613 
432 9 69 179 232 387 434 504 363 237 688 
433 9 409 474 675 230 544 124 586 362 625 
434 9 504 688 447 237 606 179 411 69 33 
435 5 687 483 636 655 210 
436 6 541 469 395 92 291 512 
437 9 588 35 187 421 262 142 647 100 567 
438 7 619 426 173 319 639 526 70 
439 9 573 392 3 610 293 582 107 654 492 
440 9 643 375 529 167 78 344 44 158 261 
441 7 661 405 490 512 607 383 111 
442 9 228 170 353 578 169 313 556 598 318 
443 8 313 556 279 578 318 551 587 694 
444 9 329 74 41 415 666 422 678 618 686 
445 4 632 484 557 186 
446 9 385 550 691 183 67 602 597 477 534 
447 9 606 411 504 622 434 688 336 33 460 
448 9 210 174 655 302 687 232 483 497 435 
449 9 644 215 266 621 450 673 224 199 592 
450 9 266 215 621 449 15 644 198 592 565 
451 9 355 563 590 396 108 193 419 82 208 
452 7 554 462 589 82 625 701 524 
453 6 616 381 593 561 180 584 
454 9 57 498 695 42 577 649 431 569 485 
455 7 576 471 489 513 596 159 464 
456 9 482 145 464 159 373 390 513 98 596 
457 9 368 216 370 567 21 255 690 219 671 
458 6 537 104 461 241 376 609 
459 9 603 581 184 689 275 472 384 658 121 
460 9 681 642 651 106 622 386 505 131 221 
461 4 376 458 537 104 
462 8 554 625 452 213 124 524 409 474 
463 9 549 127 627 95 536 243 199 161 673 
464 9 596 456 489 575 16 482 159 513 455 
465 9 110 558 364 341 641 163 256 496 580 
466 9 679 310 583 172 659 192 470 479 532 
467 9 14 359 96 88 209 347 369 63 283 
468 9 223 696 300 140 252 638 239 351 389 
469 6 395 541 436 92 111 612 
470 9 2 141 310 583 192 466 430 679 143 
471 8 576 455 513 159 489 596 645 373 
472 9 184 658 121 668 128 38 76 459 613 
473 8 480 398 12 522 397 593 493 162 
474 9 409 675 433 362 230 625 124 213 544 
475 8 3 420 300 662 439 140 478 582 
476 9 613 76 600 128 518 656 658 121 520 
477 9 176 543 565 198 446 15 630 385 550 
478 9 488 365 178 105 49 561 492 439 573 
479 8 399 532 679 486 47 548 212 388 
480 7 473 12 398 522 397 162 493 
481 9 149 224 360 320 592 109 263 621 297 
482 9 456 145 373 390 159 464 513 98 596 
483 6 435 687 655 636 210 174 
484 6 418 676 445 604 113 401 
485 9 615 281 118 649 384 42 569 689 581 
486 9 47 548 607 399 400 212 479 532 428 
487 9 247 283 48 359 209 63 191 507 83 
488 9 478 365 105 49 178 492 525 573 561 
489 8 596 455 464 513 576 471 159 575 
490 9 405 441 512 661 111 92 607 383 400 
491 9 634 97 267 597 274 602 67 112 550 
492 9 105 573 293 488 392 439 478 571 514 
493 8 162 321 397 391 12 480 585 663 
494 7 599 311 8 382 670 404 124 
495 6 328 245 469 517 322 631 
496 8 256 408 558 667 605 465 665 125 
497 8 302 232 174 363 321 391 210 448 
498 9 695 454 431 520 57 518 36 153 42 
499 9 260 628 426 639 173 70 86 438 319 
500 9 530 193 208 108 419 570 614 86 424 
501 9 20 390 55 195 137 373 32 157 503 
502 6 180 593 398 561 535 49 
503 9 160 55 157 307 137 501 650 154 413 
504 9 434 688 447 237 606 179 411 622 33 
505 9 131 547 651 637 642 386 681 106 460 
506 6 511 560 551 279 422 633 
507 9 83 626 191 48 185 247 283 487 63 
508 9 702 571 525 146 105 553 664 562 677 
509 8 403 686 618 552 346 537 60 331 
510 9 292 378 269 133 427 158 75 261 268 
511 5 506 560 551 279 633 
512 8 490 405 383 661 111 441 92 526 
513 9 159 471 576 455 596 373 489 464 456 
514 9 226 56 117 492 702 50 278 684 316 
515 7 604 676 27 289 417 646 484 
516 9 653 591 275 603 38 690 459 184 668 
517 8 148 4 640 631 495 322 264 328 
518 9 520 431 600 476 613 695 656 76 128 
519 9 533 17 635 524 205 632 665 125 345 
520 9 518 431 695 36 600 476 498 613 656 
521 9 259 70 559 319 429 423 173 129 426 
522 8 12 397 480 27 473 162 417 608 
523 9 527 531 65 236 415 672 41 73 120 
524 9 635 17 345 213 533 554 519 462 625 
525 9 146 571 49 105 365 535 698 488 508 
526 7 291 383 512 438 619 436 490 
527 9 531 523 415 41 51 236 65 672 73 
528 9 538 387 237 363 179 688 221 106 663 
529 9 440 643 375 158 261 102 167 344 78 
530 9 208 614 193 500 605 108 284 419 125 
531 9 527 415 41 523 672 51 65 329 236 
532 9 479 399 212 486 679 548 192 47 428 
533 9 635 519 17 524 205 554 345 125 665 
534 9 183 67 385 597 161 602 446 550 691 
535 6 698 146 553 525 49 502 
536 9 199 194 627 673 95 549 161 243 644 
537 6 458 104 461 376 609 241 
538 9 528 237 363 387 221 688 106 179 663 
539 9 323 367 204 171 332 53 136 333 54 
540 9 657 99 308 601 680 394 166 123 336 
541 7 395 436 469 92 111 512 490 
542 9 389 654 282 107 638 610 582 568 392 
543 9 477 565 198 176 15 630 337 446 617 
544 8 584 586 433 546 230 409 675 474 
545 9 372 101 218 352 165 171 332 175 46 
546 6 586 382 230 544 584 124 
547 9 131 505 637 579 646 676 106 221 642 
548 9 486 47 400 607 212 428 399 111 92 
549 9 463 627 127 95 536 161 199 243 194 
550 9 691 602 634 446 385 597 67 97 623 
551 7 279 560 633 511 506 443 694 
552 8 686 618 59 60 509 444 34 51 
553 4 698 562 535 146 
554 7 462 452 524 625 635 213 533 
555 9 45 669 325 102 132 163 269 261 276 
556 8 313 318 443 587 578 170 353 442 
557 5 186 632 445 515 484 
558 9 465 256 496 110 364 641 341 408 163 
559 9 423 129 156 521 259 429 406 201 319 
560 6 551 633 511 279 506 694 
561 9 178 381 616 180 453 365 49 478 502 
562 6 693 553 677 648 225 685 
563 8 419 108 451 193 355 396 208 590 
564 9 138 594 36 126 153 100 520 518 187 
565 9 198 176 477 543 15 215 446 194 337 
566 9 89 143 116 286 2 79 144 309 25 
567 9 21 370 457 368 437 690 660 35 216 
568 9 282 239 295 14 542 389 638 88 654 
569 9 118 42 649 615 577 485 71 281 454 
570 9 86 628 317 500 260 419 499 108 193 
571 9 525 105 146 508 702 49 365 492 488 
572 9 349 202 314 196 287 624 353 350 318 
573 9 293 392 439 492 610 3 582 488 478 
574 9 413 98 374 145 157 154 250 52 61 
575 8 16 464 596 312 489 458 241 104 
576 7 471 455 513 159 489 596 645 
577 9 42 71 569 649 454 206 118 57 615 
578 9 170 313 598 556 442 443 222 318 353 
579 9 646 547 221 289 131 106 585 505 637 
580 9 641 325 341 99 45 308 657 680 540 
581 9 689 384 459 184 281 485 603 472 658 
582 9 107 610 654 389 638 3 439 542 392 
583 9 172 466 430 407 470 351 310 679 659 
584 5 544 546 586 230 382 
585 9 289 663 162 579 646 391 417 397 321 
586 7 546 230 382 544 124 584 433 
587 8 318 556 624 313 443 694 66 699 
588 9 35 437 187 421 262 142 647 100 594 
589 6 82 358 452 590 554 701 
590 7 355 396 451 82 388 358 563 
591 9 653 516 275 603 38 459 671 690 184 
592 9 621 481 266 450 449 224 644 215 320 
593 7 398 180 453 502 473 616 480 
594 9 564 126 138 100 36 187 647 262 421 
595 7 238 404 140 662 311 252 494 
596 8 489 464 455 513 159 575 576 471 
597 9 602 67 634 491 550 385 691 183 534 
598 9 222 170 578 442 313 279 443 220 556 
599 8 494 670 8 311 124 701 382 230 
600 9 613 76 476 128 656 518 658 121 520 
601 9 336 540 123 411 606 33 166 99 622 
602 9 597 67 634 550 385 491 691 183 97 
603 9 459 275 184 38 472 581 516 653 121 
604 7 676 515 637 484 547 646 289 
605 9 614 408 125 530 665 284 208 496 205 
606 9 411 447 336 33 622 504 434 123 460 
607 9 47 486 548 400 441 490 111 661 405 
608 7 362 522 27 675 213 345 417 
609 8 104 241 537 458 330 461 16 346 
610 9 582 107 392 654 439 389 542 3 293 
611 9 660 259 521 21 134 317 567 260 499 
612 6 631 652 436 469 291 264 
613 9 76 476 600 128 656 658 518 121 472 
614 9 530 605 208 500 284 424 193 125 408 
615 9 118 485 649 569 42 281 384 689 581 
616 7 381 453 561 178 180 593 420 
617 9 620 623 357 630 691 550 97 446 267 
618 8 686 552 444 509 376 59 461 537 
619 8 438 319 426 173 70 526 639 291 
620 9 617 623 357 630 691 550 425 97 446 
621 9 266 592 450 449 215 644 481 224 15 
622 9 460 681 411 447 651 386 642 123 606 
623 9 617 620 357 691 550 630 97 267 425 
624 9 416 587 66 318 182 196 202 699 674 
625 9 409 462 474 124 213 433 230 675 554 
626 9 507 83 185 191 48 2 430 247 143 
627 9 549 95 536 463 199 243 127 673 194 
628 8 260 86 499 570 639 426 317 173 
629 9 299 242 251 337 402 357 630 620 617 
630 9 357 620 617 623 543 242 337 477 629 
631 6 612 264 640 517 469 436 
632 4 186 445 557 17 
633 5 560 694 551 279 511 
634 9 491 97 602 597 267 550 691 67 274 
635 9 524 533 17 519 345 554 213 462 186 
636 6 435 687 483 655 210 412 
637 8 676 547 505 131 401 604 113 386 
638 9 389 654 107 582 542 223 610 282 3 
639 7 426 499 173 260 438 628 619 
640 9 264 301 195 137 343 631 20 517 148 
641 9 341 580 465 110 558 325 163 256 308 
642 9 460 106 681 651 131 505 221 386 622 
643 9 440 167 78 529 375 344 44 158 261 
644 9 449 673 215 266 621 199 450 194 224 
645 7 471 576 159 373 513 455 32 
646 9 579 289 547 585 676 131 221 604 637 
647 9 100 187 437 588 35 126 594 262 421 
648 5 412 685 225 693 562 
649 9 42 118 569 615 485 577 281 454 384 
650 9 201 307 160 154 503 55 371 137 157 
651 9 681 460 642 386 505 131 106 622 123 
652 9 406 429 156 343 612 423 301 291 526 
653 9 516 591 275 603 38 459 690 671 184 
654 9 389 107 582 638 542 610 282 3 392 
655 8 210 448 174 302 687 483 435 636 
656 9 128 600 613 76 476 281 658 518 431 
657 9 308 540 99 680 601 394 410 580 123 
658 9 472 121 184 668 128 76 613 600 656 
659 9 172 466 679 701 8 311 583 407 670 
660 9 611 21 567 647 134 259 437 317 187 
661 7 441 405 490 512 383 607 111 
662 5 420 404 595 140 238 
663 9 391 585 321 538 162 363 528 493 579 
664 9 119 677 316 50 80 226 702 72 508 
665 8 125 205 284 667 605 519 408 533 
666 9 678 74 422 329 672 444 41 415 700 
667 5 665 408 125 256 496 
668 9 121 472 658 38 184 76 128 613 275 
669 9 102 555 276 132 45 261 158 325 269 
670 6 8 701 311 599 494 124 
671 9 216 255 516 591 653 457 368 326 690 
672 9 41 415 65 329 700 666 531 678 74 
673 9 644 199 243 536 449 95 194 627 224 
674 9 182 304 416 66 322 6 699 4 624 
675 9 474 409 433 362 213 230 544 625 124 
676 7 604 637 547 484 515 131 505 
677 8 693 80 562 225 664 648 685 119 
678 9 666 422 74 329 672 444 506 41 700 
679 9 466 310 192 479 532 659 399 583 172 
680 7 308 657 410 540 394 99 113 
681 9 460 651 642 386 622 106 505 131 123 
682 9 69 434 33 504 393 606 447 432 411 
683 9 425 112 267 274 97 623 491 634 617 
684 9 117 278 56 257 68 514 348 226 50 
685 7 225 648 412 693 562 677 80 
686 8 618 552 509 444 376 59 537 461 
687 7 435 483 636 655 210 448 174 
688 9 237 504 434 447 528 538 179 460 622 
689 9 581 384 459 281 184 485 472 128 603 
690 9 142 38 370 516 275 668 653 421 457 
691 9 550 634 446 602 385 597 97 623 67 
692 9 166 75 268 427 601 393 99 540 33 
693 7 562 677 225 648 685 80 553 
694 6 633 560 443 551 587 279 
695 9 431 498 520 518 454 656 281 600 36 
696 9 252 351 407 468 430 140 300 238 595 
697 9 129 371 306 559 259 134 201 521 423 
698 5 535 146 553 525 49 
699 7 66 6 624 674 416 694 182 
700 9 220 65 672 666 678 41 415 329 74 
701 7 670 8 311 599 494 659 452 
702 9 508 571 105 226 525 664 514 146 119 
DEPOT_SECTION
   1
   -1
EOF
