NAME :  X-n701-kX-w70-c11.cctp
COMMENT : 	Adapted by Maziero, Usberti and Cavellucci from the Uchoa, Pecin, Pessoa, Poggi, Subramanian, and Vidal (2013)
TYPE :  CCTP
DIMENSION :    439
EDGE_WEIGHT_TYPE : 	EUC_2D	
CAPACITY : 	87
VERTICES_WITHIN_COVERAGE :  11
VERTICES_WITH_DEMAND : 	70
NODE_COORD_SECTION
1 0 0
2 878 606
3 35 593
4 320 125
5 189 244
6 274 784
7 900 310
8 742 640
9 800 448
10 57 755
11 522 327
12 528 268
13 461 328
14 325 726
15 788 496
16 626 660
17 720 744
18 3 417
19 32 306
20 65 233
21 827 442
22 347 566
23 545 389
24 452 670
25 236 564
26 439 425
27 69 17
28 468 416
29 103 137
30 689 261
31 300 603
32 378 187
33 790 584
34 336 860
35 386 199
36 522 461
37 356 214
38 947 18
39 431 1000
40 817 983
41 71 731
42 918 54
43 989 840
44 260 262
45 904 724
46 970 295
47 567 694
48 426 75
49 24 178
50 656 590
51 128 178
52 969 965
53 309 968
54 855 798
55 587 48
56 118 736
57 838 354
58 274 298
59 311 702
60 183 963
61 392 495
62 950 484
63 621 676
64 52 482
65 956 934
66 745 263
67 289 149
68 689 900
69 216 107
70 852 560
71 45 441
72 638 84
73 66 842
74 290 815
75 68 509
76 521 672
77 100 855
78 408 483
79 491 455
80 114 255
81 383 536
82 902 19
83 964 423
84 610 39
85 719 961
86 837 83
87 657 185
88 289 599
89 747 259
90 292 168
91 560 212
92 128 950
93 211 939
94 160 473
95 32 550
96 353 65
97 72 691
98 19 172
99 237 657
100 994 883
101 457 195
102 35 32
103 425 288
104 12 586
105 560 747
106 302 972
107 891 540
108 206 371
109 241 223
110 436 508
111 601 81
112 298 860
113 977 911
114 188 304
115 545 745
116 318 269
117 839 548
118 107 557
119 262 668
120 824 424
121 859 540
122 323 639
123 954 411
124 271 682
125 412 518
126 922 84
127 13 661
128 354 560
129 228 552
130 573 723
131 71 320
132 627 736
133 760 323
134 668 714
135 777 669
136 685 750
137 63 754
138 477 613
139 224 523
140 662 829
141 962 282
142 351 237
143 472 449
144 249 840
145 537 728
146 244 611
147 205 27
148 681 545
149 921 582
150 810 570
151 487 331
152 888 770
153 85 443
154 984 369
155 973 891
156 989 256
157 638 621
158 223 951
159 780 864
160 914 45
161 949 533
162 335 946
163 6 338
164 234 558
165 170 763
166 77 45
167 845 26
168 681 306
169 107 355
170 231 497
171 881 371
172 420 399
173 17 680
174 783 782
175 334 715
176 395 79
177 285 579
178 908 478
179 847 460
180 438 733
181 102 417
182 71 222
183 337 978
184 44 67
185 849 533
186 984 810
187 738 919
188 918 985
189 14 972
190 560 291
191 32 686
192 35 244
193 280 871
194 940 401
195 452 680
196 790 271
197 832 824
198 594 601
199 114 661
200 702 726
201 649 586
202 433 966
203 499 695
204 159 291
205 261 445
206 46 465
207 108 11
208 898 637
209 46 379
210 120 371
211 133 485
212 182 943
213 23 384
214 426 116
215 36 988
216 945 828
217 560 676
218 975 826
219 836 379
220 149 821
221 295 92
222 137 226
223 256 630
224 235 922
225 292 81
226 136 84
227 713 592
228 94 858
229 697 981
230 165 188
231 326 480
232 836 453
233 386 481
234 705 190
235 203 945
236 816 604
237 975 849
238 47 84
239 438 468
240 937 42
241 209 270
242 61 456
243 906 841
244 662 907
245 673 555
246 307 43
247 296 837
248 253 75
249 829 599
250 138 159
251 37 564
252 974 967
253 759 756
254 260 64
255 466 4
256 847 81
257 207 27
258 912 418
259 859 340
260 375 325
261 114 18
262 923 49
263 84 327
264 378 164
265 22 470
266 952 3
267 105 215
268 80 581
269 823 527
270 625 890
271 854 377
272 500 240
273 126 833
274 560 23
275 138 966
276 909 990
277 447 664
278 187 283
279 435 345
280 325 901
281 362 602
282 19 676
283 678 820
284 451 76
285 497 468
286 910 712
287 513 457
288 486 458
289 768 472
290 846 788
291 343 784
292 422 91
293 881 418
294 665 647
295 574 373
296 318 951
297 381 57
298 529 432
299 711 692
300 585 331
301 531 377
302 319 988
303 886 630
304 369 882
305 263 731
306 463 15
307 339 995
308 548 384
309 530 491
310 892 599
311 857 656
312 910 765
313 764 542
314 746 566
315 758 330
316 788 471
317 517 665
318 471 427
319 314 942
320 449 692
321 705 286
322 861 753
323 253 757
324 859 725
325 930 746
326 194 998
327 249 8
328 697 596
329 800 653
330 388 283
331 610 597
332 406 480
333 960 884
334 891 715
335 375 465
336 881 810
337 314 80
338 372 452
339 796 503
340 980 890
341 821 409
342 469 73
343 528 455
344 436 399
345 677 307
346 979 797
347 691 762
348 322 213
349 600 75
350 368 879
351 782 605
352 700 177
353 553 57
354 779 427
355 469 82
356 538 432
357 423 126
358 649 580
359 714 575
360 561 303
361 316 878
362 426 613
363 319 189
364 696 579
365 561 392
366 759 434
367 549 403
368 498 309
369 697 697
370 509 466
371 276 695
372 383 737
373 854 859
374 855 780
375 534 381
376 782 608
377 911 584
378 794 421
379 930 603
380 465 430
381 925 589
382 903 700
383 86 841
384 447 81
385 839 490
386 313 985
387 760 439
388 552 70
389 851 771
390 677 320
391 408 731
392 897 704
393 929 716
394 542 495
395 261 63
396 434 996
397 788 856
398 379 843
399 302 731
400 534 722
401 548 215
402 352 885
403 415 527
404 353 967
405 896 713
406 540 259
407 839 438
408 365 542
409 502 470
410 319 886
411 439 0
412 927 975
413 864 824
414 367 989
415 550 29
416 542 469
417 667 751
418 364 868
419 320 938
420 389 659
421 584 364
422 333 868
423 762 894
424 834 595
425 430 114
426 807 652
427 585 319
428 812 478
429 540 734
430 520 472
431 484 966
432 632 71
433 864 521
434 878 724
435 246 855
436 669 545
437 803 761
438 889 884
439 517 469
DEMAND_SECTION
2 2
3 8
4 7
5 5
6 3
7 7
8 6
9 3
10 10
11 2
12 1
13 8
14 8
15 8
16 8
17 4
18 9
19 7
20 9
21 4
22 10
23 4
24 1
25 2
26 1
27 9
28 4
29 4
30 5
31 8
32 2
33 9
34 3
35 1
36 8
37 2
38 8
39 3
40 3
41 2
42 4
43 3
44 2
45 7
46 7
47 9
48 1
49 5
50 7
51 10
52 5
53 9
54 7
55 7
56 1
57 3
58 5
59 9
60 5
61 4
62 5
63 9
64 4
65 4
66 7
67 8
68 1
69 8
70 7
71 2
COVERAGE_SECTION
2 10 310 303 208 377 424 149 249 381 379 70 
3 11 104 251 95 268 127 118 282 173 75 191 199 
4 11 67 221 337 90 225 363 96 264 246 248 32 
5 11 241 278 222 109 204 114 230 44 80 267 51 
6 11 323 74 305 247 399 144 291 435 14 112 193 
7 11 259 171 141 46 57 271 219 194 154 156 258 
8 11 135 376 351 227 329 299 328 426 359 369 33 
9 11 316 21 378 354 428 120 232 289 407 387 366 
10 11 137 41 56 97 191 173 73 282 383 127 273 
11 11 368 151 360 301 190 375 12 13 300 308 427 
12 10 406 190 272 360 368 401 11 91 151 427 
13 11 151 279 368 103 11 344 172 301 260 330 28 
14 9 175 399 59 371 372 291 305 124 6 
15 10 339 316 428 289 269 9 385 313 232 387 
16 11 63 157 294 331 198 47 134 217 50 132 201 
17 11 200 347 136 253 369 299 417 134 174 437 283 
18 11 213 71 265 209 206 242 163 64 153 181 75 
19 11 131 163 263 192 209 213 20 169 182 80 210 
20 11 182 192 267 80 49 222 98 19 51 131 263 
21 11 407 232 120 179 9 341 378 428 316 385 354 
22 11 128 408 281 81 31 177 88 122 403 125 61 
23 9 308 375 367 365 301 295 356 298 421 
24 11 277 195 320 203 138 362 420 180 317 76 391 
25 11 164 129 139 146 177 88 170 223 31 99 119 
26 11 344 380 28 172 318 143 239 288 79 332 78 
27 11 166 102 207 261 184 238 226 29 147 257 250 
28 11 318 380 26 143 344 79 288 172 239 285 287 
29 11 250 51 226 238 267 230 49 98 182 184 222 
30 8 321 168 345 66 89 390 234 87 
31 11 88 177 122 223 146 22 281 128 25 119 164 
32 11 35 264 37 142 363 348 357 101 4 214 90 
33 11 351 150 376 236 249 424 314 313 117 70 269 
34 11 422 361 418 402 410 350 112 304 280 247 398 
35 11 32 37 264 142 348 363 101 357 330 214 425 
36 11 343 439 287 430 370 409 416 285 298 309 79 
37 11 142 35 348 32 363 264 116 330 90 67 4 
38 10 266 240 262 160 82 42 126 167 256 86 
39 5 396 202 431 414 404 
40 11 276 85 188 187 423 412 229 438 159 373 397 
41 11 137 10 97 56 191 173 282 199 127 165 73 
42 10 262 160 240 126 82 38 266 256 167 86 
43 10 237 218 186 100 346 216 340 155 333 113 
44 11 58 109 241 116 5 278 348 114 142 363 90 
45 9 286 405 334 392 382 393 434 325 312 
46 11 141 156 7 154 194 123 171 259 83 258 271 
47 11 217 130 400 145 429 76 105 115 63 317 16 
48 9 292 384 284 176 425 214 342 355 297 
49 11 98 182 192 20 29 267 238 51 184 250 80 
50 10 201 358 157 245 328 364 331 436 148 227 
51 11 250 230 267 29 222 182 80 20 5 226 49 
52 11 252 65 412 113 188 276 155 340 333 100 438 
53 10 106 386 296 302 319 183 419 162 307 404 
54 11 290 374 389 413 336 197 152 322 373 312 437 
55 9 84 349 353 111 274 388 415 432 72 
56 11 41 137 165 10 97 199 220 273 191 383 173 
57 10 219 259 271 171 341 120 7 293 378 133 
58 11 44 116 241 109 114 278 142 348 108 5 260 
59 11 175 14 399 371 124 305 119 122 323 372 99 
60 8 212 235 93 326 158 275 92 224 
61 10 233 78 332 125 335 403 81 110 338 239 
62 11 178 161 83 123 258 107 194 433 293 149 179 
63 11 16 294 47 157 132 134 217 130 369 198 331 
64 11 206 242 75 265 71 153 95 18 211 181 251 
65 11 113 52 252 155 333 340 412 100 188 276 438 
66 10 89 196 321 30 133 315 168 345 234 390 
67 11 90 4 363 221 225 348 337 248 69 109 254 
68 8 244 187 270 85 423 140 229 283 
69 11 248 254 395 221 225 147 257 226 67 250 230 
70 11 117 121 185 424 433 150 107 269 249 2 310 
71 11 242 206 265 153 64 18 213 181 209 75 211 
72 5 432 111 349 84 55 
73 8 383 228 77 273 220 10 137 41 
74 11 247 6 112 144 193 435 291 34 361 422 323 
75 11 64 206 242 95 265 118 251 153 211 71 268 
76 11 317 203 217 47 400 145 429 24 195 130 138 
77 8 228 383 273 73 220 92 137 10 
78 9 332 61 233 239 125 110 335 403 338 
79 10 288 285 409 143 370 287 439 36 318 430 
80 11 222 267 20 182 204 5 51 131 263 278 192 
81 10 408 403 125 128 61 22 233 78 110 332 
82 10 160 262 42 240 38 266 167 126 256 86 
83 11 123 194 258 154 62 178 293 171 161 271 179 
84 9 55 349 432 111 274 72 353 415 388 
85 9 229 187 68 244 423 40 159 270 397 
86 4 256 167 126 42 
87 3 352 234 30 
88 11 31 177 223 146 122 25 22 164 281 119 128 
89 10 66 196 321 30 133 315 168 234 345 390 
90 11 67 363 4 348 109 221 37 264 225 32 142 
91 6 401 406 12 272 190 360 
92 9 275 212 60 235 326 93 158 228 77 
93 9 235 158 212 224 60 326 275 92 435 
94 11 211 170 139 153 181 75 118 242 129 205 64 
95 11 251 104 3 75 268 64 118 265 206 242 71 
96 11 297 337 176 246 225 221 4 48 292 214 425 
97 11 41 191 199 282 173 56 137 10 127 3 268 
98 11 49 182 192 20 29 238 267 184 51 250 80 
99 11 119 223 124 146 371 88 305 31 59 122 177 
100 11 340 155 113 333 237 43 218 65 186 216 52 
101 8 272 35 357 32 214 264 425 401 
102 11 184 27 166 238 207 261 226 29 98 49 250 
103 11 330 13 279 260 151 368 272 142 35 101 37 
104 11 3 251 95 268 127 282 173 75 118 191 64 
105 6 115 429 130 145 400 47 
106 10 53 386 302 296 319 183 419 162 307 404 
107 11 121 433 185 70 377 149 117 161 310 381 178 
108 11 114 210 278 205 204 58 169 241 94 181 44 
109 11 44 5 241 90 278 58 348 230 363 67 116 
110 6 125 403 78 239 332 61 
111 7 349 432 55 72 84 388 353 
112 11 193 247 361 410 422 34 74 280 435 144 402 
113 11 155 340 65 333 100 52 252 237 43 412 218 
114 11 278 204 241 5 108 44 58 80 222 210 169 
115 6 429 105 145 400 130 47 
116 11 142 58 348 44 37 330 260 363 109 35 32 
117 11 70 185 121 269 150 433 424 249 107 385 33 
118 11 268 75 251 95 211 3 64 94 104 199 206 
119 11 124 99 371 223 59 146 305 122 88 31 399 
120 11 341 21 407 378 232 9 179 354 219 428 271 
121 11 185 433 70 117 107 269 385 150 424 249 310 
122 11 31 88 281 59 124 119 223 420 177 371 22 
123 11 83 194 258 154 62 293 178 171 271 7 46 
124 11 371 119 99 59 305 223 399 122 14 175 146 
125 8 403 110 61 81 78 332 233 408 
126 10 42 262 160 240 82 38 256 86 266 167 
127 11 282 173 191 97 3 104 41 251 199 10 268 
128 11 22 408 81 281 31 403 125 177 61 88 122 
129 11 164 25 139 170 146 177 88 223 31 94 99 
130 8 105 47 429 115 145 400 217 132 
131 11 263 19 169 209 163 210 80 213 192 20 204 
132 9 417 134 130 63 136 105 347 47 16 
133 5 315 196 66 89 321 
134 11 369 200 417 136 132 299 347 17 63 294 16 
135 8 329 426 8 376 351 299 236 311 
136 11 347 417 200 17 134 369 132 299 283 253 140 
137 11 10 41 56 97 191 173 73 282 383 273 127 
138 6 362 277 24 317 195 76 
139 11 170 129 164 25 94 177 205 146 211 88 31 
140 6 283 270 347 68 244 417 
141 11 46 156 7 154 259 171 194 123 83 57 271 
142 11 37 348 116 35 32 363 330 264 103 90 260 
143 11 288 79 380 318 285 28 409 239 26 370 287 
144 9 435 193 247 74 112 6 361 224 323 
145 9 400 429 115 105 130 47 203 217 76 
146 11 223 88 99 25 177 164 31 119 129 124 122 
147 11 257 327 254 395 248 69 226 261 207 225 246 
148 8 436 245 364 359 358 50 201 328 
149 9 381 377 379 310 2 107 161 303 208 
150 11 33 236 249 424 117 70 269 351 376 185 313 
151 11 368 13 11 279 301 375 12 103 360 308 23 
152 10 312 322 374 389 336 54 290 434 325 45 
153 11 242 181 71 206 64 211 75 265 209 210 94 
154 11 123 194 83 46 258 141 7 171 156 293 62 
155 10 340 333 113 100 237 65 43 218 216 52 
156 11 141 46 7 154 194 259 171 123 83 258 57 
157 11 50 201 294 331 16 358 198 63 328 364 245 
158 10 93 235 224 60 212 326 106 275 53 319 
159 11 397 423 197 187 373 174 413 68 54 290 437 
160 10 42 262 240 82 126 38 266 167 256 86 
161 10 62 149 107 381 377 178 379 433 310 121 
162 6 419 296 319 404 183 53 
163 11 19 213 209 131 18 263 192 169 71 210 20 
164 11 25 129 139 146 177 170 88 223 31 99 22 
165 9 56 220 273 323 305 41 6 137 144 
166 11 27 184 102 207 261 238 226 29 147 250 257 
167 8 256 82 86 160 42 262 240 126 
168 4 345 390 321 30 
169 11 210 263 131 181 209 204 213 19 153 114 80 
170 11 139 129 205 164 25 94 231 177 211 146 88 
171 11 271 259 57 219 293 258 7 194 341 120 407 
172 11 344 26 28 380 279 318 239 143 338 335 13 
173 11 282 191 127 97 41 10 137 3 104 199 56 
174 10 437 253 290 197 389 374 17 54 397 159 
175 10 14 59 399 372 371 291 124 305 391 122 
176 10 297 292 48 96 214 425 384 357 284 342 
177 11 88 31 25 146 164 223 22 129 122 128 281 
178 11 62 258 433 107 179 293 161 385 232 83 121 
179 11 232 407 21 385 428 120 9 293 341 316 433 
180 5 391 320 195 372 24 
181 11 153 210 242 71 169 209 206 211 94 64 213 
182 11 20 267 192 80 49 222 51 98 29 250 19 
183 9 307 404 302 386 53 162 414 296 106 
184 11 238 102 166 27 207 261 29 226 98 49 250 
185 11 121 117 433 70 269 107 385 150 339 424 428 
186 6 346 218 43 237 216 100 
187 11 423 85 68 159 229 244 397 40 283 270 140 
188 11 276 412 52 252 65 113 40 438 155 333 340 
189 10 215 92 275 228 73 77 383 60 212 273 
190 9 360 406 427 12 300 11 368 401 421 
191 11 173 282 127 97 41 10 137 199 3 56 104 
192 11 20 182 19 49 98 267 80 131 263 163 222 
193 10 112 361 247 435 410 144 422 280 34 74 
194 11 123 83 258 154 293 171 178 62 271 7 259 
195 11 24 320 277 203 180 420 317 391 76 138 362 
196 9 89 66 133 315 321 57 259 30 168 
197 11 413 54 290 373 374 336 397 389 174 159 437 
198 6 331 157 201 358 50 16 
199 11 97 56 41 191 268 282 173 127 3 118 137 
200 11 17 136 369 299 134 347 417 253 132 294 135 
201 10 358 50 157 245 331 436 364 328 148 198 
202 3 396 39 431 
203 10 76 317 400 195 145 320 24 429 277 217 
204 11 278 114 241 5 80 222 169 263 210 108 131 
205 11 170 231 139 108 94 338 129 164 335 25 233 
206 11 242 64 71 265 153 75 18 181 213 95 209 
207 11 261 27 166 102 226 184 238 147 257 29 327 
208 4 303 2 310 311 
209 11 213 18 163 71 131 263 169 181 19 210 153 
210 11 169 181 263 131 209 153 108 204 114 213 71 
211 11 94 153 75 181 118 242 64 206 71 139 170 
212 8 60 235 93 158 275 92 326 224 
213 11 209 18 163 71 19 131 242 263 206 153 181 
214 8 425 357 292 48 384 284 176 355 
215 10 189 92 275 228 77 60 73 212 383 326 
216 7 218 237 243 186 43 346 333 
217 11 47 76 317 130 400 145 63 429 203 16 105 
218 7 186 43 237 346 216 100 333 
219 10 271 57 341 259 171 120 378 407 293 21 
220 8 273 77 165 228 383 73 56 144 
221 11 225 337 4 248 254 395 246 67 96 90 69 
222 11 267 80 230 51 5 182 250 204 20 278 241 
223 11 146 99 119 88 31 124 177 122 371 25 164 
224 9 93 158 235 212 60 193 435 319 144 
225 11 221 337 254 395 248 246 4 96 67 69 327 
226 11 29 261 166 250 207 69 147 238 257 51 184 
227 9 328 359 364 314 245 8 50 148 201 
228 8 77 383 73 273 220 92 10 137 
229 7 85 187 68 244 423 270 40 
230 11 51 250 222 5 267 29 80 109 241 69 278 
231 11 335 338 233 61 408 205 81 332 78 128 22 
232 11 179 21 407 120 428 9 385 341 316 378 293 
233 11 61 335 332 78 338 125 239 403 81 110 231 
234 5 352 87 30 89 66 
235 9 93 158 212 60 224 326 275 92 435 
236 11 249 424 33 351 376 150 426 329 70 117 2 
237 9 43 218 216 333 100 186 340 155 346 
238 11 184 166 102 27 29 226 98 261 207 49 250 
239 7 78 332 143 110 26 380 288 
240 10 262 42 160 38 82 266 126 167 256 86 
241 11 278 5 114 44 204 109 58 222 230 80 108 
242 11 206 71 153 64 265 75 181 18 209 211 213 
243 8 336 216 413 438 373 54 237 333 
244 6 68 270 187 140 85 229 
245 8 436 148 364 358 50 201 359 328 
246 11 337 225 221 395 96 254 248 327 297 4 176 
247 11 74 112 193 34 361 144 422 435 410 6 280 
248 11 254 395 225 221 69 337 246 257 327 147 67 
249 11 424 236 150 33 70 351 376 2 117 426 329 
250 11 51 230 29 267 222 226 182 69 5 80 20 
251 11 95 3 104 268 75 118 64 265 206 127 242 
252 11 52 65 412 113 188 276 155 340 333 100 237 
253 9 174 17 437 200 347 136 299 369 135 
254 11 395 248 225 221 246 337 327 69 257 147 4 
255 7 306 411 342 284 355 384 48 
256 7 86 167 126 42 160 262 82 
257 11 147 327 254 395 248 69 226 261 207 225 246 
258 11 293 194 123 83 171 178 271 62 407 179 232 
259 11 57 271 171 219 7 341 293 120 258 196 133 
260 11 330 103 279 116 13 172 142 344 58 151 37 
261 11 207 27 166 226 102 184 147 257 238 29 69 
262 10 42 160 240 126 82 38 266 167 256 86 
263 11 131 169 19 210 209 80 163 204 213 181 20 
264 11 32 35 37 357 363 214 4 425 348 142 101 
265 11 206 64 71 242 18 75 153 95 213 209 251 
266 10 38 240 82 262 160 42 126 167 256 86 
267 11 222 182 80 20 51 250 230 192 29 5 49 
268 11 118 251 3 95 104 75 199 64 127 97 211 
269 11 117 185 339 121 385 433 70 150 15 428 313 
270 3 244 68 140 
271 11 219 57 171 259 341 293 120 407 21 258 378 
272 9 12 406 401 101 91 368 190 360 103 
273 7 220 77 228 383 73 165 56 
274 7 415 353 55 388 84 349 111 
275 9 92 60 212 326 235 93 158 215 224 
276 11 188 412 52 252 65 40 113 438 155 333 340 
277 11 24 195 320 362 420 138 203 180 317 76 391 
278 11 114 241 204 5 44 222 80 109 58 108 230 
279 11 13 151 344 172 103 260 368 28 330 26 11 
280 9 410 361 402 422 419 34 319 162 304 
281 11 22 128 122 408 31 420 362 81 88 177 403 
282 11 173 127 191 97 41 3 10 104 137 199 251 
283 6 140 347 136 417 68 17 
284 6 384 342 355 48 292 425 
285 10 409 370 79 288 287 439 430 36 143 343 
286 7 45 382 405 392 334 393 434 
287 11 36 370 439 343 409 430 285 79 288 298 416 
288 10 79 285 143 409 370 287 439 318 380 36 
289 8 316 15 387 366 9 339 428 354 
290 11 374 54 389 322 197 413 336 152 437 174 324 
291 6 14 74 372 399 6 398 
292 9 48 425 214 384 176 284 357 355 342 
293 11 258 171 407 271 179 120 232 21 219 194 341 
294 11 157 16 63 50 369 328 201 299 134 358 227 
295 8 421 365 308 23 367 375 300 301 
296 9 319 419 162 53 106 183 386 302 404 
297 11 176 96 48 292 384 337 284 214 246 425 357 
298 9 356 343 36 287 367 370 416 439 430 
299 11 369 200 134 17 8 136 294 135 347 417 253 
300 6 427 421 360 295 190 11 
301 10 375 23 308 367 365 295 11 298 356 421 
302 10 386 183 307 53 106 296 404 162 319 414 
303 5 208 2 310 311 377 
304 5 350 418 402 422 34 
305 11 323 371 399 124 6 59 14 119 175 99 74 
306 7 255 411 342 284 355 384 48 
307 9 183 302 386 414 404 53 106 162 296 
308 8 23 375 365 301 367 295 421 356 
309 9 394 430 416 439 36 370 409 343 287 
310 10 2 377 303 149 381 208 379 70 424 107 
311 6 303 208 426 2 329 392 
312 7 152 325 45 322 434 286 334 
313 8 314 33 339 15 150 359 269 351 
314 8 313 359 227 33 364 351 376 328 
315 3 133 196 66 
316 11 289 15 428 9 339 387 354 366 21 378 232 
317 11 76 203 217 47 400 24 138 145 195 277 320 
318 11 380 28 143 26 79 288 344 285 287 239 409 
319 9 419 296 162 53 106 280 183 386 302 
320 9 195 24 277 180 203 391 420 317 76 
321 8 30 168 345 390 66 89 133 315 
322 10 389 324 374 152 434 290 54 334 312 45 
323 11 305 6 399 371 74 124 14 59 144 165 119 
324 9 434 322 334 405 392 45 389 382 286 
325 5 312 393 45 286 405 
326 11 60 235 158 212 93 275 92 224 106 53 386 
327 11 257 147 395 254 248 246 225 221 337 69 96 
328 11 227 364 359 50 245 201 358 148 314 436 294 
329 9 426 135 376 351 236 311 8 249 424 
330 11 103 260 142 116 37 279 35 13 348 32 151 
331 6 198 157 201 358 50 16 
332 9 78 233 61 239 335 125 110 338 403 
333 10 155 340 113 100 237 65 43 216 218 243 
334 8 405 392 45 434 286 382 324 393 
335 11 338 233 61 332 78 231 239 125 81 403 26 
336 9 413 54 243 374 152 290 389 197 312 
337 11 221 225 246 96 4 254 395 248 297 67 176 
338 11 335 233 332 61 78 231 239 26 172 125 344 
339 10 15 428 316 269 289 385 313 9 185 117 
340 11 155 100 113 333 237 65 43 218 216 52 252 
341 11 120 378 21 219 407 9 232 271 354 179 57 
342 4 355 284 384 48 
343 11 36 287 439 430 416 370 298 356 409 285 309 
344 11 172 26 28 380 318 279 143 239 13 288 79 
345 4 168 390 321 30 
346 5 186 218 43 216 237 
347 11 136 417 17 200 134 283 369 253 132 140 299 
348 11 363 37 142 90 116 32 35 67 264 44 109 
349 8 111 55 432 84 72 388 353 274 
350 6 304 418 402 34 422 398 
351 11 376 33 236 150 249 329 8 314 424 426 135 
352 3 234 87 30 
353 7 388 415 55 274 349 111 84 
354 8 378 366 387 9 120 316 289 341 
355 4 342 284 384 48 
356 7 298 343 367 36 287 416 439 
357 8 214 425 292 48 384 176 284 264 
358 9 201 50 245 436 157 331 148 364 328 
359 9 227 364 328 314 148 245 436 50 313 
360 9 190 427 300 11 12 406 368 421 295 
361 11 410 422 112 280 34 193 402 247 418 350 304 
362 10 138 277 420 24 281 195 320 403 81 128 
363 11 348 90 37 67 142 32 4 264 35 116 109 
364 10 328 359 227 245 148 50 436 358 201 314 
365 8 308 23 367 295 375 301 421 356 
366 5 387 354 378 289 9 
367 8 23 365 308 375 356 301 298 295 
368 11 151 11 13 12 360 190 406 272 279 103 301 
369 11 299 200 134 17 136 294 417 347 8 63 16 
370 11 409 439 287 285 430 36 79 343 288 309 416 
371 11 124 119 59 305 399 99 14 175 323 223 122 
372 5 391 175 180 14 291 
373 10 413 197 438 243 336 54 397 290 159 374 
374 11 389 290 54 322 152 336 413 197 324 437 312 
375 10 301 23 308 367 365 295 298 356 421 11 
376 11 351 33 236 150 249 329 8 426 424 314 135 
377 10 149 381 310 379 2 107 303 208 70 161 
378 9 354 9 120 341 366 387 21 407 316 
379 7 381 149 377 310 208 2 303 
380 11 318 28 143 26 288 79 344 239 285 409 172 
381 9 149 377 379 310 2 208 303 107 161 
382 6 392 286 405 334 45 393 
383 8 228 73 77 273 220 137 10 56 
384 7 284 48 355 342 292 425 214 
385 11 428 179 232 269 433 185 339 21 15 407 121 
386 10 302 53 106 183 307 296 319 404 162 419 
387 6 366 354 289 378 9 316 
388 6 353 55 415 274 349 111 
389 10 374 290 322 54 152 324 336 437 434 413 
390 4 345 168 321 30 
391 6 372 180 320 195 420 24 
392 7 382 405 334 286 45 434 393 
393 6 286 45 325 382 405 392 
394 7 309 416 430 439 36 343 370 
395 11 254 248 225 221 246 327 337 69 257 147 4 
396 5 39 202 431 414 404 
397 11 159 423 197 373 174 187 413 54 290 437 374 
398 4 418 350 304 34 
399 11 14 59 175 305 371 323 124 6 291 119 372 
400 9 145 429 115 105 130 47 203 76 217 
401 7 91 406 272 12 190 360 101 
402 8 304 350 418 422 34 280 410 361 
403 8 125 110 81 61 78 332 408 233 
404 7 183 414 162 307 296 302 53 
405 8 334 392 45 286 382 434 393 324 
406 10 12 190 272 401 360 91 368 11 427 300 
407 11 21 232 120 179 341 9 293 378 428 385 219 
408 11 81 128 22 403 125 61 281 233 78 231 332 
409 10 285 370 439 287 430 79 288 36 343 309 
410 11 361 280 422 34 112 402 193 418 350 304 419 
411 8 255 306 48 284 342 297 384 355 
412 11 188 276 52 252 65 113 155 333 438 340 40 
413 10 336 54 197 373 290 243 374 389 152 438 
414 7 404 307 183 302 162 386 53 
415 7 274 353 388 55 84 349 111 
416 9 343 36 430 309 439 394 287 370 356 
417 10 136 347 134 132 200 17 369 283 299 140 
418 6 350 304 402 34 398 422 
419 8 319 296 162 53 280 106 183 404 
420 11 277 362 281 24 195 320 122 391 175 372 59 
421 6 295 300 365 308 427 23 
422 10 34 361 410 402 418 280 112 350 304 247 
423 11 159 187 397 68 85 373 197 244 40 229 283 
424 11 249 236 150 70 2 33 117 351 376 310 121 
425 8 214 357 292 384 48 284 176 355 
426 9 329 135 236 311 376 351 249 424 8 
427 6 300 360 190 421 295 11 
428 11 316 15 339 385 9 232 21 179 289 407 269 
429 8 145 115 400 105 130 47 203 217 
430 10 439 36 370 287 409 343 309 416 285 394 
431 3 202 396 39 
432 6 72 349 111 84 55 353 
433 11 185 121 107 117 385 70 269 178 179 428 339 
434 9 334 324 405 45 392 286 322 382 152 
435 8 144 193 112 247 74 224 361 6 
436 7 245 148 358 364 201 50 359 
437 9 174 253 389 290 374 322 54 324 197 
438 9 373 243 413 333 336 216 197 65 155 
439 11 430 36 370 287 409 343 285 416 309 79 288 
DEPOT_SECTION
   1
   -1
EOF
