NAME :  X-n783-kX-w156-c7.cctp
COMMENT : 	Adapted by Maziero, Usberti and Cavellucci from the Uchoa, Pecin, Pessoa, Poggi, Subramanian, and Vidal (2013)
TYPE :  CCTP
DIMENSION :    657
EDGE_WEIGHT_TYPE : 	EUC_2D	
CAPACITY : 	832
VERTICES_WITHIN_COVERAGE :  7
VERTICES_WITH_DEMAND : 	156
NODE_COORD_SECTION
1 909 919
2 878 721
3 969 85
4 591 195
5 955 148
6 587 903
7 994 792
8 625 129
9 544 703
10 461 167
11 37 644
12 615 22
13 773 788
14 384 364
15 51 291
16 109 732
17 570 124
18 692 985
19 62 150
20 358 5
21 188 450
22 674 658
23 676 904
24 815 984
25 710 16
26 74 658
27 576 1000
28 636 695
29 547 92
30 587 397
31 26 150
32 182 561
33 938 462
34 362 928
35 366 835
36 516 892
37 448 923
38 501 445
39 513 799
40 905 388
41 474 791
42 560 782
43 465 552
44 315 645
45 738 396
46 45 915
47 797 871
48 922 643
49 793 586
50 921 458
51 160 295
52 598 257
53 516 221
54 99 169
55 788 634
56 425 751
57 616 680
58 949 444
59 987 459
60 182 279
61 127 354
62 791 822
63 645 609
64 857 386
65 917 154
66 398 480
67 729 688
68 134 510
69 172 2
70 499 737
71 780 565
72 908 477
73 917 341
74 272 553
75 421 876
76 770 2
77 497 623
78 853 27
79 853 521
80 519 196
81 90 822
82 827 901
83 350 168
84 656 56
85 199 924
86 732 55
87 772 748
88 884 973
89 158 430
90 563 13
91 50 959
92 609 223
93 628 860
94 264 436
95 699 764
96 441 479
97 95 246
98 236 627
99 307 893
100 695 302
101 378 639
102 830 30
103 44 339
104 885 644
105 122 603
106 850 732
107 155 865
108 230 346
109 300 719
110 55 954
111 467 494
112 153 641
113 713 82
114 659 564
115 881 18
116 781 654
117 490 806
118 823 569
119 878 496
120 441 898
121 589 516
122 165 614
123 17 749
124 164 778
125 296 858
126 258 488
127 437 866
128 187 88
129 725 988
130 125 619
131 352 701
132 447 517
133 316 80
134 743 575
135 555 373
136 84 140
137 341 827
138 541 567
139 919 768
140 945 924
141 397 932
142 905 944
143 892 37
144 74 227
145 911 617
146 668 697
147 1 96
148 223 299
149 637 118
150 622 958
151 356 127
152 347 777
153 157 190
154 8 497
155 138 78
156 100 192
157 384 598
158 23 228
159 110 163
160 345 464
161 53 628
162 316 705
163 112 361
164 235 578
165 489 621
166 563 916
167 597 310
168 37 513
169 648 247
170 375 402
171 531 205
172 935 676
173 103 549
174 233 241
175 891 112
176 378 472
177 457 893
178 852 861
179 113 701
180 340 913
181 662 198
182 667 718
183 140 332
184 809 908
185 968 908
186 163 857
187 59 136
188 529 215
189 385 380
190 319 417
191 318 216
192 156 119
193 138 787
194 473 713
195 537 114
196 168 838
197 774 825
198 32 510
199 216 372
200 16 935
201 60 733
202 343 363
203 205 398
204 708 298
205 840 359
206 112 603
207 865 775
208 259 348
209 893 516
210 814 607
211 605 162
212 359 199
213 16 739
214 482 214
215 528 103
216 572 770
217 802 517
218 876 469
219 118 571
220 952 781
221 823 795
222 522 595
223 52 336
224 255 413
225 956 21
226 717 142
227 766 880
228 524 825
229 657 640
230 189 232
231 920 809
232 688 98
233 660 781
234 236 735
235 784 692
236 743 446
237 201 32
238 188 957
239 381 605
240 380 904
241 227 263
242 69 94
243 123 416
244 341 341
245 450 482
246 251 533
247 352 591
248 724 967
249 753 539
250 684 924
251 617 989
252 455 500
253 472 926
254 395 683
255 167 357
256 789 678
257 991 492
258 457 837
259 809 754
260 770 852
261 153 799
262 924 995
263 147 318
264 85 634
265 373 184
266 99 998
267 312 527
268 846 684
269 725 123
270 806 813
271 566 172
272 191 307
273 373 125
274 906 762
275 91 96
276 40 521
277 579 597
278 907 73
279 718 33
280 279 156
281 114 156
282 220 648
283 948 992
284 969 895
285 986 791
286 78 292
287 559 896
288 791 579
289 228 922
290 155 8
291 243 347
292 48 593
293 954 72
294 2 686
295 301 649
296 810 8
297 984 28
298 918 370
299 586 337
300 151 693
301 550 217
302 606 719
303 178 588
304 136 341
305 544 174
306 282 685
307 39 476
308 104 90
309 460 557
310 86 722
311 694 749
312 707 652
313 774 72
314 735 359
315 707 226
316 102 861
317 358 730
318 462 414
319 49 853
320 750 829
321 224 328
322 581 819
323 49 715
324 84 563
325 305 734
326 917 652
327 530 838
328 403 43
329 681 779
330 393 11
331 208 154
332 37 206
333 122 294
334 451 649
335 604 580
336 274 509
337 289 185
338 728 595
339 989 745
340 104 963
341 478 854
342 394 459
343 147 617
344 39 967
345 740 958
346 544 247
347 186 913
348 38 939
349 839 23
350 754 893
351 930 149
352 430 951
353 739 15
354 202 774
355 104 669
356 241 910
357 189 181
358 645 128
359 500 603
360 577 997
361 146 161
362 662 708
363 360 721
364 622 159
365 264 483
366 166 281
367 881 938
368 137 613
369 897 132
370 710 807
371 965 334
372 127 729
373 522 569
374 202 666
375 127 378
376 156 913
377 97 971
378 747 419
379 838 961
380 391 886
381 484 126
382 828 28
383 750 567
384 921 125
385 654 832
386 440 878
387 720 914
388 606 394
389 372 600
390 869 892
391 471 928
392 511 594
393 867 996
394 417 918
395 920 808
396 741 70
397 101 132
398 110 652
399 533 564
400 891 336
401 661 893
402 15 879
403 527 56
404 481 860
405 709 388
406 105 381
407 210 937
408 550 23
409 603 51
410 582 48
411 591 850
412 354 660
413 301 884
414 50 500
415 530 386
416 859 502
417 826 779
418 86 854
419 403 612
420 771 629
421 550 820
422 80 276
423 189 636
424 676 601
425 129 319
426 363 577
427 490 220
428 584 523
429 553 110
430 935 660
431 830 469
432 539 52
433 278 487
434 637 548
435 674 905
436 823 923
437 999 837
438 565 337
439 82 851
440 969 38
441 693 895
442 710 695
443 390 537
444 837 407
445 220 391
446 618 221
447 180 686
448 959 960
449 934 765
450 487 708
451 434 776
452 129 119
453 153 438
454 564 929
455 541 777
456 290 772
457 202 468
458 432 949
459 117 642
460 413 752
461 719 52
462 543 161
463 112 459
464 301 817
465 300 770
466 622 470
467 148 130
468 70 782
469 488 540
470 814 887
471 679 989
472 159 535
473 180 610
474 155 207
475 829 839
476 828 485
477 579 290
478 621 918
479 92 563
480 609 789
481 233 130
482 184 475
483 182 513
484 601 785
485 482 409
486 587 627
487 396 611
488 653 648
489 804 553
490 12 198
491 183 925
492 242 857
493 749 551
494 651 13
495 373 643
496 731 963
497 219 275
498 568 499
499 714 734
500 560 470
501 837 631
502 4 304
503 79 917
504 355 877
505 735 76
506 745 354
507 621 723
508 145 377
509 119 768
510 638 271
511 574 247
512 924 493
513 924 402
514 91 336
515 599 6
516 635 887
517 660 944
518 186 35
519 679 861
520 919 121
521 822 482
522 151 384
523 407 860
524 869 930
525 928 75
526 139 615
527 625 969
528 252 842
529 123 311
530 404 744
531 216 14
532 906 567
533 15 55
534 719 567
535 614 496
536 564 906
537 179 656
538 207 724
539 355 609
540 344 833
541 726 657
542 971 896
543 958 954
544 351 186
545 39 94
546 18 167
547 396 368
548 416 570
549 792 716
550 332 103
551 561 229
552 144 320
553 44 186
554 924 415
555 267 418
556 782 427
557 306 493
558 853 704
559 293 285
560 468 127
561 464 700
562 692 310
563 610 428
564 257 608
565 980 789
566 25 7
567 918 803
568 762 527
569 50 710
570 978 624
571 775 736
572 551 199
573 416 970
574 630 871
575 926 116
576 293 786
577 959 178
578 244 56
579 28 579
580 342 15
581 267 887
582 339 737
583 219 933
584 533 943
585 116 72
586 556 836
587 421 584
588 777 841
589 664 334
590 340 957
591 138 690
592 185 939
593 895 564
594 384 127
595 221 151
596 164 405
597 171 394
598 33 379
599 987 917
600 892 692
601 881 293
602 1 227
603 935 348
604 527 995
605 487 506
606 395 580
607 405 978
608 557 620
609 966 509
610 571 996
611 214 405
612 734 399
613 69 747
614 589 624
615 272 760
616 936 678
617 84 652
618 525 364
619 908 779
620 600 19
621 33 90
622 717 960
623 360 458
624 204 29
625 602 46
626 372 106
627 707 678
628 884 598
629 401 345
630 288 295
631 453 130
632 587 936
633 169 316
634 271 407
635 428 772
636 461 415
637 926 968
638 61 305
639 435 146
640 637 547
641 620 2
642 973 397
643 561 40
644 147 381
645 452 610
646 963 618
647 948 761
648 785 845
649 900 613
650 668 101
651 445 170
652 57 176
653 373 307
654 365 297
655 117 1000
656 765 916
657 387 877
DEMAND_SECTION
2 85
3 34
4 47
5 49
6 75
7 87
8 13
9 92
10 85
11 3
12 18
13 87
14 96
15 72
16 38
17 5
18 59
19 75
20 81
21 68
22 99
23 66
24 67
25 33
26 30
27 73
28 61
29 18
30 37
31 81
32 36
33 17
34 31
35 25
36 85
37 12
38 44
39 60
40 5
41 23
42 58
43 29
44 9
45 13
46 1
47 100
48 88
49 53
50 30
51 66
52 47
53 35
54 55
55 83
56 20
57 84
58 36
59 50
60 76
61 70
62 80
63 79
64 44
65 26
66 60
67 80
68 40
69 60
70 46
71 62
72 50
73 32
74 18
75 3
76 16
77 30
78 4
79 68
80 6
81 34
82 93
83 58
84 10
85 45
86 27
87 90
88 77
89 98
90 40
91 41
92 30
93 58
94 63
95 78
96 67
97 51
98 32
99 25
100 26
101 25
102 25
103 67
104 99
105 41
106 66
107 47
108 86
109 18
110 19
111 85
112 23
113 14
114 79
115 48
116 93
117 9
118 80
119 34
120 19
121 79
122 21
123 20
124 44
125 24
126 60
127 14
128 87
129 88
130 23
131 29
132 12
133 61
134 90
135 12
136 84
137 20
138 85
139 68
140 60
141 21
142 53
143 29
144 67
145 84
146 86
147 86
148 60
149 2
150 64
151 77
152 10
153 85
154 81
155 92
156 93
157 12
COVERAGE_SECTION
2 7 106 558 600 268 274 207 139 
3 7 293 525 440 575 297 384 520 
4 7 92 271 211 446 572 551 301 
5 7 351 577 65 384 575 520 369 
6 6 536 166 287 632 454 478 
7 6 285 565 220 437 339 647 
8 7 149 358 364 211 650 17 232 
9 7 70 450 302 194 216 455 57 
10 6 651 639 631 560 381 214 
11 7 161 26 617 264 292 294 579 
12 7 620 641 515 625 409 494 410 
13 7 197 62 87 270 320 221 259 
14 6 547 189 629 170 202 244 
15 7 638 286 422 223 103 502 514 
16 7 372 310 179 509 613 201 591 
17 7 429 195 29 462 215 271 211 
18 7 471 129 622 248 496 517 345 
19 7 187 136 652 31 553 54 397 
20 4 580 330 328 133 
21 7 457 482 89 453 596 611 203 
22 7 488 229 312 146 627 362 442 
23 7 435 401 441 250 517 519 516 
24 7 379 393 436 88 184 524 345 
25 7 279 353 461 86 494 76 396 
26 7 617 264 355 398 161 11 459 
27 6 360 610 251 604 527 150 
28 7 57 362 146 507 302 182 488 
29 7 429 215 195 17 403 432 643 
30 6 388 563 135 415 299 438 
31 7 546 19 187 553 652 490 332 
32 7 303 472 483 473 122 164 219 
33 7 50 58 72 512 59 554 609 
34 7 180 240 141 590 380 504 394 
35 7 540 137 504 657 523 380 152 
36 5 287 404 536 166 341 
37 7 253 391 120 177 394 458 352 
38 7 485 318 636 111 245 605 500 
39 7 117 228 455 41 327 421 42 
40 7 298 513 554 64 73 603 400 
41 7 117 39 451 258 635 70 228 
42 7 216 455 421 484 322 480 39 
43 7 309 469 132 605 548 252 587 
44 7 295 412 306 539 495 162 101 
45 7 612 378 405 314 506 236 556 
46 7 348 503 200 110 91 402 344 
47 7 470 648 227 260 588 184 82 
48 7 326 430 145 172 104 649 616 
49 7 288 71 210 118 489 383 55 
50 7 33 72 58 512 554 218 513 
51 7 366 633 263 60 552 272 333 
52 7 511 92 477 446 510 551 169 
53 7 188 171 80 427 301 214 346 
54 7 159 281 156 136 397 19 652 
55 7 420 116 210 256 49 501 288 
56 7 460 635 530 451 194 41 561 
57 7 28 302 507 488 362 146 229 
58 7 33 50 554 59 513 72 642 
59 7 257 58 33 609 642 50 512 
60 7 366 51 272 497 633 148 230 
61 7 304 163 375 183 508 644 406 
62 7 197 270 588 648 260 13 221 
63 7 424 229 488 114 335 22 614 
64 7 444 205 40 400 298 513 554 
65 7 351 384 369 520 5 575 577 
66 7 342 176 96 623 245 160 443 
67 7 442 627 541 312 499 235 256 
68 6 472 483 173 463 482 219 
69 7 290 518 237 624 531 155 128 
70 7 450 194 561 9 455 41 39 
71 7 288 49 489 383 493 249 134 
72 7 50 512 218 33 119 209 58 
73 5 603 400 298 40 371 
74 7 246 336 164 267 564 126 433 
75 7 127 386 523 120 380 657 177 
76 7 353 296 279 25 382 86 102 
77 7 165 359 392 222 645 334 373 
78 7 349 102 382 115 143 296 278 
79 7 416 119 209 476 521 217 118 
80 7 171 188 53 572 305 301 427 
81 7 439 418 316 468 319 193 509 
82 7 184 470 436 47 390 178 524 
83 6 544 265 212 151 273 594 
84 7 494 650 12 232 409 625 113 
85 7 491 347 407 592 583 289 238 
86 7 461 396 505 279 113 353 25 
87 7 571 259 549 13 235 499 417 
88 7 393 367 142 637 262 524 379 
89 7 453 596 21 243 597 522 644 
90 7 408 643 515 620 410 432 625 
91 7 110 344 348 200 46 377 503 
92 7 446 4 52 511 169 551 510 
93 7 574 516 385 411 401 519 478 
94 7 555 224 634 365 126 433 190 
95 7 311 329 499 233 370 182 362 
96 7 245 252 111 132 66 342 605 
97 7 144 422 286 156 333 15 638 
98 7 282 564 423 164 374 473 537 
99 7 413 125 180 581 504 34 356 
100 7 562 204 589 510 314 169 506 
101 7 495 412 487 239 419 539 389 
102 6 382 349 78 296 115 143 
103 6 223 638 598 514 15 502 
104 7 326 649 48 145 628 600 501 
105 7 206 130 368 526 343 219 459 
106 7 558 2 207 259 268 417 600 
107 7 186 196 376 316 347 261 491 
108 7 291 321 208 199 445 148 272 
109 7 325 162 306 582 615 465 456 
110 7 91 344 348 46 200 503 377 
111 7 252 245 605 96 132 469 43 
112 7 343 122 526 537 368 130 423 
113 6 505 232 396 461 86 269 
114 7 434 640 424 63 335 534 229 
115 7 143 78 349 102 382 278 296 
116 7 55 256 420 235 541 210 501 
117 7 41 39 228 258 341 327 404 
118 7 489 49 288 210 71 217 79 
119 7 416 209 218 79 72 512 476 
120 7 177 386 37 75 394 127 253 
121 7 428 498 535 500 466 640 434 
122 7 473 343 526 368 303 112 423 
123 7 213 201 323 569 613 468 294 
124 7 261 193 354 509 196 372 538 
125 7 413 99 464 581 528 492 540 
126 7 365 433 336 246 557 94 457 
127 7 386 75 523 120 177 258 341 
128 7 192 155 518 467 237 624 481 
129 7 248 496 622 18 345 471 387 
130 7 368 526 105 206 343 459 112 
131 7 363 317 162 582 412 254 109 
132 7 252 111 245 96 43 605 309 
133 7 550 151 626 580 273 578 594 
134 7 383 338 493 534 249 71 288 
135 6 415 618 438 30 299 388 
136 7 397 19 187 54 281 159 275 
137 7 540 35 464 152 504 125 576 
138 7 399 373 222 392 277 359 608 
139 7 274 449 619 647 220 567 395 
140 7 185 543 284 542 448 599 142 
141 7 394 240 34 352 458 573 380 
142 7 367 637 88 524 140 262 543 
143 7 115 278 78 525 349 102 382 
144 7 97 332 156 422 158 553 652 
145 7 649 48 628 326 104 430 532 
146 7 362 182 28 22 442 627 488 
147 7 621 545 533 31 242 187 546 
148 7 497 321 272 241 60 108 291 
149 7 358 8 650 364 211 232 84 
150 7 527 251 478 517 632 360 27 
151 6 273 626 594 550 83 265 
152 7 582 317 465 137 576 540 363 
153 7 474 361 357 230 159 281 156 
154 5 198 168 307 276 414 
155 7 585 308 452 192 128 275 467 
156 7 54 159 281 144 652 97 136 
157 7 239 389 487 606 419 426 539 
158 7 602 332 490 553 144 546 652 
159 7 281 54 156 397 136 361 452 
160 6 623 176 342 557 190 66 
161 7 11 264 292 26 617 579 398 
162 7 109 325 131 306 582 363 317 
163 6 61 406 375 304 514 508 
164 7 564 74 246 98 32 303 473 
165 7 77 359 392 645 222 334 373 
166 6 536 454 287 6 632 584 
167 4 477 299 438 52 
168 5 198 276 414 154 307 
169 7 510 446 92 52 181 315 100 
170 6 189 14 547 202 190 623 
171 7 188 80 572 53 301 305 551 
172 4 616 430 326 48 
173 6 479 324 219 68 206 105 
174 6 241 497 230 148 60 357 
175 7 369 520 384 575 278 65 525 
176 6 342 66 623 160 96 443 
177 7 120 386 37 127 253 391 75 
178 6 475 390 470 82 47 184 
179 7 591 16 372 355 310 300 398 
180 7 34 99 504 240 590 413 380 
181 6 446 169 315 364 92 211 
182 7 362 146 28 311 507 442 499 
183 7 304 552 263 425 61 529 633 
184 7 82 436 470 47 656 227 350 
185 6 542 284 599 140 543 448 
186 7 107 196 376 261 316 347 491 
187 7 19 136 31 652 397 242 545 
188 7 171 53 80 301 572 346 551 
189 5 14 547 170 629 202 
190 6 634 555 160 94 170 623 
191 5 337 212 544 83 265 
192 7 467 452 361 128 155 281 397 
193 7 261 509 124 81 196 372 16 
194 7 450 561 70 56 334 9 460 
195 7 215 429 29 17 462 381 403 
196 7 186 107 261 193 124 316 354 
197 6 588 62 648 320 260 270 
198 5 168 276 414 154 307 
199 7 445 203 108 611 291 321 208 
200 7 348 46 344 91 110 402 503 
201 7 613 323 569 310 213 123 16 
202 5 244 14 189 170 547 
203 7 611 445 199 597 596 224 21 
204 7 100 562 589 314 506 315 510 
205 5 64 444 400 40 601 
206 7 105 130 368 526 219 343 459 
207 6 417 274 619 106 221 139 
208 6 291 108 321 199 445 630 
209 7 119 416 512 79 72 593 218 
210 7 49 501 288 55 118 420 71 
211 7 364 4 8 271 17 358 149 
212 4 544 265 83 191 
213 7 123 323 201 569 613 294 468 
214 7 427 53 80 188 171 10 651 
215 6 195 29 429 17 403 381 
216 7 42 455 484 480 322 421 302 
217 6 489 521 476 568 79 71 
218 7 119 72 416 50 431 209 476 
219 7 173 479 105 206 324 368 130 
220 7 647 449 565 139 285 567 395 
221 7 417 270 62 259 475 207 13 
222 7 392 359 373 399 138 77 165 
223 6 103 638 514 15 598 286 
224 7 555 634 94 445 611 203 199 
225 7 440 297 293 525 3 143 278 
226 4 269 232 113 650 
227 6 350 260 47 656 648 588 
228 6 327 421 39 586 117 455 
229 7 488 22 63 424 312 57 146 
230 7 474 174 60 241 357 497 153 
231 4 395 567 619 139 
232 7 650 113 269 358 505 84 226 
233 7 329 95 311 385 480 370 484 
234 7 538 615 354 456 109 306 325 
235 7 256 549 116 571 67 87 55 
236 4 378 556 612 45 
237 7 624 518 531 69 578 290 128 
238 5 592 407 491 85 583 
239 7 157 389 487 419 539 606 247 
240 7 380 657 34 141 504 394 180 
241 7 497 174 148 60 230 272 366 
242 6 275 545 308 621 187 136 
243 5 453 89 375 406 596 
244 6 202 653 14 654 189 629 
245 7 96 252 111 132 605 66 342 
246 7 74 336 126 164 365 433 267 
247 7 426 539 389 239 157 606 487 
248 7 496 622 345 129 18 471 387 
249 6 493 568 383 71 134 534 
250 7 435 23 441 517 387 401 622 
251 7 527 150 360 27 610 632 471 
252 7 111 132 245 96 605 469 43 
253 7 391 37 177 120 458 352 36 
254 7 495 101 131 412 363 317 530 
255 7 508 522 644 304 183 597 61 
256 7 235 116 549 55 420 268 571 
257 5 609 59 33 58 512 
258 7 341 404 127 386 117 41 75 
259 7 417 87 571 549 221 106 13 
260 6 588 648 197 227 320 47 
261 7 193 124 196 509 354 186 107 
262 7 283 637 88 448 543 142 393 
263 7 552 183 425 633 304 529 51 
264 7 617 26 398 161 459 355 206 
265 3 212 544 83 
266 6 655 377 340 110 91 344 
267 6 557 336 74 433 246 365 
268 7 558 600 106 2 501 104 256 
269 4 226 113 232 505 
270 7 62 221 197 475 648 417 588 
271 7 305 462 572 4 211 17 171 
272 7 633 60 51 148 366 321 497 
273 5 594 151 626 550 83 
274 7 139 619 449 647 207 567 395 
275 6 308 242 585 397 452 136 
276 6 168 198 414 154 307 579 
277 7 614 335 486 608 138 222 399 
278 7 525 143 175 293 575 520 384 
279 7 25 461 86 353 396 505 113 
280 6 337 481 595 331 83 191 
281 7 159 54 397 361 136 156 452 
282 7 374 98 423 537 564 447 473 
283 7 262 637 448 543 142 88 140 
284 6 542 185 599 140 543 437 
285 6 565 7 220 339 437 647 
286 7 422 638 15 333 514 97 529 
287 5 536 166 6 454 36 
288 7 49 71 489 118 210 383 134 
289 5 583 356 407 85 347 
290 6 69 518 237 624 531 155 
291 7 108 208 321 199 445 148 203 
292 7 579 161 324 11 479 264 206 
293 7 3 525 440 278 225 575 297 
294 7 569 11 213 323 123 201 26 
295 7 44 306 412 162 564 539 98 
296 6 382 102 349 76 78 353 
297 7 440 225 293 3 525 278 143 
298 7 40 603 73 513 400 554 371 
299 5 438 167 135 477 30 
300 7 591 447 179 372 537 112 355 
301 7 551 572 188 171 346 53 80 
302 7 507 28 57 362 182 216 9 
303 7 473 32 122 343 526 368 423 
304 7 183 61 552 425 263 163 529 
305 7 462 271 572 80 171 301 188 
306 7 109 162 295 44 325 234 131 
307 5 414 198 154 168 276 
308 6 275 585 242 155 452 397 
309 7 43 469 132 548 587 645 252 
310 7 16 201 613 179 323 569 372 
311 7 95 499 329 182 233 362 442 
312 7 541 627 22 67 442 229 488 
313 3 396 505 86 
314 7 506 45 405 612 378 562 204 
315 4 181 169 204 100 
316 7 418 439 81 107 319 186 503 
317 7 363 582 131 152 530 162 325 
318 3 636 485 38 
319 7 439 418 402 81 316 46 503 
320 5 197 260 588 648 62 
321 7 108 291 148 272 208 199 497 
322 7 586 421 411 484 480 42 216 
323 7 569 201 310 613 213 123 294 
324 6 479 173 219 292 206 105 
325 7 109 162 582 465 456 615 317 
326 7 48 430 172 616 104 145 649 
327 6 228 586 421 39 117 322 
328 2 330 20 
329 7 233 95 311 370 499 385 182 
330 3 328 20 580 
331 7 595 357 481 153 361 192 467 
332 7 553 158 490 652 602 144 546 
333 7 529 425 552 263 51 183 286 
334 7 645 165 77 561 419 254 359 
335 7 277 434 614 640 63 486 114 
336 7 433 126 365 246 557 267 74 
337 6 280 191 544 83 212 595 
338 7 134 534 383 493 424 420 71 
339 6 647 565 285 7 220 449 
340 6 377 266 655 110 503 91 
341 7 404 258 127 177 386 117 36 
342 7 66 176 623 160 96 170 245 
343 7 526 368 122 130 112 105 473 
344 7 91 110 348 200 46 377 503 
345 7 496 248 622 129 387 656 18 
346 6 551 511 301 188 53 171 
347 7 491 85 592 376 407 583 289 
348 7 200 91 110 46 344 503 402 
349 7 102 382 78 296 115 143 76 
350 5 227 656 387 260 47 
351 7 65 5 384 520 575 369 577 
352 7 458 573 37 394 607 141 391 
353 7 279 25 76 86 461 396 505 
354 6 124 538 234 261 193 615 
355 7 398 617 459 26 179 264 591 
356 5 289 583 581 407 85 
357 7 153 331 474 595 361 230 467 
358 7 149 8 650 364 211 232 181 
359 7 392 77 165 222 373 645 399 
360 6 27 610 251 604 527 150 
361 7 153 467 281 159 192 452 357 
362 7 182 146 28 507 442 22 311 
363 7 317 131 582 162 530 254 152 
364 7 211 8 358 149 4 181 271 
365 7 126 433 336 557 94 246 457 
366 7 51 60 633 272 263 552 333 
367 7 524 142 88 390 379 637 393 
368 7 526 343 130 105 206 122 112 
369 6 175 384 520 65 575 351 
370 5 329 95 320 233 311 
371 2 603 73 
372 7 16 179 509 591 310 300 193 
373 7 399 138 222 392 359 469 43 
374 7 282 537 447 423 98 112 300 
375 7 508 644 406 163 61 522 243 
376 7 347 491 592 85 107 238 186 
377 7 340 266 655 110 91 503 344 
378 5 612 45 236 556 405 
379 7 24 436 524 393 88 367 184 
380 7 657 240 523 75 504 394 141 
381 4 560 631 10 215 
382 6 102 349 78 296 115 76 
383 7 134 493 249 71 534 338 568 
384 7 520 575 369 351 65 175 5 
385 6 93 519 574 233 516 329 
386 7 127 75 120 177 523 258 341 
387 7 441 250 350 23 656 622 435 
388 2 30 563 
389 7 239 157 539 247 426 487 606 
390 7 178 524 82 367 436 470 184 
391 7 253 37 177 120 458 352 394 
392 7 222 359 373 77 165 399 138 
393 7 88 379 24 262 367 142 637 
394 7 141 37 120 458 352 240 380 
395 4 231 567 619 139 
396 5 505 86 461 113 313 
397 7 136 281 452 159 54 275 187 
398 7 459 355 617 264 26 130 112 
399 7 138 373 222 392 359 469 277 
400 6 73 298 601 603 40 205 
401 7 435 23 516 441 519 574 250 
402 7 319 46 200 348 439 503 418 
403 5 432 643 408 29 215 
404 7 341 258 177 127 386 36 327 
405 5 612 45 314 378 506 
406 3 163 375 61 
407 6 583 85 289 592 238 491 
408 6 90 643 432 403 410 620 
409 7 625 410 12 620 643 515 641 
410 7 625 409 643 620 90 408 12 
411 6 322 93 586 574 421 6 
412 7 495 101 131 44 254 539 295 
413 7 99 125 581 180 504 356 492 
414 5 168 198 276 307 154 
415 6 618 135 485 30 438 38 
416 7 79 119 476 209 218 521 431 
417 7 221 259 207 270 106 13 62 
418 7 439 316 81 319 503 107 46 
419 7 487 239 157 389 587 606 101 
420 7 55 116 49 210 256 541 288 
421 6 586 228 327 322 42 39 
422 7 286 15 97 638 333 144 529 
423 7 537 473 122 282 374 112 343 
424 7 63 114 229 338 488 534 22 
425 7 529 552 183 263 304 333 61 
426 7 247 389 157 606 239 539 487 
427 7 214 53 80 188 171 10 301 
428 7 121 498 535 500 640 434 335 
429 7 195 29 17 215 462 403 432 
430 4 172 616 326 48 
431 6 521 476 416 218 119 217 
432 5 403 643 408 29 410 
433 7 365 126 336 557 267 94 246 
434 7 640 114 335 535 121 428 63 
435 7 23 401 250 441 517 516 519 
436 7 184 82 470 379 524 390 47 
437 5 7 285 565 284 542 
438 5 299 135 167 618 477 
439 7 418 316 81 319 503 468 402 
440 7 297 225 293 3 525 278 143 
441 6 23 435 250 401 387 519 
442 7 627 67 499 541 146 312 182 
443 6 548 606 426 587 66 132 
444 6 64 205 556 431 40 218 
445 7 611 203 199 224 108 597 291 
446 7 92 4 169 52 181 511 510 
447 7 300 374 537 591 538 423 112 
448 7 543 283 637 140 262 599 185 
449 7 139 647 220 274 619 567 395 
450 7 194 561 70 9 334 56 41 
451 7 635 56 460 41 530 117 258 
452 7 467 192 397 308 281 155 275 
453 7 89 596 21 243 463 482 597 
454 6 166 536 632 287 584 6 
455 7 42 216 39 421 228 70 322 
456 6 465 576 615 325 464 109 
457 7 482 21 483 453 89 126 365 
458 7 352 573 37 394 141 607 391 
459 7 398 130 355 264 617 368 526 
460 7 56 530 635 451 317 363 152 
461 7 86 279 396 505 113 25 353 
462 7 305 271 572 80 17 171 195 
463 4 243 453 89 68 
464 6 576 125 137 456 540 465 
465 6 456 576 615 325 464 152 
466 4 535 563 121 498 
467 7 192 452 361 281 397 159 155 
468 7 613 81 201 509 123 310 16 
469 7 43 309 605 373 132 111 399 
470 7 82 184 47 436 178 227 475 
471 7 18 129 622 517 248 496 527 
472 7 483 32 68 219 303 173 482 
473 7 122 303 423 343 112 526 368 
474 7 153 230 357 361 156 159 281 
475 7 178 270 62 221 648 47 470 
476 6 521 431 416 217 79 119 
477 5 167 52 511 299 438 
478 7 516 6 632 150 401 517 574 
479 6 324 173 219 206 105 292 
480 7 484 322 216 42 233 385 411 
481 7 595 331 280 128 357 578 192 
482 7 457 21 483 453 89 68 472 
483 7 472 482 32 68 457 21 246 
484 7 480 216 322 42 233 455 421 
485 4 318 636 38 415 
486 7 614 277 608 335 57 63 488 
487 7 419 239 157 389 606 101 587 
488 7 229 22 63 57 28 146 424 
489 6 118 71 288 49 217 568 
490 7 332 602 158 546 553 31 652 
491 7 347 592 85 376 407 238 583 
492 6 528 581 356 125 413 289 
493 6 249 383 134 568 71 534 
494 7 641 12 84 620 515 25 625 
495 7 101 412 539 239 487 389 419 
496 7 248 345 622 129 18 387 471 
497 7 241 148 60 174 272 230 321 
498 7 121 428 500 535 466 138 399 
499 7 311 95 442 67 182 329 627 
500 7 498 121 428 535 466 38 563 
501 7 210 55 104 268 628 116 49 
502 7 15 103 638 223 286 602 158 
503 7 46 110 348 91 340 377 316 
504 7 657 240 380 180 35 540 34 
505 5 396 86 113 461 313 
506 6 314 45 612 405 378 204 
507 7 302 28 57 362 182 146 484 
508 7 644 522 375 61 255 597 596 
509 7 193 16 372 124 261 468 613 
510 6 169 52 446 92 167 477 
511 6 551 52 346 301 92 477 
512 7 72 33 50 209 609 119 218 
513 7 554 40 298 58 642 603 50 
514 7 163 223 61 529 425 638 304 
515 7 620 641 12 90 625 409 410 
516 7 574 401 93 478 435 23 6 
517 7 250 150 435 23 527 478 471 
518 7 237 624 69 531 290 128 578 
519 5 401 441 385 23 435 
520 7 384 575 369 175 351 65 5 
521 5 476 431 217 416 79 
522 7 644 508 597 375 596 255 61 
523 7 75 657 127 380 386 35 120 
524 7 367 390 142 379 88 436 82 
525 7 278 293 575 3 520 384 143 
526 7 368 343 130 105 122 112 206 
527 7 150 251 517 632 478 360 27 
528 6 492 125 581 464 413 356 
529 7 425 333 552 263 183 304 51 
530 7 460 56 635 451 317 363 254 
531 7 624 237 518 69 578 290 128 
532 4 593 628 649 145 
533 5 621 147 545 566 242 
534 7 134 338 383 493 249 424 568 
535 5 466 121 428 498 640 
536 5 166 287 6 454 632 
537 7 423 374 112 447 282 122 300 
538 7 234 447 354 374 300 124 537 
539 7 247 389 239 157 426 101 495 
540 7 137 35 504 464 125 152 657 
541 7 312 627 67 442 22 420 116 
542 6 284 185 599 140 543 437 
543 7 448 140 637 283 185 599 262 
544 5 212 83 265 191 151 
545 7 621 242 147 533 187 275 31 
546 7 31 490 553 652 332 19 187 
547 4 14 189 629 170 
548 7 587 606 443 157 419 309 487 
549 7 235 571 87 256 259 106 558 
550 7 133 151 626 273 594 83 280 
551 7 301 511 346 572 188 171 4 
552 7 263 183 425 304 529 633 51 
553 7 652 332 546 490 19 31 158 
554 7 513 40 58 50 298 33 642 
555 7 634 224 94 190 445 611 203 
556 5 378 236 45 612 444 
557 6 433 267 336 365 126 160 
558 7 268 106 2 600 549 259 104 
559 5 630 241 148 208 191 
560 4 631 381 639 10 
561 7 194 450 70 334 56 254 460 
562 6 100 204 589 314 510 506 
563 3 388 30 466 
564 7 98 164 282 74 295 44 423 
565 5 285 7 220 647 339 
566 4 533 621 545 147 
567 4 395 231 619 139 
568 5 249 493 217 71 383 
569 7 323 201 310 613 213 123 294 
570 5 646 430 48 145 172 
571 7 87 549 259 235 13 256 499 
572 7 301 171 305 188 271 80 551 
573 7 607 352 458 141 394 37 34 
574 7 93 516 401 411 385 478 519 
575 7 520 384 351 369 175 65 525 
576 6 456 465 464 615 325 152 
577 7 5 351 65 384 520 575 369 
578 7 624 237 531 518 128 481 133 
579 7 292 161 324 276 11 479 168 
580 5 20 330 328 133 550 
581 7 413 356 492 99 125 528 289 
582 7 317 363 325 131 162 152 109 
583 5 407 289 85 356 592 
584 5 454 166 536 604 36 
585 5 308 155 275 452 242 
586 6 421 327 322 228 411 42 
587 7 548 606 419 487 157 645 239 
588 6 648 260 197 62 320 47 
589 3 562 100 204 
590 5 34 180 141 240 607 
591 7 300 179 355 372 447 398 16 
592 7 491 238 85 407 347 583 376 
593 6 532 628 209 649 145 79 
594 4 273 626 151 83 
595 7 331 481 357 280 128 192 153 
596 7 597 522 89 644 508 453 203 
597 7 596 522 644 508 203 255 89 
598 2 103 223 
599 7 185 542 284 140 543 448 637 
600 7 2 558 172 616 268 326 104 
601 2 400 73 
602 7 158 490 332 553 546 144 652 
603 6 73 298 371 400 40 513 
604 5 610 27 360 584 454 
605 7 111 252 469 132 245 43 96 
606 7 157 548 587 239 389 487 426 
607 7 573 352 458 141 394 34 590 
608 7 486 277 614 222 392 138 359 
609 5 257 512 59 33 72 
610 6 27 360 604 251 527 632 
611 7 203 445 199 224 597 596 21 
612 7 45 378 405 314 506 236 556 
613 7 201 310 468 323 569 16 123 
614 7 486 277 608 335 63 57 488 
615 6 456 465 576 325 234 109 
616 4 172 430 326 48 
617 7 26 264 355 398 459 161 11 
618 4 415 135 438 485 
619 6 139 274 567 449 395 231 
620 7 515 12 641 625 409 410 90 
621 7 545 147 242 533 187 275 31 
622 7 248 496 345 129 18 387 471 
623 6 160 176 342 66 170 190 
624 7 237 518 531 69 578 290 128 
625 7 409 410 12 620 515 643 641 
626 4 273 594 151 550 
627 7 442 67 312 541 22 146 362 
628 6 649 145 593 532 104 501 
629 4 547 14 189 653 
630 5 559 208 148 241 291 
631 4 560 639 381 10 
632 6 454 166 6 478 536 150 
633 7 263 51 272 552 183 366 60 
634 7 555 224 94 190 445 611 208 
635 7 451 56 460 530 41 117 258 
636 3 318 485 38 
637 7 262 142 283 448 543 88 140 
638 7 15 286 223 422 103 514 502 
639 4 631 651 10 560 
640 7 434 114 335 535 121 428 63 
641 7 12 515 620 494 625 409 90 
642 6 513 554 58 298 603 59 
643 7 408 410 432 90 403 625 409 
644 7 508 522 375 597 596 255 61 
645 7 165 334 587 77 359 419 309 
646 5 570 48 430 145 326 
647 6 449 220 139 274 565 339 
648 6 588 260 197 62 47 270 
649 7 145 628 104 48 326 532 593 
650 7 232 149 358 84 113 8 269 
651 4 10 639 631 560 
652 7 553 19 332 31 187 546 54 
653 5 654 244 629 14 202 
654 5 653 244 629 14 202 
655 6 266 377 340 110 91 238 
656 7 350 227 184 387 345 47 470 
657 7 380 523 240 504 75 35 127 
DEPOT_SECTION
   1
   -1
EOF
