NAME :  X-n749-kX-w149-c9.cctp
COMMENT : 	Adapted by Maziero, Usberti and Cavellucci from the Uchoa, Pecin, Pessoa, Poggi, Subramanian, and Vidal (2013)
TYPE :  CCTP
DIMENSION :    709
EDGE_WEIGHT_TYPE : 	EUC_2D	
CAPACITY : 	396
VERTICES_WITHIN_COVERAGE :  9
VERTICES_WITH_DEMAND : 	149
NODE_COORD_SECTION
1 643 512
2 707 407
3 394 355
4 140 470
5 364 215
6 493 857
7 117 466
8 462 38
9 551 479
10 545 460
11 423 274
12 440 602
13 525 357
14 574 994
15 387 377
16 583 424
17 16 481
18 615 427
19 511 799
20 110 518
21 223 506
22 163 520
23 834 419
24 442 482
25 42 547
26 478 421
27 372 108
28 320 252
29 731 372
30 341 234
31 787 331
32 433 254
33 555 397
34 640 350
35 565 185
36 320 196
37 64 374
38 283 411
39 46 582
40 328 453
41 779 448
42 602 152
43 466 934
44 280 317
45 403 425
46 482 80
47 504 575
48 649 348
49 388 331
50 518 731
51 550 364
52 745 421
53 384 205
54 236 226
55 602 498
56 670 80
57 380 177
58 135 333
59 594 841
60 189 250
61 682 470
62 515 19
63 311 39
64 398 363
65 217 615
66 530 879
67 410 679
68 382 240
69 146 456
70 543 339
71 316 436
72 397 382
73 507 783
74 436 314
75 88 469
76 127 428
77 158 431
78 639 444
79 722 341
80 121 445
81 470 876
82 452 69
83 82 446
84 353 318
85 220 551
86 534 495
87 502 5
88 411 463
89 338 218
90 282 593
91 457 514
92 321 215
93 363 948
94 524 256
95 642 783
96 722 576
97 265 503
98 113 541
99 638 920
100 523 805
101 722 444
102 364 408
103 310 484
104 519 392
105 240 338
106 662 429
107 603 451
108 336 290
109 759 337
110 64 496
111 490 148
112 297 386
113 167 488
114 402 351
115 424 152
116 472 108
117 580 538
118 157 385
119 695 410
120 104 462
121 404 98
122 114 450
123 456 111
124 756 305
125 446 59
126 711 772
127 86 489
128 557 516
129 440 70
130 44 553
131 618 456
132 404 261
133 460 908
134 542 837
135 379 268
136 633 383
137 331 210
138 706 444
139 570 378
140 218 347
141 47 445
142 514 367
143 175 505
144 198 390
145 586 552
146 386 95
147 855 567
148 734 396
149 301 140
150 93 530
151 791 501
152 417 932
153 389 341
154 479 232
155 527 829
156 378 185
157 447 23
158 665 479
159 306 896
160 527 14
161 517 904
162 441 419
163 325 83
164 766 356
165 337 208
166 62 529
167 523 506
168 470 121
169 510 286
170 620 439
171 79 545
172 426 246
173 335 881
174 772 362
175 486 62
176 156 404
177 418 385
178 393 293
179 511 494
180 650 348
181 830 577
182 271 262
183 411 558
184 691 255
185 646 356
186 696 414
187 728 486
188 445 131
189 123 427
190 832 697
191 373 318
192 502 188
193 202 424
194 424 669
195 37 391
196 527 551
197 467 76
198 47 399
199 519 673
200 177 563
201 694 337
202 123 536
203 451 780
204 379 160
205 343 284
206 661 442
207 513 508
208 545 767
209 109 240
210 512 821
211 398 332
212 178 479
213 604 453
214 446 505
215 662 382
216 98 478
217 619 86
218 516 265
219 138 412
220 440 331
221 313 75
222 378 124
223 345 109
224 140 505
225 369 214
226 411 92
227 471 938
228 295 494
229 406 535
230 674 546
231 507 9
232 337 217
233 557 465
234 694 200
235 143 453
236 488 429
237 68 566
238 594 723
239 397 360
240 671 843
241 801 435
242 142 482
243 6 644
244 515 950
245 119 570
246 367 377
247 147 488
248 414 917
249 339 119
250 108 87
251 96 431
252 666 440
253 605 490
254 575 507
255 532 463
256 691 613
257 115 540
258 202 497
259 48 487
260 452 152
261 518 830
262 45 426
263 5 557
264 98 491
265 468 325
266 452 156
267 65 509
268 493 503
269 128 283
270 542 852
271 722 697
272 327 183
273 689 497
274 643 790
275 87 460
276 518 247
277 595 425
278 345 290
279 69 439
280 358 159
281 121 388
282 719 414
283 577 932
284 487 810
285 456 549
286 419 419
287 220 574
288 396 468
289 527 214
290 458 24
291 527 678
292 91 444
293 634 503
294 355 117
295 660 435
296 149 516
297 121 467
298 365 233
299 564 673
300 643 335
301 948 666
302 594 567
303 368 64
304 448 908
305 470 869
306 305 267
307 354 303
308 469 868
309 582 349
310 727 340
311 735 436
312 460 476
313 715 554
314 461 906
315 179 434
316 498 36
317 304 429
318 212 389
319 479 327
320 188 416
321 604 443
322 558 409
323 489 275
324 371 88
325 513 866
326 77 520
327 388 135
328 322 335
329 277 459
330 412 274
331 629 454
332 187 463
333 403 56
334 537 411
335 693 319
336 603 794
337 371 214
338 506 171
339 98 529
340 476 2
341 404 102
342 415 273
343 646 464
344 578 488
345 404 330
346 80 541
347 512 538
348 13 417
349 109 606
350 482 173
351 654 46
352 14 285
353 501 824
354 95 565
355 526 585
356 664 331
357 56 415
358 560 452
359 398 275
360 388 344
361 350 350
362 148 546
363 419 366
364 37 552
365 510 758
366 154 358
367 588 23
368 317 496
369 335 338
370 610 553
371 101 531
372 597 86
373 123 393
374 682 434
375 779 374
376 118 357
377 478 137
378 458 252
379 496 396
380 235 313
381 725 432
382 492 69
383 443 58
384 596 262
385 340 304
386 361 281
387 358 258
388 289 187
389 313 208
390 497 189
391 297 425
392 443 516
393 543 458
394 797 465
395 513 45
396 416 336
397 564 201
398 435 16
399 357 400
400 537 509
401 364 62
402 709 500
403 539 440
404 179 201
405 492 865
406 429 5
407 126 408
408 667 984
409 265 491
410 541 338
411 399 351
412 100 480
413 327 163
414 678 434
415 173 106
416 438 63
417 327 276
418 98 557
419 135 440
420 386 214
421 79 687
422 516 484
423 773 468
424 244 603
425 45 401
426 87 537
427 261 108
428 390 262
429 384 935
430 448 83
431 489 973
432 657 919
433 338 317
434 114 522
435 334 393
436 293 326
437 648 460
438 420 336
439 393 348
440 334 288
441 672 434
442 177 517
443 643 781
444 514 33
445 662 863
446 254 350
447 402 378
448 332 925
449 710 395
450 388 325
451 256 400
452 207 297
453 532 516
454 800 371
455 64 440
456 574 924
457 398 75
458 509 86
459 455 472
460 31 603
461 120 491
462 141 450
463 468 101
464 268 677
465 85 472
466 387 214
467 426 270
468 381 324
469 178 485
470 457 865
471 562 354
472 567 453
473 640 442
474 413 912
475 403 427
476 523 918
477 348 343
478 389 370
479 453 486
480 573 379
481 191 580
482 666 551
483 423 683
484 319 275
485 612 413
486 459 44
487 683 490
488 786 466
489 428 878
490 596 138
491 473 859
492 592 373
493 381 210
494 127 314
495 716 359
496 384 243
497 93 482
498 760 471
499 194 604
500 377 303
501 768 315
502 421 623
503 409 79
504 55 365
505 508 407
506 399 120
507 729 403
508 197 490
509 492 445
510 338 393
511 146 443
512 241 369
513 641 437
514 716 603
515 598 569
516 132 542
517 384 384
518 617 237
519 609 513
520 449 444
521 808 393
522 626 449
523 773 960
524 670 376
525 777 492
526 146 551
527 828 575
528 360 508
529 94 660
530 473 382
531 434 322
532 170 460
533 354 262
534 44 445
535 301 175
536 717 388
537 123 484
538 843 415
539 69 466
540 796 452
541 413 237
542 351 384
543 721 522
544 821 294
545 185 440
546 396 325
547 272 191
548 419 258
549 391 760
550 515 18
551 637 988
552 876 412
553 327 110
554 90 512
555 630 373
556 680 354
557 224 510
558 564 151
559 528 173
560 474 967
561 414 347
562 135 481
563 455 897
564 453 24
565 332 558
566 516 867
567 562 814
568 418 933
569 511 480
570 551 776
571 725 450
572 469 558
573 101 446
574 43 517
575 517 138
576 123 383
577 567 415
578 399 115
579 99 504
580 209 156
581 724 617
582 570 935
583 664 488
584 479 56
585 432 59
586 755 709
587 649 209
588 387 178
589 80 463
590 360 169
591 541 838
592 298 260
593 287 721
594 382 315
595 659 867
596 322 258
597 205 652
598 616 354
599 218 21
600 529 714
601 828 384
602 630 396
603 374 408
604 558 250
605 331 335
606 477 75
607 43 364
608 404 366
609 590 632
610 526 74
611 353 335
612 571 270
613 83 360
614 459 934
615 196 555
616 202 337
617 200 385
618 123 437
619 682 409
620 409 376
621 476 39
622 461 174
623 531 448
624 467 127
625 566 402
626 549 831
627 379 273
628 133 461
629 469 68
630 302 430
631 66 510
632 517 292
633 380 411
634 89 524
635 544 311
636 429 219
637 539 887
638 498 861
639 451 15
640 445 659
641 400 240
642 298 186
643 250 655
644 534 558
645 456 479
646 506 804
647 148 404
648 308 962
649 296 419
650 368 320
651 466 505
652 388 190
653 577 164
654 417 375
655 535 830
656 784 347
657 435 53
658 393 173
659 520 751
660 644 335
661 683 655
662 111 557
663 453 44
664 215 464
665 416 198
666 491 848
667 261 548
668 334 468
669 558 308
670 180 394
671 535 942
672 446 325
673 624 371
674 271 71
675 364 389
676 468 103
677 217 249
678 550 410
679 339 322
680 532 826
681 96 395
682 543 380
683 30 452
684 60 500
685 357 65
686 358 152
687 577 491
688 718 433
689 232 501
690 346 235
691 358 411
692 459 113
693 49 567
694 436 854
695 136 439
696 765 305
697 529 87
698 130 452
699 490 841
700 592 865
701 283 390
702 357 323
703 323 281
704 533 53
705 746 699
706 358 957
707 400 325
708 150 462
709 395 247
DEMAND_SECTION
2 86
3 42
4 29
5 22
6 21
7 61
8 22
9 12
10 72
11 71
12 28
13 16
14 14
15 4
16 74
17 64
18 40
19 38
20 64
21 46
22 65
23 82
24 99
25 65
26 53
27 1
28 13
29 29
30 68
31 64
32 37
33 52
34 47
35 7
36 86
37 88
38 9
39 36
40 80
41 91
42 75
43 42
44 75
45 94
46 23
47 48
48 33
49 22
50 63
51 80
52 6
53 21
54 39
55 61
56 55
57 15
58 56
59 35
60 86
61 93
62 32
63 5
64 15
65 14
66 71
67 10
68 57
69 39
70 70
71 19
72 40
73 90
74 42
75 48
76 43
77 35
78 68
79 9
80 63
81 92
82 76
83 79
84 100
85 63
86 37
87 94
88 76
89 93
90 99
91 73
92 68
93 53
94 33
95 59
96 79
97 45
98 10
99 91
100 20
101 39
102 6
103 100
104 29
105 26
106 24
107 29
108 9
109 5
110 52
111 79
112 92
113 89
114 30
115 76
116 25
117 38
118 62
119 71
120 90
121 15
122 35
123 57
124 38
125 74
126 75
127 17
128 55
129 62
130 18
131 89
132 52
133 55
134 20
135 70
136 76
137 13
138 77
139 26
140 52
141 69
142 77
143 48
144 48
145 29
146 80
147 12
148 59
149 11
150 18
COVERAGE_SECTION
2 9 119 449 186 282 536 507 619 688 148 
3 9 239 411 439 64 114 360 153 608 478 
4 9 628 242 562 708 69 235 247 297 462 
5 9 225 337 298 493 53 420 466 89 232 
6 9 638 405 666 699 491 325 566 305 308 
7 9 297 120 122 628 537 698 80 216 412 
8 9 486 663 621 290 564 157 584 639 125 
9 9 233 10 393 86 255 344 358 687 472 
10 9 393 233 255 358 623 9 403 472 86 
11 9 467 342 330 548 32 132 359 172 428 
12 9 502 183 572 285 640 47 194 229 67 
13 9 142 70 410 51 682 104 471 379 33 
14 9 582 283 551 671 456 244 431 476 408 
15 9 478 517 72 447 64 239 246 608 620 
16 9 277 577 321 625 322 485 18 472 107 
17 9 683 259 574 534 141 684 110 539 267 
18 9 170 485 321 277 522 107 213 513 78 
19 9 646 100 73 210 284 353 261 155 680 
20 9 434 339 371 579 150 554 202 634 98 
21 9 557 689 258 508 97 664 85 409 442 
22 9 442 296 143 224 362 113 526 247 469 
23 9 538 601 241 521 552 540 394 454 41 
24 9 479 645 459 312 214 651 392 91 88 
25 9 130 364 693 166 574 237 39 171 263 
26 8 236 509 379 505 162 520 530 104 
27 9 222 146 294 324 223 578 506 327 341 
28 9 596 306 484 592 417 30 703 690 533 
29 9 495 536 148 449 507 79 310 164 2 
30 9 690 89 232 298 137 165 28 92 387 
31 9 656 501 109 164 174 696 124 454 375 
32 9 172 548 467 11 378 342 541 330 132 
33 9 322 625 678 682 577 334 139 480 51 
34 9 185 48 180 300 660 598 555 673 356 
35 9 397 653 558 559 289 42 490 338 192 
36 9 389 272 137 92 165 642 232 89 535 
37 8 504 607 613 198 195 425 681 357 
38 9 649 391 701 630 317 112 451 71 329 
39 9 693 460 237 130 364 25 263 171 354 
40 9 668 71 317 630 103 391 368 649 329 
41 9 540 488 423 394 241 498 52 525 311 
42 9 490 653 558 35 397 372 217 587 559 
43 9 227 614 133 314 304 560 563 431 568 
44 9 436 446 105 380 328 605 182 306 703 
45 8 475 286 633 603 162 88 72 102 
46 9 606 382 197 175 629 584 463 676 458 
47 8 355 196 644 347 572 285 453 207 
48 9 180 34 185 300 660 356 555 556 598 
49 9 450 153 211 468 546 360 707 345 594 
50 9 600 659 365 208 73 291 570 199 19 
51 9 471 682 139 13 70 480 410 33 309 
52 9 311 381 507 148 282 688 101 571 2 
53 9 493 420 466 337 652 225 156 5 588 
54 9 677 182 547 60 404 388 592 642 580 
55 8 253 519 344 687 254 293 131 213 
56 7 351 217 372 490 42 367 234 
57 9 588 156 658 652 204 590 53 280 493 
58 8 494 376 366 269 576 118 281 613 
59 9 700 567 626 336 134 270 591 655 680 
60 9 677 404 452 54 269 380 209 182 616 
61 9 158 487 583 273 252 138 206 437 343 
62 9 550 160 231 444 87 316 395 704 340 
63 8 221 163 674 685 401 303 553 324 
64 9 239 608 3 478 411 114 439 447 620 
65 9 499 424 597 287 481 643 85 615 200 
66 9 637 566 325 161 270 638 405 476 591 
67 9 483 194 640 502 12 549 199 203 291 
68 9 496 709 298 641 428 420 466 135 337 
69 9 235 708 462 511 628 4 698 419 695 
70 9 410 471 13 51 635 669 142 309 682 
71 9 317 630 40 391 649 668 38 329 435 
72 9 447 15 517 620 478 608 64 177 654 
73 9 19 646 365 100 284 659 210 208 353 
74 8 531 672 220 438 396 265 345 707 
75 9 465 275 589 216 497 412 120 539 127 
76 9 189 618 419 695 80 219 407 511 698 
77 9 511 315 695 419 462 176 235 69 219 
78 9 473 513 331 522 437 170 343 206 295 
79 9 310 495 201 29 335 109 556 164 536 
80 9 618 122 698 419 695 76 189 573 628 
81 9 305 308 470 491 405 563 6 314 638 
82 9 125 129 383 416 430 197 629 585 657 
83 9 292 275 279 589 455 573 251 75 539 
84 9 702 307 433 650 679 611 385 191 477 
85 9 287 615 481 557 667 21 200 689 442 
86 9 400 167 422 453 9 179 207 569 128 
87 9 231 550 62 340 160 444 316 395 621 
88 9 288 24 475 45 520 286 459 479 645 
89 9 232 165 137 30 92 690 5 389 36 
90 9 424 667 565 287 65 643 85 464 499 
91 9 651 214 392 479 24 285 645 268 312 
92 9 137 389 232 89 165 36 30 690 272 
93 9 706 429 448 152 568 648 248 474 173 
94 8 276 218 169 604 632 323 289 612 
95 9 443 274 336 240 126 59 238 445 567 
96 7 313 514 581 256 543 230 482 
97 9 409 228 689 21 557 667 329 103 368 
98 9 257 202 371 662 339 434 516 418 20 
99 9 432 595 283 445 456 551 408 582 700 
100 9 19 646 210 680 155 261 73 655 353 
101 9 571 381 688 311 138 282 52 2 186 
102 9 691 603 399 633 675 542 510 246 517 
103 9 368 228 668 40 329 409 71 97 317 
104 9 505 379 142 334 682 13 33 678 51 
105 9 446 140 380 512 616 44 452 436 318 
106 9 295 441 252 206 414 374 513 473 78 
107 9 213 321 131 170 522 331 18 277 16 
108 9 440 205 278 385 703 417 307 484 386 
109 9 164 501 656 174 31 124 310 696 79 
110 9 684 267 631 259 127 326 539 574 554 
111 9 377 350 338 575 624 168 260 266 622 
112 9 701 38 649 435 391 510 451 317 630 
113 9 469 212 143 247 242 532 508 442 708 
114 9 411 3 439 239 64 561 608 153 360 
115 9 260 266 188 658 327 506 622 578 588 
116 9 676 463 168 692 123 624 46 377 197 
117 9 145 254 128 302 370 515 519 55 687 
118 9 176 647 670 366 219 576 373 281 407 
119 9 186 2 619 449 282 374 414 536 441 
120 9 7 122 573 75 216 275 297 412 465 
121 9 341 226 146 578 503 506 457 27 324 
122 9 80 573 7 120 618 698 297 628 419 
123 9 692 676 116 463 168 624 188 430 377 
124 9 696 501 109 31 310 79 656 164 174 
125 9 383 416 82 129 657 585 663 486 430 
126 9 443 95 274 271 586 240 705 445 595 
127 9 497 264 216 412 465 75 579 110 554 
128 9 254 400 453 86 117 687 167 344 9 
129 9 416 82 383 125 585 430 657 197 629 
130 9 25 364 693 237 39 166 171 574 346 
131 9 331 522 213 107 170 321 78 473 18 
132 9 428 330 359 548 342 709 641 11 467 
133 9 314 304 563 614 43 227 81 305 308 
134 9 591 626 655 270 680 155 261 567 210 
135 9 627 428 359 386 387 496 132 533 709 
136 9 555 602 673 215 185 34 598 485 48 
137 9 165 232 89 92 36 389 30 272 690 
138 9 101 688 571 381 374 311 414 186 282 
139 9 480 492 33 51 625 471 682 309 322 
140 9 616 105 512 446 380 318 617 144 452 
141 9 534 455 683 262 279 539 357 83 589 
142 9 13 104 682 379 51 70 410 505 530 
143 9 442 22 113 469 212 508 258 296 247 
144 9 617 318 670 320 193 118 176 140 315 
145 9 117 302 515 370 519 128 254 644 55 
146 9 324 121 27 341 457 578 226 503 506 
147 8 181 527 151 525 394 488 423 540 
148 9 507 536 282 29 449 52 2 381 311 
149 8 413 535 553 249 642 388 272 427 
150 9 339 634 371 426 346 554 326 20 171 
151 8 525 488 394 423 498 540 41 187 
152 9 568 248 474 429 304 614 43 133 314 
153 9 360 439 49 211 411 3 114 450 546 
154 7 378 276 323 390 192 218 32 
155 9 680 655 261 134 210 591 626 100 353 
156 9 57 588 652 658 53 590 204 493 225 
157 9 564 639 290 398 8 663 486 406 657 
158 6 583 61 487 343 437 273 
159 7 173 448 648 93 706 429 474 
160 9 62 550 231 444 87 395 316 704 340 
161 9 476 66 637 566 325 671 244 405 638 
162 7 286 520 26 45 475 177 236 
163 8 221 553 223 685 249 401 294 63 
164 9 174 109 656 375 31 454 29 501 310 
165 9 137 232 89 92 36 389 30 272 5 
166 9 326 631 267 346 574 171 426 25 634 
167 8 207 453 400 86 179 422 569 268 
168 9 624 116 692 123 377 676 463 188 111 
169 9 632 218 323 94 276 635 319 669 265 
170 9 522 18 321 131 331 78 473 107 213 
171 9 346 426 150 418 166 634 237 326 339 
172 9 32 548 541 467 132 636 641 11 342 
173 7 159 448 93 429 706 474 648 
174 9 164 375 656 109 454 31 29 501 521 
175 9 382 584 606 46 629 197 621 316 395 
176 9 647 118 219 670 77 407 320 373 76 
177 6 654 620 447 363 72 608 
178 9 359 500 627 594 330 135 342 428 191 
179 9 422 207 569 167 268 86 400 453 255 
180 9 48 185 34 660 300 356 556 555 524 
181 8 527 147 151 525 96 581 313 394 
182 9 592 306 28 54 484 596 703 44 677 
183 9 229 285 12 392 572 91 214 502 528 
184 8 234 587 335 518 356 124 201 696 
185 9 34 48 180 300 660 555 673 136 598 
186 9 119 2 619 282 374 449 414 688 441 
187 8 402 498 571 543 273 101 487 138 
188 9 260 624 123 692 266 168 115 377 116 
189 9 76 618 80 419 695 407 219 122 698 
190 9 586 705 271 181 301 527 147 581 126 
191 9 650 594 468 500 450 702 49 84 307 
192 7 390 338 350 559 289 111 622 
193 8 320 545 315 144 318 670 617 332 
194 9 483 67 640 502 12 199 549 291 183 
195 9 198 425 607 357 37 504 348 262 534 
196 8 644 347 47 355 453 400 167 207 
197 9 629 606 46 82 430 584 175 463 382 
198 9 425 195 357 262 37 504 607 348 455 
199 9 291 600 299 50 640 659 609 365 355 
200 9 615 481 526 362 287 499 22 85 442 
201 9 335 556 79 356 495 310 180 48 524 
202 9 257 98 516 434 20 371 662 339 362 
203 3 284 73 646 
204 8 57 658 588 280 590 686 156 327 
205 9 278 108 440 386 417 385 703 307 533 
206 9 252 295 106 441 414 473 513 78 374 
207 8 167 179 268 453 400 422 86 569 
208 9 570 659 365 73 100 50 19 567 646 
209 9 269 494 404 60 58 352 677 452 376 
210 9 261 353 155 646 100 680 19 655 284 
211 9 345 546 707 49 450 153 360 439 396 
212 9 469 113 332 532 508 143 258 247 708 
213 9 107 321 131 170 522 331 18 277 16 
214 9 392 91 479 651 24 645 312 459 285 
215 9 524 136 185 555 556 619 602 48 180 
216 9 412 497 75 264 465 127 120 275 7 
217 7 372 56 351 490 42 367 558 
218 8 94 276 169 632 323 604 154 289 
219 9 407 647 76 176 189 373 695 77 419 
220 7 672 531 74 438 396 265 561 
221 8 163 63 553 674 685 223 249 401 
222 8 327 27 506 578 294 146 341 686 
223 7 249 294 553 27 163 324 222 
224 9 296 247 242 461 562 22 537 434 113 
225 9 337 5 493 53 420 466 298 68 156 
226 9 121 341 503 457 146 578 506 129 333 
227 9 43 614 560 133 314 304 431 563 244 
228 9 103 368 409 97 329 668 40 71 689 
229 9 183 392 214 285 528 91 24 572 651 
230 6 482 313 273 543 96 487 
231 9 87 550 62 160 444 316 340 395 621 
232 9 89 137 165 92 30 690 389 5 36 
233 9 10 358 9 393 472 255 344 403 623 
234 8 587 184 518 42 384 490 335 56 
235 9 69 462 511 708 628 698 419 695 4 
236 9 26 509 505 379 520 623 104 162 530 
237 9 693 171 39 130 354 346 418 25 364 
238 7 299 208 600 570 336 50 443 
239 9 64 3 411 608 114 439 478 360 447 
240 9 445 595 274 95 443 59 432 126 700 
241 9 540 41 394 488 23 423 521 538 498 
242 9 562 247 4 537 708 224 628 461 69 
243 9 460 39 421 263 693 529 364 130 237 
244 9 671 476 431 560 161 227 43 582 614 
245 9 662 354 418 98 257 516 526 202 349 
246 9 675 542 517 15 478 399 72 102 361 
247 9 242 562 224 4 113 537 708 461 296 
248 9 474 152 568 304 429 489 563 133 314 
249 6 223 553 294 27 686 163 
250 9 415 580 599 404 209 427 674 60 54 
251 9 292 573 83 122 189 279 618 80 275 
252 9 206 295 441 106 414 374 513 473 78 
253 8 55 519 344 687 293 254 131 213 
254 9 687 344 128 55 117 253 519 9 400 
255 9 393 10 623 403 9 233 422 569 358 
256 7 514 581 661 96 313 482 230 
257 9 98 202 371 516 662 434 339 20 150 
258 9 508 21 557 469 143 212 689 442 664 
259 9 110 684 267 631 539 574 17 127 683 
260 9 266 188 622 115 624 377 168 350 111 
261 9 155 210 680 655 353 591 100 134 646 
262 9 357 141 534 455 425 198 279 683 348 
263 9 364 25 130 693 39 460 574 166 237 
264 9 497 412 127 216 579 461 554 465 75 
265 6 319 672 220 74 531 438 
266 9 260 622 188 115 377 624 350 111 168 
267 9 631 684 110 326 166 574 554 259 634 
268 8 179 207 651 569 167 422 91 347 
269 9 494 209 58 60 376 366 452 613 616 
270 9 591 134 626 655 155 680 66 566 325 
271 7 705 586 661 126 581 256 514 
272 8 36 413 137 165 535 389 642 92 
273 7 487 402 583 61 158 187 543 
274 9 95 443 336 240 126 59 445 595 238 
275 9 589 75 465 83 292 120 539 573 216 
276 8 94 218 289 169 323 604 154 632 
277 9 16 18 321 485 107 170 213 577 625 
278 9 205 108 440 385 307 386 417 703 433 
279 9 455 83 141 292 534 589 262 357 539 
280 5 686 590 204 57 413 
281 8 373 576 407 681 219 376 647 118 
282 9 2 507 381 688 449 148 186 119 536 
283 9 582 456 671 476 637 14 99 244 161 
284 6 353 646 19 210 699 73 
285 9 572 91 392 214 651 183 229 12 47 
286 7 45 475 162 177 520 633 72 
287 9 85 481 615 424 499 65 200 667 557 
288 9 88 475 45 24 286 528 520 459 633 
289 8 276 192 390 397 559 94 35 338 
290 9 564 157 639 8 486 663 621 398 340 
291 9 199 600 299 50 659 609 238 365 640 
292 9 83 573 251 275 120 589 279 122 75 
293 5 519 55 253 583 158 
294 6 223 249 27 222 553 324 
295 9 106 206 252 441 414 513 473 374 78 
296 9 224 22 143 247 442 362 516 113 202 
297 9 7 628 537 698 120 122 4 562 80 
298 9 5 68 225 690 337 496 30 387 420 
299 7 291 199 609 600 238 50 659 
300 9 660 48 34 180 185 356 598 555 673 
301 9 190 147 181 527 586 705 151 271 581 
302 9 515 145 370 117 519 644 128 254 609 
303 8 401 685 324 457 146 333 27 503 
304 9 133 314 563 614 43 248 474 489 227 
305 9 308 81 491 470 405 6 638 666 563 
306 9 592 484 596 28 703 417 182 440 108 
307 9 385 84 278 702 433 108 205 650 386 
308 9 305 81 491 470 405 6 638 666 563 
309 9 471 492 139 480 598 51 70 410 673 
310 9 79 495 29 109 201 335 164 124 501 
311 9 381 101 571 688 52 282 138 507 2 
312 9 645 459 479 24 651 214 520 91 268 
313 6 96 543 230 482 514 402 
314 9 133 563 304 43 614 81 227 305 308 
315 8 545 320 77 193 532 332 511 176 
316 9 444 395 621 62 550 231 584 175 87 
317 9 630 391 649 71 38 40 329 112 701 
318 9 617 144 670 512 193 320 140 451 616 
319 7 265 672 220 74 531 169 632 
320 9 193 315 670 545 144 617 77 176 318 
321 9 107 213 170 18 131 277 522 331 16 
322 9 678 577 625 33 334 16 139 682 480 
323 8 169 218 632 378 94 276 154 319 
324 8 146 27 303 401 685 457 223 294 
325 9 566 638 66 405 6 666 270 637 699 
326 9 634 554 631 267 166 150 426 346 339 
327 8 222 506 578 204 27 686 341 280 
328 9 605 369 679 433 477 436 611 361 84 
329 9 409 630 228 391 317 103 649 71 97 
330 9 342 11 359 132 467 548 428 178 32 
331 9 522 131 78 473 170 343 437 513 213 
332 8 532 212 545 469 664 508 315 113 
333 9 457 503 585 657 303 416 226 401 129 
334 9 678 322 33 104 403 505 577 625 682 
335 9 201 356 79 556 310 495 180 300 660 
336 9 274 95 443 567 59 570 208 626 238 
337 9 225 5 493 420 53 466 298 68 652 
338 9 192 390 559 350 111 575 377 622 289 
339 9 371 150 634 426 20 434 98 554 257 
340 9 87 290 639 231 564 157 621 8 316 
341 9 121 226 578 146 506 503 457 27 222 
342 9 330 11 467 132 548 359 32 428 172 
343 7 437 331 78 473 158 522 206 
344 9 687 254 55 253 9 233 128 472 358 
345 9 211 707 546 396 49 438 450 153 561 
346 9 171 426 150 634 326 166 339 371 418 
347 8 196 207 453 644 167 47 400 268 
348 9 262 195 425 198 683 534 357 141 455 
349 9 245 354 662 418 529 237 98 257 526 
350 9 622 390 338 192 111 266 377 260 559 
351 7 56 217 367 372 490 42 704 
352 9 607 504 37 613 209 195 269 494 198 
353 9 210 261 284 699 646 155 666 19 100 
354 9 418 662 245 171 237 346 426 98 257 
355 8 47 644 196 347 572 145 453 302 
356 9 660 300 180 48 556 34 185 201 335 
357 9 262 198 425 455 279 141 195 534 83 
358 9 472 233 10 393 403 9 623 255 16 
359 9 330 132 428 342 178 627 135 11 548 
360 9 153 439 3 49 411 114 211 239 450 
361 9 477 611 369 605 702 679 84 246 328 
362 9 526 516 202 22 296 200 257 98 245 
363 7 654 620 608 177 561 64 447 
364 9 25 130 693 39 263 166 237 574 171 
365 9 659 73 50 208 19 570 646 600 100 
366 9 118 58 376 576 670 281 176 647 373 
367 7 160 704 372 217 351 62 550 
368 9 103 228 668 40 528 97 409 329 71 
369 9 605 328 477 679 611 361 433 84 702 
370 8 515 302 145 117 519 293 55 482 
371 9 339 150 634 426 20 98 434 257 554 
372 7 217 490 367 42 697 351 610 
373 8 281 576 407 219 647 681 189 76 
374 9 414 441 252 106 206 295 186 619 138 
375 9 174 454 164 656 521 109 31 29 148 
376 8 576 58 281 613 366 373 494 681 
377 9 624 111 168 116 260 692 266 123 188 
378 7 32 154 172 467 323 548 11 
379 9 505 104 530 26 142 236 334 13 509 
380 9 105 452 140 616 446 44 512 436 182 
381 9 688 311 101 571 282 138 52 507 2 
382 9 175 46 606 584 629 458 197 395 316 
383 9 125 416 657 585 129 82 663 486 430 
384 8 612 518 604 669 397 635 94 587 
385 9 433 307 108 278 440 679 84 205 702 
386 9 205 278 533 627 135 307 387 108 500 
387 9 533 135 386 298 627 690 30 68 205 
388 9 642 535 547 36 389 272 92 413 137 
389 9 92 36 137 165 232 89 642 272 388 
390 7 192 338 350 559 289 622 111 
391 9 649 630 317 38 71 701 112 329 40 
392 9 214 91 651 479 24 285 645 229 312 
393 9 10 255 233 623 358 403 9 472 422 
394 9 488 540 423 41 241 525 151 498 23 
395 9 444 316 704 62 550 175 382 610 160 
396 9 438 561 345 211 707 114 411 531 546 
397 9 35 289 653 559 604 558 42 192 518 
398 9 406 157 639 564 290 663 8 486 657 
399 9 102 691 675 542 603 510 435 246 633 
400 8 453 86 167 128 207 179 9 422 
401 8 303 685 324 457 333 146 163 27 
402 8 273 187 543 487 61 583 158 571 
403 9 623 393 10 255 358 334 233 472 678 
404 9 60 580 677 54 209 547 415 269 452 
405 9 638 6 666 491 325 305 308 566 699 
406 9 398 639 157 564 290 663 8 340 657 
407 9 219 373 189 76 281 647 576 618 176 
408 9 551 432 99 14 283 523 582 456 595 
409 9 97 228 329 689 21 557 103 368 664 
410 9 70 13 471 635 51 669 142 309 682 
411 9 114 3 439 239 64 360 153 561 608 
412 9 216 497 264 75 127 465 120 7 461 
413 6 272 535 280 686 36 590 
414 9 374 441 252 106 295 206 619 186 119 
415 9 580 250 427 404 599 674 547 149 54 
416 9 129 383 585 125 657 82 430 663 486 
417 9 703 484 440 108 205 596 278 306 28 
418 9 354 662 98 171 426 257 346 245 371 
419 9 695 511 462 618 698 76 80 235 189 
420 9 466 493 53 337 225 5 652 68 298 
421 8 529 243 349 460 39 237 354 245 
422 9 569 179 86 167 207 255 268 400 9 
423 9 488 498 41 394 525 540 151 241 187 
424 9 65 287 90 499 643 85 481 667 597 
425 9 198 195 357 262 37 348 504 607 455 
426 9 346 150 171 634 339 371 326 418 554 
427 9 674 149 221 553 163 580 535 249 223 
428 9 135 132 359 627 709 496 68 641 330 
429 9 93 152 568 706 248 474 448 304 489 
430 9 82 129 197 416 125 383 629 463 676 
431 9 560 244 227 43 614 671 476 133 314 
432 9 99 595 445 408 551 240 283 456 700 
433 9 679 385 84 605 702 307 369 611 328 
434 9 20 371 202 339 257 98 150 579 634 
435 9 510 542 399 675 691 102 246 112 603 
436 9 44 328 605 369 433 446 679 385 105 
437 8 343 78 331 473 206 513 158 522 
438 8 396 561 345 531 220 211 114 707 
439 9 360 3 411 153 114 239 64 211 49 
440 9 108 205 278 703 417 385 484 307 386 
441 9 414 252 374 106 295 206 619 186 513 
442 9 143 22 296 113 258 469 508 212 224 
443 9 95 274 336 240 126 238 59 445 567 
444 9 395 62 550 316 160 231 704 87 621 
445 9 595 240 432 99 700 59 274 95 443 
446 9 105 512 140 44 380 436 701 451 616 
447 9 72 620 608 15 478 654 64 177 239 
448 9 93 159 706 173 648 429 248 474 152 
449 9 536 2 119 282 507 148 186 29 619 
450 9 49 468 546 211 594 707 153 191 345 
451 9 38 701 512 112 649 318 391 446 630 
452 9 380 616 677 60 140 105 446 182 44 
453 8 400 167 86 207 128 179 347 196 
454 9 375 521 174 656 601 164 31 109 23 
455 9 279 141 83 534 262 357 539 292 589 
456 9 283 582 671 476 637 161 700 66 99 
457 9 503 333 226 146 121 341 324 303 401 
458 9 697 610 382 46 175 606 395 704 584 
459 9 312 645 479 24 520 214 651 91 88 
460 9 39 693 243 364 130 237 263 25 354 
461 9 537 562 264 412 224 242 297 7 579 
462 9 235 69 511 698 419 695 628 708 4 
463 9 676 116 692 123 168 46 197 624 430 
464 8 643 593 597 424 65 90 499 287 
465 9 75 589 275 497 216 127 412 539 120 
466 9 420 493 53 337 225 5 652 68 298 
467 9 11 342 548 330 32 132 172 359 541 
468 9 450 594 49 191 650 546 153 211 707 
469 9 212 113 143 508 332 532 258 247 442 
470 9 308 305 81 491 694 489 563 405 6 
471 9 51 309 70 139 410 480 682 492 13 
472 9 358 233 10 393 9 403 16 107 255 
473 9 78 513 331 522 170 437 206 295 343 
474 9 248 152 568 304 429 489 563 133 314 
475 8 45 286 633 603 88 162 288 102 
476 9 161 671 244 637 66 582 456 566 325 
477 9 361 611 369 605 702 679 84 328 433 
478 9 15 64 239 72 447 517 3 608 411 
479 9 645 24 312 459 214 651 91 392 520 
480 9 139 492 625 33 51 471 682 309 322 
481 9 200 499 615 287 85 65 526 362 424 
482 6 230 313 370 293 273 96 
483 9 67 194 640 502 12 549 199 203 291 
484 9 703 417 306 596 440 28 108 205 592 
485 9 18 277 602 170 16 321 136 513 107 
486 9 663 8 621 125 290 383 564 584 157 
487 5 273 583 61 158 402 
488 9 394 423 540 41 498 525 241 151 311 
489 9 694 470 563 304 474 248 81 308 305 
490 8 42 653 558 372 35 217 397 559 
491 9 305 308 81 470 6 405 666 638 699 
492 9 480 139 309 598 673 471 555 625 136 
493 9 53 420 466 337 225 5 652 156 298 
494 8 58 269 376 366 613 576 281 209 
495 9 79 29 310 536 201 449 556 148 335 
496 9 68 709 641 428 298 135 132 420 466 
497 9 216 412 127 264 465 75 120 275 579 
498 9 423 488 525 41 187 394 540 571 151 
499 9 481 65 287 200 597 615 424 85 526 
500 9 594 191 178 650 468 307 450 386 84 
501 9 696 124 109 31 656 164 174 310 79 
502 9 12 640 194 67 483 183 572 285 229 
503 9 457 226 121 333 341 146 585 129 416 
504 8 607 37 613 195 198 425 357 681 
505 9 379 104 334 236 26 142 509 678 530 
506 8 578 327 341 222 121 146 27 226 
507 9 148 282 536 449 2 52 381 29 688 
508 9 258 469 212 143 332 113 21 664 442 
509 9 236 26 623 569 505 520 255 312 422 
510 9 435 542 399 675 691 102 246 603 112 
511 9 462 235 419 695 69 77 698 708 628 
512 9 446 105 140 451 318 617 701 144 616 
513 9 473 78 295 522 170 206 331 106 437 
514 7 581 256 96 313 661 230 482 
515 9 302 370 145 117 519 609 644 254 128 
516 9 202 362 257 526 98 662 434 245 296 
517 9 15 72 478 246 447 675 64 603 620 
518 8 384 587 612 604 397 35 184 653 
519 8 55 253 293 254 117 687 344 370 
520 9 162 459 312 645 26 24 286 88 236 
521 9 601 454 375 23 538 241 174 656 164 
522 9 331 131 170 78 473 513 213 107 321 
523 9 408 432 551 99 445 595 240 126 283 
524 9 215 556 185 180 48 619 136 34 555 
525 8 151 423 498 488 394 41 540 187 
526 9 362 516 202 200 245 257 98 22 296 
527 8 181 147 151 525 96 581 394 313 
528 9 368 668 229 288 103 565 40 228 88 
529 9 421 349 460 243 39 245 354 237 418 
530 4 379 26 505 142 
531 7 74 220 672 438 396 345 561 
532 9 332 708 212 69 545 469 113 235 315 
533 9 387 386 205 135 627 690 278 417 30 
534 9 141 683 262 455 279 357 539 83 589 
535 9 642 388 272 36 413 547 149 389 92 
536 9 449 148 507 2 29 282 495 119 186 
537 9 461 562 297 7 242 4 412 247 628 
538 9 23 552 601 521 241 540 454 394 41 
539 9 589 465 75 275 83 455 279 127 497 
540 9 394 41 488 241 423 498 525 151 23 
541 9 641 172 709 548 636 32 132 496 68 
542 9 675 510 246 399 435 102 691 517 603 
543 7 402 313 187 273 487 230 96 
544 9 31 501 696 656 124 109 454 164 174 
545 8 315 193 332 320 532 77 664 511 
546 9 707 211 450 345 49 468 153 594 360 
547 9 388 642 535 389 36 54 92 272 149 
548 9 172 467 32 132 11 342 330 541 641 
549 3 203 67 483 
550 9 62 231 160 444 87 316 395 704 340 
551 9 408 14 99 432 283 582 456 671 595 
552 9 538 23 601 521 241 454 540 394 41 
553 7 249 223 163 294 221 149 27 
554 9 579 634 326 150 339 20 264 371 127 
555 9 673 136 185 602 598 34 48 180 215 
556 9 201 524 356 180 48 215 185 495 335 
557 9 21 689 258 508 85 97 409 664 442 
558 9 653 35 490 42 559 575 397 338 192 
559 9 338 192 390 575 35 289 558 111 350 
560 9 431 227 43 614 244 133 314 304 568 
561 9 396 114 438 411 345 363 239 439 608 
562 9 242 4 537 247 461 297 628 7 708 
563 9 314 133 304 81 305 308 470 489 614 
564 9 290 157 639 8 398 663 486 621 406 
565 9 528 90 368 667 228 103 229 183 97 
566 9 325 66 638 405 6 270 637 666 161 
567 9 626 134 655 591 680 155 100 570 59 
568 9 152 248 474 429 304 614 43 133 314 
569 9 422 179 86 255 207 167 268 623 10 
570 9 208 100 567 659 73 365 19 646 680 
571 9 101 311 381 688 138 52 187 282 498 
572 8 285 47 91 347 392 12 651 183 
573 9 292 122 120 251 83 80 275 618 7 
574 9 166 267 631 684 25 110 259 326 130 
575 9 111 338 559 377 350 558 168 624 192 
576 8 281 373 407 376 681 219 647 118 
577 9 322 625 16 678 33 277 334 480 139 
578 9 506 341 121 222 327 146 226 27 503 
579 9 554 264 20 127 634 434 497 412 339 
580 9 404 415 427 547 54 388 149 677 535 
581 8 514 256 96 661 313 271 705 230 
582 9 283 456 671 476 244 637 14 161 66 
583 5 158 487 61 273 343 
584 9 175 629 621 382 606 197 486 46 8 
585 9 416 657 383 125 129 82 663 333 430 
586 8 705 271 126 190 661 581 514 256 
587 8 518 234 184 42 384 397 653 35 
588 9 57 658 156 652 204 53 590 493 280 
589 9 275 75 465 539 83 292 216 497 120 
590 5 280 686 204 57 156 
591 9 134 655 626 270 680 155 261 567 210 
592 9 306 28 596 484 182 417 703 440 108 
593 6 464 643 597 549 424 65 
594 9 191 468 450 500 650 49 546 707 211 
595 9 445 240 432 99 700 59 274 95 443 
596 9 28 484 306 417 703 592 30 440 533 
597 9 65 643 499 424 464 481 287 200 90 
598 9 673 34 555 185 492 300 48 136 309 
599 9 674 63 415 427 221 163 250 580 553 
600 9 50 291 659 199 365 299 208 238 570 
601 9 521 454 538 23 375 552 656 241 174 
602 9 136 555 485 673 18 215 513 185 170 
603 9 633 102 691 399 675 517 246 542 15 
604 9 612 94 276 384 218 289 397 669 632 
605 9 369 328 679 433 477 611 361 84 702 
606 9 46 197 629 175 382 584 82 463 676 
607 9 504 37 195 198 425 613 357 348 681 
608 9 64 239 620 447 3 114 363 411 478 
609 6 299 515 302 291 355 145 
610 8 697 458 704 395 382 175 444 46 
611 9 477 702 361 84 369 679 650 605 433 
612 9 604 384 669 94 635 218 518 276 632 
613 8 37 504 376 681 607 576 281 373 
614 9 43 227 133 304 314 560 563 568 152 
615 9 200 85 481 287 442 22 362 499 526 
616 9 140 105 452 380 617 512 366 144 318 
617 9 144 318 670 320 193 140 118 512 176 
618 9 80 76 189 419 695 122 698 462 511 
619 9 119 186 2 374 414 441 106 449 215 
620 9 447 654 608 72 177 363 64 239 478 
621 9 8 584 486 316 290 663 175 564 629 
622 9 266 350 260 111 390 377 115 192 338 
623 9 403 255 393 10 358 233 472 9 334 
624 9 168 377 692 123 116 188 676 463 260 
625 9 322 33 577 678 139 480 16 334 682 
626 9 134 591 655 680 567 155 270 261 100 
627 9 135 428 359 386 178 387 533 132 496 
628 9 698 4 235 297 69 462 7 708 80 
629 9 197 606 584 82 46 175 382 125 430 
630 9 317 391 649 71 38 40 329 112 701 
631 9 267 684 110 326 166 554 574 634 127 
632 9 169 218 323 635 94 669 276 319 410 
633 9 603 102 691 399 45 517 675 475 72 
634 9 150 339 554 326 426 371 346 20 579 
635 9 669 410 70 632 169 471 612 13 51 
636 9 541 665 172 32 641 548 466 420 378 
637 9 66 161 566 325 270 476 591 638 134 
638 9 6 405 666 325 566 699 491 305 308 
639 9 157 564 290 398 406 8 340 663 486 
640 9 194 483 67 502 12 199 291 600 47 
641 9 709 541 496 68 132 428 548 172 466 
642 9 388 535 36 547 389 272 92 413 137 
643 9 464 597 65 424 90 499 593 287 481 
644 8 196 355 347 47 453 128 400 117 
645 9 312 459 479 24 214 651 91 520 392 
646 8 19 100 210 284 73 353 261 155 
647 9 176 219 118 407 373 77 281 76 576 
648 9 448 706 93 159 429 173 152 568 248 
649 9 391 317 630 38 71 701 112 329 451 
650 9 191 702 468 84 594 500 450 611 307 
651 9 91 214 479 392 268 645 312 24 459 
652 9 156 588 57 53 658 493 420 466 337 
653 9 558 35 42 490 397 559 575 289 338 
654 7 620 363 177 447 608 72 64 
655 9 680 155 134 591 626 261 270 210 100 
656 9 31 174 164 109 375 454 501 696 124 
657 9 585 383 416 125 129 663 82 486 8 
658 9 588 57 652 156 204 53 590 665 115 
659 9 365 50 208 73 600 570 19 100 646 
660 9 300 48 180 34 356 185 598 555 556 
661 6 256 581 271 514 705 96 
662 9 418 245 98 257 354 202 516 371 339 
663 9 486 8 125 383 564 657 290 157 416 
664 8 332 508 258 545 212 689 193 21 
665 9 636 652 53 466 420 658 588 493 541 
666 9 699 6 638 405 491 353 325 305 308 
667 9 85 97 287 90 557 689 21 409 424 
668 9 40 103 368 71 228 528 317 630 391 
669 9 635 70 410 612 632 471 309 169 51 
670 9 144 617 320 118 176 318 647 193 315 
671 9 244 476 582 161 283 456 431 637 66 
672 7 220 531 74 265 438 396 319 
673 9 555 136 598 34 602 185 492 48 180 
674 8 427 221 63 163 553 599 149 223 
675 9 246 399 542 102 517 603 691 15 510 
676 9 463 116 692 123 168 624 46 197 430 
677 9 60 54 452 182 404 380 547 592 616 
678 9 322 334 33 577 625 682 403 16 104 
679 9 433 84 605 369 385 702 611 328 477 
680 9 655 155 134 261 591 626 210 100 270 
681 8 281 373 576 407 251 613 37 189 
682 9 51 33 104 139 13 480 678 142 334 
683 9 534 141 262 17 455 259 348 279 539 
684 9 110 267 631 259 574 326 127 166 554 
685 8 401 303 324 163 146 457 221 27 
686 5 280 590 204 57 413 
687 9 344 254 55 253 9 128 233 472 519 
688 9 381 101 138 311 571 282 2 186 52 
689 8 21 557 258 97 409 508 664 85 
690 9 30 89 298 232 387 5 165 533 137 
691 9 102 399 603 633 675 510 542 435 246 
692 9 123 676 116 168 463 624 188 377 430 
693 9 39 130 237 364 25 171 166 346 460 
694 6 470 489 308 305 491 81 
695 9 419 511 462 618 76 698 80 235 189 
696 9 124 501 109 31 656 164 310 79 174 
697 7 610 458 704 382 395 46 175 
698 9 628 80 462 235 419 695 69 122 297 
699 8 666 6 353 638 405 491 210 261 
700 9 59 270 626 134 637 591 567 456 66 
701 9 112 38 451 649 391 317 630 512 446 
702 9 84 650 611 191 679 307 433 477 468 
703 9 417 484 440 108 205 306 596 278 28 
704 8 395 610 444 697 62 160 316 550 
705 8 586 271 661 126 581 190 514 256 
706 9 93 429 448 648 152 568 248 474 173 
707 9 546 345 211 450 49 153 396 468 594 
708 9 69 235 4 462 628 511 532 242 698 
709 9 641 496 68 428 132 541 135 548 359 
DEPOT_SECTION
   1
   -1
EOF
