NAME :  X-n749-kX-w149-c11.cctp
COMMENT : 	Adapted by Maziero, Usberti and Cavellucci from the Uchoa, Pecin, Pessoa, Poggi, Subramanian, and Vidal (2013)
TYPE :  CCTP
DIMENSION :    727
EDGE_WEIGHT_TYPE : 	EUC_2D	
CAPACITY : 	396
VERTICES_WITHIN_COVERAGE :  11
VERTICES_WITH_DEMAND : 	149
NODE_COORD_SECTION
1 643 512
2 707 407
3 394 355
4 140 470
5 364 215
6 493 857
7 117 466
8 462 38
9 551 479
10 545 460
11 423 274
12 440 602
13 525 357
14 574 994
15 387 377
16 583 424
17 16 481
18 615 427
19 511 799
20 110 518
21 223 506
22 163 520
23 834 419
24 442 482
25 42 547
26 478 421
27 372 108
28 320 252
29 731 372
30 341 234
31 787 331
32 433 254
33 555 397
34 640 350
35 565 185
36 320 196
37 64 374
38 283 411
39 46 582
40 328 453
41 779 448
42 602 152
43 466 934
44 280 317
45 403 425
46 482 80
47 504 575
48 649 348
49 388 331
50 518 731
51 550 364
52 745 421
53 384 205
54 236 226
55 602 498
56 670 80
57 380 177
58 135 333
59 594 841
60 189 250
61 682 470
62 515 19
63 311 39
64 398 363
65 217 615
66 530 879
67 410 679
68 382 240
69 146 456
70 543 339
71 316 436
72 397 382
73 507 783
74 436 314
75 88 469
76 127 428
77 158 431
78 639 444
79 722 341
80 121 445
81 470 876
82 452 69
83 82 446
84 353 318
85 220 551
86 534 495
87 502 5
88 411 463
89 338 218
90 282 593
91 457 514
92 321 215
93 363 948
94 524 256
95 642 783
96 722 576
97 265 503
98 113 541
99 638 920
100 523 805
101 722 444
102 364 408
103 310 484
104 519 392
105 240 338
106 662 429
107 603 451
108 336 290
109 759 337
110 64 496
111 490 148
112 297 386
113 167 488
114 402 351
115 424 152
116 472 108
117 580 538
118 157 385
119 695 410
120 104 462
121 404 98
122 114 450
123 456 111
124 756 305
125 446 59
126 711 772
127 86 489
128 557 516
129 440 70
130 44 553
131 618 456
132 404 261
133 460 908
134 542 837
135 379 268
136 633 383
137 331 210
138 706 444
139 570 378
140 218 347
141 47 445
142 514 367
143 175 505
144 198 390
145 586 552
146 386 95
147 855 567
148 734 396
149 301 140
150 93 530
151 791 501
152 417 932
153 389 341
154 479 232
155 527 829
156 378 185
157 447 23
158 665 479
159 306 896
160 527 14
161 517 904
162 441 419
163 325 83
164 766 356
165 337 208
166 62 529
167 523 506
168 470 121
169 510 286
170 620 439
171 79 545
172 426 246
173 335 881
174 772 362
175 486 62
176 156 404
177 418 385
178 393 293
179 511 494
180 650 348
181 830 577
182 271 262
183 411 558
184 691 255
185 646 356
186 696 414
187 728 486
188 445 131
189 123 427
190 832 697
191 373 318
192 502 188
193 202 424
194 424 669
195 37 391
196 527 551
197 467 76
198 47 399
199 519 673
200 177 563
201 694 337
202 123 536
203 451 780
204 432 394
205 379 160
206 343 284
207 661 442
208 513 508
209 545 767
210 109 240
211 512 821
212 398 332
213 178 479
214 604 453
215 446 505
216 662 382
217 98 478
218 619 86
219 516 265
220 138 412
221 440 331
222 111 379
223 313 75
224 378 124
225 345 109
226 140 505
227 369 214
228 411 92
229 471 938
230 295 494
231 406 535
232 674 546
233 507 9
234 337 217
235 557 465
236 694 200
237 143 453
238 488 429
239 68 566
240 594 723
241 397 360
242 671 843
243 801 435
244 142 482
245 6 644
246 515 950
247 119 570
248 367 377
249 147 488
250 414 917
251 339 119
252 108 87
253 96 431
254 666 440
255 605 490
256 575 507
257 532 463
258 691 613
259 115 540
260 202 497
261 48 487
262 452 152
263 518 830
264 45 426
265 5 557
266 473 812
267 98 491
268 468 325
269 452 156
270 65 509
271 493 503
272 128 283
273 542 852
274 722 697
275 327 183
276 689 497
277 643 790
278 87 460
279 518 247
280 595 425
281 345 290
282 69 439
283 358 159
284 121 388
285 719 414
286 577 932
287 487 810
288 456 549
289 419 419
290 220 574
291 396 468
292 527 214
293 458 24
294 527 678
295 91 444
296 634 503
297 355 117
298 660 435
299 149 516
300 121 467
301 365 233
302 564 673
303 643 335
304 948 666
305 594 567
306 368 64
307 448 908
308 470 869
309 305 267
310 354 303
311 469 868
312 582 349
313 727 340
314 735 436
315 460 476
316 715 554
317 461 906
318 179 434
319 498 36
320 304 429
321 367 144
322 212 389
323 479 327
324 188 416
325 604 443
326 558 409
327 489 275
328 371 88
329 513 866
330 77 520
331 388 135
332 322 335
333 277 459
334 412 274
335 629 454
336 187 463
337 403 56
338 537 411
339 693 319
340 603 794
341 371 214
342 506 171
343 98 529
344 476 2
345 404 102
346 415 273
347 646 464
348 578 488
349 404 330
350 80 541
351 512 538
352 13 417
353 109 606
354 482 173
355 654 46
356 14 285
357 483 231
358 501 824
359 95 565
360 526 585
361 664 331
362 56 415
363 560 452
364 398 275
365 388 344
366 350 350
367 148 546
368 419 366
369 37 552
370 510 758
371 154 358
372 588 23
373 317 496
374 335 338
375 610 553
376 101 531
377 597 86
378 123 393
379 682 434
380 779 374
381 118 357
382 478 137
383 458 252
384 496 396
385 235 313
386 725 432
387 492 69
388 443 349
389 429 390
390 443 58
391 596 262
392 340 304
393 361 281
394 358 258
395 289 187
396 313 208
397 497 189
398 297 425
399 443 516
400 543 458
401 797 465
402 513 45
403 416 336
404 564 201
405 435 16
406 357 400
407 537 509
408 364 62
409 709 500
410 539 440
411 179 201
412 492 865
413 429 5
414 126 408
415 667 984
416 265 491
417 541 338
418 399 351
419 100 480
420 327 163
421 678 434
422 173 106
423 438 63
424 327 276
425 98 557
426 346 168
427 135 440
428 386 214
429 345 84
430 79 687
431 516 484
432 773 468
433 244 603
434 45 401
435 87 537
436 261 108
437 390 262
438 384 935
439 448 83
440 515 532
441 489 973
442 657 919
443 338 317
444 114 522
445 334 393
446 293 326
447 648 460
448 420 336
449 393 348
450 334 288
451 672 434
452 177 517
453 350 158
454 643 781
455 514 33
456 662 863
457 254 350
458 402 378
459 332 925
460 710 395
461 388 325
462 256 400
463 207 297
464 532 516
465 800 371
466 64 440
467 574 924
468 398 75
469 509 86
470 455 472
471 31 603
472 120 491
473 141 450
474 468 101
475 268 677
476 85 472
477 387 214
478 426 270
479 381 324
480 178 485
481 457 865
482 562 354
483 567 453
484 640 442
485 413 912
486 403 427
487 523 918
488 348 343
489 389 370
490 453 486
491 573 379
492 191 580
493 666 551
494 423 683
495 319 275
496 612 413
497 459 44
498 683 490
499 786 466
500 428 878
501 596 138
502 473 859
503 592 373
504 381 210
505 127 314
506 716 359
507 384 243
508 93 482
509 760 471
510 194 604
511 377 303
512 768 315
513 727 512
514 421 623
515 409 79
516 55 365
517 508 407
518 399 120
519 729 403
520 197 490
521 492 445
522 338 393
523 146 443
524 241 369
525 641 437
526 716 603
527 646 486
528 598 569
529 132 542
530 384 384
531 617 237
532 609 513
533 449 444
534 808 393
535 626 449
536 773 960
537 670 376
538 777 492
539 146 551
540 828 575
541 360 508
542 94 660
543 473 382
544 434 322
545 170 460
546 354 262
547 44 445
548 301 175
549 717 388
550 123 484
551 843 415
552 69 466
553 796 452
554 413 237
555 351 384
556 721 522
557 821 294
558 185 440
559 396 325
560 272 191
561 419 258
562 391 760
563 515 18
564 637 988
565 876 412
566 327 110
567 90 512
568 630 373
569 680 354
570 224 510
571 564 151
572 528 173
573 474 967
574 414 347
575 135 481
576 455 897
577 453 24
578 332 558
579 516 867
580 562 814
581 418 933
582 148 784
583 511 480
584 551 776
585 725 450
586 469 558
587 101 446
588 43 517
589 517 138
590 123 383
591 567 415
592 399 115
593 99 504
594 209 156
595 724 617
596 570 935
597 664 488
598 479 56
599 432 59
600 755 709
601 649 209
602 387 178
603 80 463
604 360 169
605 541 838
606 640 488
607 298 260
608 287 721
609 382 315
610 659 867
611 322 258
612 205 652
613 616 354
614 218 21
615 529 714
616 828 384
617 630 396
618 374 408
619 558 250
620 331 335
621 477 75
622 43 364
623 404 366
624 590 632
625 526 74
626 353 335
627 571 270
628 83 360
629 459 934
630 196 555
631 202 337
632 200 385
633 123 437
634 682 409
635 409 376
636 476 39
637 461 174
638 531 448
639 467 127
640 566 402
641 549 831
642 379 273
643 133 461
644 469 68
645 302 430
646 66 510
647 517 292
648 557 57
649 380 411
650 89 524
651 544 311
652 429 219
653 539 887
654 498 861
655 451 15
656 445 659
657 400 240
658 298 186
659 437 355
660 250 655
661 534 558
662 456 479
663 506 804
664 148 404
665 308 962
666 296 419
667 368 320
668 466 505
669 388 190
670 577 164
671 417 375
672 535 830
673 784 347
674 435 53
675 393 173
676 520 751
677 644 335
678 683 655
679 111 557
680 453 44
681 215 464
682 416 198
683 491 848
684 261 548
685 334 468
686 558 308
687 180 394
688 535 942
689 656 628
690 446 325
691 624 371
692 271 71
693 364 389
694 468 103
695 217 249
696 550 410
697 339 322
698 532 826
699 96 395
700 543 380
701 30 452
702 60 500
703 357 65
704 358 152
705 577 491
706 718 433
707 232 501
708 346 235
709 358 411
710 459 113
711 49 567
712 436 854
713 136 439
714 765 305
715 529 87
716 130 452
717 490 841
718 592 865
719 283 390
720 357 323
721 323 281
722 533 53
723 746 699
724 358 957
725 400 325
726 150 462
727 395 247
DEMAND_SECTION
2 86
3 42
4 29
5 22
6 21
7 61
8 22
9 12
10 72
11 71
12 28
13 16
14 14
15 4
16 74
17 64
18 40
19 38
20 64
21 46
22 65
23 82
24 99
25 65
26 53
27 1
28 13
29 29
30 68
31 64
32 37
33 52
34 47
35 7
36 86
37 88
38 9
39 36
40 80
41 91
42 75
43 42
44 75
45 94
46 23
47 48
48 33
49 22
50 63
51 80
52 6
53 21
54 39
55 61
56 55
57 15
58 56
59 35
60 86
61 93
62 32
63 5
64 15
65 14
66 71
67 10
68 57
69 39
70 70
71 19
72 40
73 90
74 42
75 48
76 43
77 35
78 68
79 9
80 63
81 92
82 76
83 79
84 100
85 63
86 37
87 94
88 76
89 93
90 99
91 73
92 68
93 53
94 33
95 59
96 79
97 45
98 10
99 91
100 20
101 39
102 6
103 100
104 29
105 26
106 24
107 29
108 9
109 5
110 52
111 79
112 92
113 89
114 30
115 76
116 25
117 38
118 62
119 71
120 90
121 15
122 35
123 57
124 38
125 74
126 75
127 17
128 55
129 62
130 18
131 89
132 52
133 55
134 20
135 70
136 76
137 13
138 77
139 26
140 52
141 69
142 77
143 48
144 48
145 29
146 80
147 12
148 59
149 11
150 18
COVERAGE_SECTION
2 11 119 460 186 285 549 519 634 706 148 386 138 
3 11 241 418 449 64 114 365 153 623 489 574 15 
4 11 643 244 575 726 69 237 249 300 473 716 550 
5 11 227 341 301 504 53 428 477 89 234 708 165 
6 11 654 412 683 717 502 329 579 308 311 81 358 
7 11 300 120 122 643 550 716 80 217 419 4 575 
8 11 497 680 636 293 577 157 598 655 125 390 644 
9 11 235 10 400 86 257 348 363 705 483 407 431 
10 11 400 235 257 363 638 9 410 483 86 431 583 
11 11 478 346 334 561 32 132 364 172 437 178 554 
12 11 514 183 586 288 656 47 194 231 67 494 399 
13 11 142 70 417 51 700 104 482 384 33 139 651 
14 11 596 286 564 688 467 246 441 487 415 99 573 
15 11 489 530 72 458 64 241 248 623 635 3 693 
16 11 280 591 325 640 326 496 18 483 107 214 363 
17 11 701 261 588 547 141 702 110 552 270 646 264 
18 11 170 496 325 280 535 107 214 525 78 131 484 
19 11 663 100 73 211 287 358 263 155 698 672 266 
20 11 444 343 376 593 150 567 202 650 98 259 472 
21 11 570 707 260 520 97 681 85 416 452 143 480 
22 11 452 299 143 226 367 113 539 249 480 529 202 
23 11 551 616 243 534 565 553 401 465 41 499 380 
24 11 490 662 470 315 215 668 399 91 88 533 291 
25 11 130 369 711 166 588 239 39 171 265 350 270 
26 11 238 521 384 517 162 533 543 104 204 470 315 
27 11 224 146 297 328 225 592 518 331 345 121 251 
28 11 611 309 495 607 424 30 721 708 546 92 89 
29 11 506 549 148 460 519 79 313 164 2 174 285 
30 11 708 89 234 301 137 165 28 92 394 5 546 
31 11 673 512 109 164 174 714 124 465 380 557 313 
32 11 172 561 478 11 383 346 554 334 132 652 657 
33 11 326 640 696 700 591 338 139 491 51 104 16 
34 11 185 48 180 303 677 613 568 691 361 136 216 
35 11 404 670 571 572 292 42 501 342 192 619 589 
36 11 396 275 137 92 165 658 234 89 548 395 420 
37 11 516 622 628 198 195 434 699 362 222 264 381 
38 11 666 398 719 645 320 112 462 71 333 445 522 
39 11 711 471 239 130 369 25 265 171 359 350 166 
40 11 685 71 320 645 103 398 373 666 333 709 230 
41 11 553 499 432 401 243 509 52 538 314 151 585 
42 10 501 670 571 35 404 377 218 601 572 531 
43 11 229 629 133 317 307 573 576 441 581 152 246 
44 11 446 457 105 385 332 620 182 309 721 495 443 
45 11 486 289 649 618 162 88 204 72 102 177 291 
46 11 621 387 197 175 644 598 474 694 469 116 82 
47 11 360 196 661 351 586 440 288 464 208 12 167 
48 11 180 34 185 303 677 361 568 569 613 691 537 
49 11 461 153 212 479 559 365 725 349 609 449 191 
50 11 615 676 370 209 73 294 584 199 19 100 302 
51 11 482 700 139 13 70 491 417 33 312 142 640 
52 11 314 386 519 148 285 706 101 585 2 41 549 
53 11 504 428 477 341 669 227 156 5 602 57 675 
54 11 695 182 560 60 411 395 607 658 594 463 396 
55 10 255 532 348 705 256 296 606 131 214 117 
56 10 355 218 377 501 42 372 648 236 670 571 
57 11 602 156 675 669 205 604 53 283 504 704 321 
58 11 505 381 371 272 590 222 118 284 628 378 631 
59 11 718 580 641 340 134 273 605 672 698 155 610 
60 11 695 411 463 54 272 385 210 182 631 505 594 
61 11 158 498 597 276 254 138 207 447 347 379 421 
62 11 563 160 233 455 87 319 402 722 344 636 175 
63 11 223 163 692 703 429 408 306 566 328 225 251 
64 11 241 623 3 489 418 114 449 458 635 15 72 
65 11 510 433 612 290 492 660 85 630 200 90 475 
66 11 653 579 329 161 273 654 412 487 605 6 134 
67 11 494 194 656 514 12 562 199 203 294 50 183 
68 11 507 727 301 657 437 428 477 135 341 227 132 
69 11 237 726 473 523 643 4 716 427 713 545 244 
70 11 417 482 13 51 651 686 142 312 700 139 491 
71 11 320 645 40 398 666 685 38 333 445 103 522 
72 11 458 15 530 635 489 623 64 177 671 241 3 
73 11 19 663 370 100 287 676 211 209 358 266 584 
74 11 544 690 221 448 403 268 349 388 725 574 559 
75 11 476 278 603 217 508 419 120 552 127 83 267 
76 11 189 633 427 713 80 220 414 523 716 122 473 
77 11 523 318 713 427 473 176 237 69 220 558 664 
78 11 484 525 335 535 447 170 347 207 298 131 106 
79 11 313 506 201 29 339 109 569 164 549 124 512 
80 11 633 122 716 427 713 76 189 587 643 7 473 
81 11 308 311 481 502 412 576 6 317 654 133 683 
82 11 125 129 390 423 439 197 644 599 674 680 497 
83 11 295 278 282 603 466 587 253 75 552 476 120 
84 11 720 310 443 667 697 626 392 191 488 374 511 
85 11 290 630 492 570 684 21 200 707 452 260 433 
86 11 407 167 431 464 9 179 208 583 128 257 10 
87 11 233 563 62 344 160 455 319 402 636 293 8 
88 11 291 24 486 45 533 289 470 490 662 315 162 
89 11 234 165 137 30 92 708 5 396 36 227 301 
90 11 433 684 578 290 65 660 85 475 510 97 492 
91 11 668 215 399 490 24 288 662 271 315 470 586 
92 11 137 396 234 89 165 36 30 708 275 28 658 
93 11 724 438 459 152 581 665 250 485 173 159 307 
94 10 279 219 169 619 647 327 292 357 627 154 
95 11 454 277 340 242 126 59 240 456 580 610 584 
96 9 316 526 595 258 556 232 493 513 409 
97 11 416 230 707 21 570 684 333 103 373 260 681 
98 11 259 202 376 679 343 444 529 425 20 150 435 
99 11 442 610 286 456 467 564 415 596 718 242 59 
100 11 19 663 211 698 155 263 73 672 358 287 134 
101 11 585 386 706 314 138 285 52 2 186 379 187 
102 11 709 618 406 649 693 555 522 248 530 445 15 
103 11 373 230 685 40 333 416 71 97 320 541 645 
104 11 517 384 142 338 700 13 33 696 51 326 543 
105 11 457 140 385 524 631 44 463 446 322 632 462 
106 11 298 451 254 207 421 379 525 484 78 634 447 
107 11 214 325 131 170 535 335 18 280 16 483 78 
108 11 450 206 281 392 721 424 310 495 393 443 697 
109 11 164 512 673 174 31 124 313 714 79 380 29 
110 11 702 270 646 261 127 330 552 588 567 476 508 
111 11 382 354 342 589 639 168 262 269 637 192 397 
112 11 719 38 666 445 398 522 462 320 645 71 555 
113 11 480 213 143 249 244 545 520 452 726 4 22 
114 11 418 3 449 241 64 574 623 153 365 212 349 
115 11 262 269 188 675 331 518 637 592 602 205 682 
116 11 694 474 168 710 123 639 46 382 197 621 188 
117 11 145 256 128 305 375 528 532 55 705 348 661 
118 11 176 664 687 371 220 590 378 284 414 144 632 
119 11 186 2 634 460 285 379 421 549 451 706 519 
120 11 7 122 587 75 217 278 300 419 476 295 508 
121 11 345 228 146 592 515 518 468 27 328 224 331 
122 11 80 587 7 120 633 716 300 643 427 295 189 
123 11 710 694 116 474 168 639 188 439 382 197 46 
124 11 714 512 109 31 313 79 673 164 174 339 557 
125 11 390 423 82 129 674 599 680 497 439 644 8 
126 11 454 95 277 274 600 242 723 456 610 340 678 
127 11 508 267 217 419 476 75 593 110 567 603 702 
128 11 256 407 464 86 117 705 167 348 9 208 440 
129 11 423 82 390 125 599 439 674 197 644 680 497 
130 11 25 369 711 239 39 166 171 588 350 265 435 
131 11 335 535 214 107 170 325 78 484 18 347 447 
132 11 437 334 364 561 346 727 657 11 478 135 554 
133 11 317 307 576 629 43 229 81 308 311 481 500 
134 11 605 641 672 273 698 155 263 580 211 100 579 
135 11 642 437 364 393 394 507 132 546 727 68 178 
136 11 568 617 691 216 185 34 613 496 48 537 180 
137 11 165 234 89 92 36 396 30 275 708 5 227 
138 11 101 706 585 386 379 314 421 186 285 61 451 
139 11 491 503 33 51 640 482 700 312 326 591 696 
140 11 631 105 524 457 385 322 632 144 463 687 371 
141 11 547 466 701 264 282 552 362 83 603 261 278 
142 11 13 104 700 384 51 70 417 517 543 338 482 
143 11 452 22 113 480 213 520 260 299 249 226 244 
144 11 632 322 687 324 193 118 176 140 318 524 558 
145 11 117 305 528 375 532 128 256 661 55 196 705 
146 11 328 121 27 345 468 592 228 515 518 224 306 
147 10 181 540 151 538 401 499 432 553 190 96 
148 11 519 549 285 29 460 52 2 386 314 706 119 
149 10 420 548 566 251 658 395 275 436 453 426 
150 11 343 650 376 435 350 567 330 20 171 444 98 
151 10 538 499 401 432 509 553 41 187 513 243 
152 11 581 250 485 438 307 629 43 133 317 576 229 
153 11 365 449 49 212 418 3 114 461 559 349 479 
154 10 357 383 279 327 397 192 219 32 94 292 
155 11 698 672 263 134 211 605 641 100 358 273 663 
156 11 57 602 669 675 53 604 205 504 227 341 428 
157 11 577 655 293 405 8 680 497 413 674 636 390 
158 9 597 61 527 498 347 447 606 276 207 
159 9 173 459 665 93 724 438 485 250 152 
160 11 62 563 233 455 87 402 319 722 344 648 636 
161 11 487 66 653 579 329 688 246 412 654 6 81 
162 11 289 533 204 389 26 45 486 177 238 543 671 
163 11 223 429 566 225 703 251 408 297 63 328 306 
164 11 174 109 673 380 31 465 29 512 313 79 506 
165 11 137 234 89 92 36 396 30 275 5 708 227 
166 11 330 646 270 350 588 171 435 25 650 702 130 
167 11 208 464 407 86 179 431 440 583 271 351 128 
168 11 639 116 710 123 382 694 474 188 111 262 269 
169 11 647 219 327 94 279 651 323 686 268 619 357 
170 11 535 18 325 131 335 78 484 107 214 525 496 
171 11 350 435 150 425 166 650 239 330 343 359 376 
172 11 32 561 554 478 132 652 657 11 346 334 727 
173 8 159 459 93 438 724 485 665 250 
174 11 164 380 673 109 465 31 29 512 534 313 148 
175 11 387 598 621 46 644 197 636 319 402 497 469 
176 11 664 118 220 687 77 414 324 378 76 284 318 
177 10 671 389 635 204 458 368 72 623 64 15 
178 11 364 511 642 609 334 135 346 437 191 461 559 
179 11 431 208 583 167 271 86 407 464 257 440 9 
180 11 48 185 34 677 303 361 569 568 537 613 691 
181 10 540 147 151 538 96 595 316 401 526 499 
182 11 607 309 28 54 495 611 721 44 695 424 385 
183 11 231 288 12 399 586 91 215 514 541 668 578 
184 10 236 601 339 531 361 124 201 714 79 313 
185 11 34 48 180 303 677 568 691 136 613 216 361 
186 11 119 2 634 285 379 460 421 706 451 138 549 
187 11 409 513 509 585 556 276 101 498 138 432 61 
188 11 262 639 123 710 269 168 115 382 116 694 474 
189 11 76 633 80 427 713 414 220 122 716 253 523 
190 11 600 723 274 181 304 540 147 595 126 526 678 
191 11 667 609 479 511 461 720 49 84 310 559 626 
192 10 397 342 354 572 292 111 637 357 154 589 
193 10 324 558 318 144 322 687 632 336 681 77 
194 11 494 67 656 514 12 199 562 294 183 50 203 
195 11 198 434 622 362 37 516 352 264 547 141 628 
196 11 661 351 440 47 360 464 407 167 208 128 117 
197 11 644 621 46 82 439 598 175 474 387 125 694 
198 11 434 195 362 264 37 516 622 352 466 141 282 
199 10 294 615 302 50 656 676 624 370 360 240 
200 11 630 492 539 367 290 510 22 85 452 529 299 
201 11 339 569 79 361 506 313 180 48 537 677 29 
202 11 259 98 529 444 20 376 679 343 367 539 150 
203 6 266 287 73 663 19 370 
204 10 389 177 671 162 289 635 368 458 72 659 
205 10 57 675 321 602 283 604 704 156 331 453 
206 11 281 108 450 393 424 392 721 310 546 495 394 
207 11 254 298 106 451 421 484 525 78 379 447 347 
208 11 167 179 271 464 407 431 440 86 583 351 128 
209 11 584 676 370 73 100 50 19 580 663 615 698 
210 11 272 505 411 60 58 356 695 463 381 628 371 
211 11 263 358 155 663 100 698 19 672 287 717 134 
212 11 349 559 725 49 461 153 365 449 403 114 418 
213 11 480 113 336 545 520 143 260 249 726 244 452 
214 11 107 325 131 170 535 335 18 280 16 78 255 
215 11 399 91 490 668 24 662 315 470 288 271 231 
216 11 537 136 185 568 569 634 617 48 180 34 691 
217 11 419 508 75 267 476 127 120 278 7 603 300 
218 10 377 56 355 501 42 648 372 571 670 715 
219 11 94 279 169 647 327 619 357 154 292 651 627 
220 11 414 664 76 176 189 378 713 77 427 284 633 
221 10 690 544 74 388 448 659 403 268 574 349 
222 11 284 590 378 699 381 414 628 220 664 118 37 
223 11 163 429 63 566 692 703 225 251 408 306 297 
224 11 331 27 518 321 592 297 146 345 704 205 225 
225 10 251 297 566 429 27 163 328 224 321 146 
226 11 299 249 244 472 575 22 550 444 113 20 4 
227 11 341 5 504 53 428 477 301 68 156 89 669 
228 11 121 345 515 468 146 592 518 129 337 439 599 
229 11 43 629 573 133 317 307 441 576 246 581 152 
230 11 103 373 416 97 333 685 40 71 707 645 684 
231 11 183 399 215 288 541 91 24 586 668 291 490 
232 8 493 316 276 556 96 498 409 296 
233 11 87 563 62 160 455 319 344 402 636 293 722 
234 11 89 137 165 92 30 708 396 5 36 227 301 
235 11 10 363 9 400 483 257 348 410 638 705 86 
236 10 601 184 531 42 391 501 339 56 124 670 
237 11 69 473 523 726 643 716 427 713 4 80 300 
238 11 26 521 517 384 533 638 104 162 543 338 410 
239 11 711 171 39 130 359 350 425 25 369 435 166 
240 9 302 209 615 584 340 50 454 95 676 
241 11 64 3 418 623 114 449 489 365 458 15 635 
242 11 456 610 277 95 454 59 442 126 718 99 340 
243 11 553 41 401 499 23 432 534 551 509 52 616 
244 11 575 249 4 550 726 226 643 472 69 113 300 
245 11 471 39 430 265 711 542 369 130 239 25 353 
246 11 688 487 441 573 161 229 43 596 629 467 286 
247 11 679 359 425 98 259 529 539 202 353 367 376 
248 11 693 555 530 15 489 406 72 102 366 618 522 
249 11 244 575 226 4 113 550 726 472 299 643 480 
250 11 485 152 581 307 438 500 576 133 317 629 43 
251 10 225 566 297 27 429 321 704 163 224 453 
252 11 422 594 614 411 210 436 692 60 54 560 695 
253 11 295 587 83 122 189 282 633 80 278 76 120 
254 11 207 298 451 106 421 379 525 484 78 447 347 
255 11 55 532 348 705 296 256 606 131 214 107 527 
256 11 705 348 128 55 117 255 532 9 407 86 464 
257 11 400 10 638 410 9 235 431 583 363 86 483 
258 9 526 595 689 678 96 316 493 232 274 
259 11 98 202 376 529 679 444 343 20 150 425 435 
260 11 520 21 570 480 143 213 707 452 681 113 336 
261 11 110 702 270 646 552 588 17 127 701 476 603 
262 11 269 188 637 115 639 382 168 354 111 710 123 
263 11 155 211 698 672 358 605 100 134 663 717 641 
264 11 362 141 547 466 434 198 282 701 352 195 83 
265 11 369 25 130 711 39 471 588 166 239 171 17 
266 6 287 358 663 717 203 19 
267 11 508 419 127 217 593 472 567 476 75 550 20 
268 10 323 690 221 74 544 388 659 448 403 327 
269 11 262 637 188 115 382 639 354 111 168 710 123 
270 11 646 702 110 330 166 588 567 261 650 127 593 
271 11 179 208 668 583 167 431 440 91 351 464 86 
272 11 505 210 58 60 381 371 463 628 631 695 222 
273 11 605 134 641 672 155 698 66 579 329 263 653 
274 10 723 600 678 126 595 258 526 689 190 454 
275 11 36 420 426 137 165 548 396 658 92 453 234 
276 9 498 409 597 61 158 187 513 556 527 
277 11 95 454 340 242 126 59 456 610 240 580 718 
278 11 603 75 476 83 295 120 552 587 217 508 419 
279 10 94 219 292 357 169 327 619 154 647 627 
280 11 16 18 325 496 107 170 214 591 640 131 535 
281 11 206 108 450 392 310 393 424 721 443 84 546 
282 11 466 83 141 295 547 603 264 362 552 253 278 
283 10 704 453 604 426 321 205 57 420 156 602 
284 11 378 590 222 414 699 220 381 664 118 176 189 
285 11 2 519 386 706 460 148 186 119 549 52 314 
286 11 596 467 688 487 653 14 99 246 161 718 66 
287 8 266 358 663 19 211 717 73 100 
288 11 586 91 399 215 668 183 231 12 47 351 271 
289 11 45 486 162 204 389 177 533 649 72 458 635 
290 11 85 492 630 433 510 65 200 684 570 90 21 
291 11 88 486 45 24 289 541 533 470 649 490 662 
292 10 279 192 397 404 572 94 357 35 342 619 
293 11 577 157 655 8 497 680 636 405 344 413 125 
294 10 199 615 302 50 676 624 240 370 656 209 
295 11 83 587 253 278 120 603 282 122 75 466 476 
296 9 606 527 532 55 255 597 158 347 447 
297 10 225 251 27 224 566 321 328 429 704 146 
298 11 106 207 254 451 421 525 484 379 78 447 347 
299 11 226 22 143 249 452 367 529 113 202 244 539 
300 11 7 643 550 716 120 122 4 575 80 472 217 
301 11 5 68 227 708 341 507 30 394 428 504 477 
302 9 294 199 624 615 240 50 676 209 360 
303 11 677 48 34 180 185 361 613 568 691 569 136 
304 10 190 147 181 540 600 723 151 274 595 526 
305 11 528 145 375 117 532 661 128 256 624 55 196 
306 11 408 703 328 429 468 146 337 27 515 163 121 
307 11 133 317 576 629 43 250 485 500 229 81 152 
308 11 311 81 502 481 412 6 654 683 576 717 712 
309 11 607 495 611 28 721 424 182 450 108 206 281 
310 11 392 84 281 720 443 108 206 667 393 511 191 
311 11 308 81 502 481 412 6 654 683 576 717 712 
312 11 482 503 139 491 613 51 70 417 691 686 700 
313 11 79 506 29 109 201 339 164 124 512 549 569 
314 11 386 101 585 706 52 285 138 519 2 148 509 
315 11 662 470 490 24 668 215 533 91 271 399 521 
316 9 96 556 232 513 493 526 409 276 258 
317 11 133 576 307 43 629 81 229 308 311 481 500 
318 10 558 324 77 193 545 336 523 176 69 687 
319 11 455 402 636 62 563 233 598 175 87 387 8 
320 11 645 398 666 71 38 40 333 112 719 445 685 
321 10 704 283 205 453 224 331 604 297 426 57 
322 11 632 144 687 524 193 324 140 462 631 118 318 
323 11 268 690 221 388 74 544 659 169 647 142 327 
324 10 193 318 687 558 144 632 77 176 322 664 
325 11 107 214 170 18 131 280 535 335 16 496 78 
326 11 696 591 640 33 338 16 139 700 491 410 280 
327 10 169 219 647 383 94 279 154 357 323 268 
328 11 146 27 306 429 408 703 468 225 297 121 345 
329 11 579 654 66 412 6 683 273 653 717 263 161 
330 11 650 567 646 270 166 150 435 350 343 171 376 
331 11 224 518 321 592 205 27 704 345 283 297 675 
332 11 620 374 697 443 488 446 626 366 84 392 720 
333 11 416 645 230 398 320 103 666 71 97 38 40 
334 11 346 11 364 132 478 561 437 178 32 172 727 
335 11 535 131 78 484 170 347 447 525 214 107 325 
336 10 545 213 558 480 681 520 318 113 260 726 
337 11 468 515 599 674 306 423 228 408 129 390 121 
338 11 696 326 33 104 410 517 591 640 700 638 384 
339 11 201 361 79 569 313 506 180 303 677 48 185 
340 11 277 95 454 580 59 584 209 641 240 718 134 
341 11 227 5 504 428 53 477 301 68 669 156 507 
342 11 192 397 572 354 111 589 382 637 292 269 262 
343 11 376 150 650 435 20 444 98 567 259 350 330 
344 11 87 293 655 233 577 157 636 8 319 563 62 
345 11 121 228 592 146 518 515 468 27 224 328 331 
346 11 334 11 478 132 561 364 32 437 172 178 727 
347 11 447 335 78 527 484 158 535 606 207 525 131 
348 11 705 256 55 255 9 235 128 483 363 532 10 
349 11 212 725 559 403 49 448 461 153 574 114 365 
350 11 171 435 150 650 330 166 343 376 425 239 359 
351 11 440 196 208 464 661 167 47 407 271 179 586 
352 11 264 195 434 198 701 547 362 141 466 282 622 
353 11 247 359 679 425 542 239 98 259 539 39 171 
354 11 637 397 342 192 111 269 382 262 572 639 589 
355 10 56 218 372 377 648 501 42 722 160 625 
356 11 622 516 37 628 210 195 272 505 198 434 381 
357 10 154 383 279 327 397 192 219 292 94 32 
358 10 211 263 287 717 663 155 683 19 100 266 
359 11 425 679 247 171 239 350 435 98 259 150 376 
360 11 47 661 196 351 440 586 145 464 305 117 528 
361 11 677 303 180 48 569 34 185 201 339 537 216 
362 11 264 198 434 466 282 141 195 547 83 37 253 
363 11 483 235 10 400 410 9 638 257 16 591 348 
364 11 334 132 437 346 178 642 135 11 561 478 727 
365 11 153 449 3 49 418 114 212 241 461 64 349 
366 11 488 626 374 620 720 697 84 248 332 555 443 
367 11 539 529 202 22 299 200 259 98 247 679 452 
368 10 671 635 623 177 574 64 458 659 114 241 
369 11 25 130 711 39 265 166 239 588 171 350 270 
370 11 676 73 50 209 19 584 663 615 100 287 203 
371 11 118 58 381 590 687 284 176 664 378 222 505 
372 10 648 160 722 377 218 355 62 563 455 402 
373 11 103 230 685 40 541 97 416 333 71 578 320 
374 11 620 332 488 697 626 366 443 84 720 392 667 
375 9 528 305 145 117 532 296 55 493 256 
376 11 343 150 650 435 20 98 444 259 567 202 350 
377 10 218 648 501 372 42 715 355 625 722 56 
378 11 284 590 414 222 220 664 699 189 76 118 176 
379 11 421 451 254 106 207 298 186 634 138 119 61 
380 11 174 465 164 673 534 109 31 29 148 616 52 
381 11 222 590 58 284 628 371 378 505 699 118 414 
382 11 639 111 168 116 262 710 269 123 188 694 354 
383 10 32 154 172 357 478 327 561 11 652 554 
384 11 517 104 543 26 142 238 338 13 521 700 696 
385 11 105 463 140 631 457 44 524 446 182 695 60 
386 11 706 314 101 585 285 138 52 519 2 186 119 
387 11 175 46 621 598 644 469 197 402 319 625 636 
388 10 659 221 690 448 544 368 574 403 268 74 
389 10 204 177 671 635 368 458 162 289 72 623 
390 11 125 423 674 599 129 82 680 497 439 8 644 
391 10 627 531 619 686 404 651 94 601 279 219 
392 11 443 310 108 281 450 697 84 206 720 721 393 
393 11 206 281 546 642 135 310 394 108 511 450 392 
394 11 546 135 393 301 642 708 30 68 206 507 437 
395 11 658 548 560 36 396 275 92 420 137 149 165 
396 11 92 36 137 165 234 89 658 275 395 548 30 
397 10 192 342 354 572 292 637 111 357 154 382 
398 11 666 645 320 38 71 719 112 333 40 462 445 
399 11 215 91 668 490 24 288 662 231 315 470 586 
400 11 10 257 235 638 363 410 9 483 431 86 583 
401 10 499 553 432 41 243 538 151 509 23 52 
402 11 455 319 722 62 563 175 387 625 160 233 598 
403 11 448 574 349 212 725 114 418 544 559 221 449 
404 11 35 292 670 572 619 571 42 192 531 279 342 
405 11 413 157 655 577 293 680 8 497 674 344 390 
406 11 102 709 693 555 618 522 445 248 649 530 15 
407 11 464 86 167 128 208 179 440 9 431 256 351 
408 11 306 703 328 429 468 337 146 163 27 515 225 
409 10 276 513 187 556 498 61 597 158 585 316 
410 11 638 400 10 257 363 338 235 483 696 326 591 
411 11 60 594 695 54 210 560 422 272 463 182 395 
412 11 654 6 683 502 329 308 311 579 717 81 481 
413 11 405 655 157 577 293 680 8 344 674 497 599 
414 11 220 378 189 76 284 664 590 633 176 222 427 
415 11 564 442 99 14 286 536 596 467 610 456 688 
416 11 97 230 333 707 21 570 103 373 681 684 260 
417 11 70 13 482 651 51 686 142 312 700 139 491 
418 11 114 3 449 241 64 365 153 574 623 212 489 
419 11 217 508 267 75 127 476 120 7 472 550 278 
420 10 275 426 453 548 283 704 36 604 149 658 
421 11 379 451 254 106 298 207 634 186 119 138 61 
422 11 594 252 436 411 614 692 560 149 54 395 223 
423 11 129 390 599 125 674 82 439 680 497 644 197 
424 11 721 495 450 108 206 611 281 309 28 546 392 
425 11 359 679 98 171 435 259 350 247 376 150 343 
426 10 453 604 283 420 704 275 321 205 57 156 
427 11 713 523 473 633 716 76 80 237 189 69 643 
428 11 477 504 53 341 227 5 669 68 301 507 156 
429 11 163 703 225 328 408 306 566 223 297 27 251 
430 10 542 245 353 471 39 582 239 359 247 711 
431 11 583 179 86 167 208 257 271 407 9 464 400 
432 11 499 509 41 401 538 553 151 243 187 314 585 
433 11 65 290 90 510 660 85 492 684 612 630 200 
434 11 198 195 362 264 37 352 516 622 466 141 547 
435 11 350 150 171 650 343 376 330 425 567 98 166 
436 11 692 149 223 566 163 594 548 251 225 395 560 
437 11 135 132 364 642 727 507 68 657 334 346 561 
438 11 93 152 581 724 250 485 459 307 500 173 629 
439 11 82 129 197 423 125 390 644 474 694 123 599 
440 11 351 196 464 208 167 407 661 271 179 86 47 
441 11 573 246 229 43 629 688 487 133 317 161 307 
442 11 99 610 456 415 564 242 286 467 718 596 59 
443 11 697 392 84 620 720 310 374 626 332 108 281 
444 11 20 376 202 343 259 98 150 593 650 567 529 
445 11 522 555 406 693 709 102 248 112 618 366 666 
446 11 44 332 620 374 443 457 697 392 105 721 108 
447 11 347 78 335 484 207 525 158 535 527 254 298 
448 11 403 574 349 544 221 212 114 725 659 388 418 
449 11 365 3 418 153 114 241 64 212 49 349 574 
450 11 108 206 281 721 424 392 495 310 393 443 611 
451 11 421 254 379 106 298 207 634 186 525 119 484 
452 11 143 22 299 113 260 480 520 213 226 367 249 
453 10 283 704 426 604 321 420 205 275 57 156 
454 11 95 277 340 242 126 240 59 456 580 610 584 
455 11 402 62 563 319 160 233 722 87 636 175 387 
456 11 610 242 442 99 718 59 277 95 454 340 126 
457 11 105 524 140 44 385 446 719 462 631 112 322 
458 11 72 635 623 15 489 671 64 177 241 530 368 
459 10 93 159 724 173 665 438 250 485 152 581 
460 11 549 2 119 285 519 148 186 29 634 506 706 
461 11 49 479 559 212 609 725 153 191 349 365 667 
462 11 38 719 524 112 666 322 398 457 645 320 632 
463 11 385 631 695 60 140 105 457 182 44 54 58 
464 11 407 167 86 208 440 128 179 351 196 431 271 
465 11 380 534 174 673 616 164 31 109 23 551 243 
466 11 282 141 83 547 264 362 552 295 603 278 253 
467 11 286 596 688 487 653 161 718 66 99 246 14 
468 11 515 337 228 146 121 345 328 306 408 599 592 
469 11 715 625 387 46 175 621 402 722 598 116 197 
470 11 315 662 490 24 533 215 668 91 88 399 521 
471 11 39 711 245 369 130 239 265 25 359 171 353 
472 11 550 575 267 419 226 244 300 7 593 217 249 
473 11 237 69 523 716 427 713 643 726 4 80 633 
474 11 694 116 710 123 168 46 197 639 439 621 644 
475 9 660 608 612 433 65 90 510 290 492 
476 11 75 603 278 508 217 127 419 552 120 267 83 
477 11 428 504 53 341 227 5 669 68 301 507 657 
478 11 11 346 561 334 32 132 172 364 554 383 437 
479 11 461 609 49 191 667 559 153 212 725 365 511 
480 11 213 113 143 520 336 545 260 249 452 244 726 
481 9 311 308 81 502 712 500 576 412 6 
482 11 51 312 70 139 417 491 700 503 13 33 686 
483 11 363 235 10 400 9 410 16 107 257 638 214 
484 11 78 525 335 535 170 447 207 298 347 106 131 
485 11 250 152 581 307 438 500 576 133 317 629 43 
486 11 45 289 649 618 88 162 291 102 204 72 177 
487 11 161 688 246 653 66 596 467 579 329 229 286 
488 11 366 626 374 620 720 697 84 332 443 667 191 
489 11 15 64 241 72 458 530 3 623 418 635 449 
490 11 662 24 315 470 215 668 91 399 533 271 88 
491 11 139 503 640 33 51 482 700 312 326 591 696 
492 11 200 510 630 290 85 65 539 367 433 452 22 
493 8 232 316 375 296 276 96 556 498 
494 11 67 194 656 514 12 562 199 203 294 50 615 
495 11 721 424 309 611 450 28 108 206 607 281 392 
496 11 18 280 617 170 16 325 136 525 107 535 484 
497 11 680 8 636 125 293 390 577 598 157 82 644 
498 9 276 597 61 158 409 527 606 187 347 
499 10 401 432 553 41 509 538 243 151 314 52 
500 11 712 481 576 307 485 250 81 311 308 317 133 
501 10 42 670 571 377 35 218 404 572 589 715 
502 9 308 311 81 481 6 412 683 654 717 
503 11 491 139 312 613 691 482 568 640 136 51 33 
504 11 53 428 477 341 227 5 669 156 301 68 57 
505 11 58 272 381 371 628 222 590 284 210 118 631 
506 11 79 29 313 549 201 460 569 148 339 519 109 
507 11 68 727 657 437 301 135 132 428 477 394 554 
508 11 217 419 127 267 476 75 120 278 593 603 472 
509 11 432 499 538 41 187 401 553 585 151 314 101 
510 11 492 65 290 200 612 630 433 85 539 367 660 
511 11 609 191 178 667 479 310 461 393 84 720 559 
512 11 714 124 109 31 673 164 174 313 79 557 380 
513 10 556 409 187 276 316 498 509 538 61 585 
514 11 12 656 194 67 494 183 586 288 231 47 399 
515 11 468 228 121 337 345 146 599 129 423 592 674 
516 11 622 37 628 195 198 434 362 699 222 264 381 
517 11 384 104 338 238 26 142 521 696 543 700 410 
518 11 592 331 345 224 121 146 27 228 321 115 515 
519 11 148 285 549 460 2 52 386 29 706 314 119 
520 11 260 480 213 143 336 113 21 681 452 570 707 
521 11 238 26 638 583 517 533 257 315 431 470 410 
522 11 445 555 406 693 709 102 248 618 112 366 649 
523 11 473 237 427 713 69 77 716 726 643 76 633 
524 11 457 105 140 462 322 632 719 144 631 385 38 
525 11 484 78 298 535 170 207 335 106 447 254 347 
526 10 595 258 96 316 678 689 232 493 556 513 
527 9 606 597 158 296 347 447 335 498 61 
528 10 305 375 145 117 532 624 661 256 128 493 
529 11 202 367 259 539 98 679 444 247 299 20 376 
530 11 15 72 489 248 458 693 64 618 635 241 623 
531 10 391 601 627 619 404 35 184 670 236 42 
532 10 55 255 296 256 117 705 348 375 606 145 
533 11 162 470 315 662 26 24 289 88 238 490 521 
534 11 616 465 380 23 551 243 174 673 164 553 41 
535 11 335 131 170 78 484 525 214 107 325 18 347 
536 11 415 442 564 99 456 610 242 126 286 14 467 
537 11 216 569 185 180 48 634 136 34 568 119 460 
538 10 151 432 509 499 401 41 553 187 513 243 
539 11 367 529 202 200 247 259 98 22 299 679 444 
540 10 181 147 151 538 96 595 401 316 526 499 
541 11 373 685 231 291 103 578 40 230 88 183 399 
542 11 430 353 471 245 39 247 359 239 425 711 679 
543 10 384 26 204 517 142 388 389 659 104 162 
544 11 74 221 690 448 403 388 349 574 659 268 725 
545 11 336 726 213 69 558 480 113 237 318 523 77 
546 11 394 393 206 135 642 708 281 424 30 301 611 
547 11 141 701 264 466 282 362 552 83 603 261 352 
548 11 658 395 275 36 420 560 149 396 92 137 426 
549 11 460 148 519 2 29 285 506 119 186 634 52 
550 11 472 575 300 7 244 4 419 249 643 217 267 
551 11 23 565 616 534 243 553 465 401 41 380 499 
552 11 603 476 75 278 83 466 282 127 508 110 141 
553 11 401 41 499 243 432 509 538 151 23 52 534 
554 11 657 172 727 561 652 32 132 507 68 437 428 
555 11 693 522 248 406 445 102 709 530 618 366 15 
556 9 513 409 316 187 276 498 232 96 493 
557 11 31 512 714 673 124 109 465 164 174 380 616 
558 10 318 193 336 324 545 77 681 523 213 726 
559 11 725 212 461 349 49 479 153 609 365 403 449 
560 11 395 658 548 396 36 54 92 275 149 137 420 
561 11 172 478 32 132 11 346 334 554 657 727 364 
562 4 203 67 494 194 
563 11 62 233 160 455 87 319 402 722 344 636 598 
564 11 415 14 99 442 286 596 467 688 610 456 246 
565 11 551 23 616 534 243 465 553 401 41 380 499 
566 10 251 225 163 297 429 223 149 27 328 321 
567 11 593 650 330 150 343 20 267 376 127 646 270 
568 11 691 136 185 617 613 34 48 180 216 503 303 
569 11 201 537 361 180 48 216 185 506 339 34 677 
570 11 21 707 260 520 85 97 416 681 452 143 480 
571 10 670 35 501 42 572 589 404 342 192 292 
572 11 342 192 397 589 35 292 571 111 354 404 670 
573 11 441 229 43 629 246 133 317 307 581 688 152 
574 11 403 114 448 418 349 368 241 449 623 3 212 
575 11 244 4 550 249 472 300 643 7 726 226 69 
576 11 317 133 307 81 308 311 481 500 629 43 502 
577 11 293 157 655 8 405 680 497 636 413 344 674 
578 11 541 90 373 684 230 103 231 183 97 685 416 
579 11 329 66 654 412 6 273 653 683 161 263 717 
580 11 641 134 672 605 698 155 100 584 59 273 340 
581 11 152 250 485 438 307 629 43 133 317 576 229 
582 8 430 542 612 608 475 660 353 65 
583 11 431 179 86 257 208 167 271 638 10 400 407 
584 11 209 100 580 676 73 370 19 663 698 340 641 
585 11 101 314 386 706 138 52 187 285 509 186 379 
586 11 288 47 91 351 399 12 440 668 183 196 215 
587 11 295 122 120 253 83 80 278 633 7 75 603 
588 11 166 270 646 702 25 110 261 330 130 369 350 
589 11 111 342 572 382 354 571 168 639 192 715 469 
590 11 284 378 222 414 381 699 220 664 118 176 371 
591 11 326 640 16 696 33 280 338 491 139 363 410 
592 11 518 345 121 224 331 146 228 27 515 328 468 
593 11 567 267 20 127 650 444 508 419 343 472 217 
594 11 411 422 436 560 54 395 149 695 548 658 60 
595 10 526 258 96 678 316 689 274 723 232 493 
596 11 286 467 688 487 246 653 14 161 66 99 718 
597 9 158 527 498 606 61 276 347 447 296 
598 11 175 644 636 387 621 197 497 46 8 319 680 
599 11 423 674 390 125 129 82 680 337 439 515 497 
600 10 723 274 126 190 678 595 526 258 689 454 
601 10 531 236 184 42 391 404 670 35 501 627 
602 11 57 675 156 669 205 53 604 504 283 682 428 
603 11 278 75 476 552 83 295 217 508 120 282 419 
604 10 283 426 453 704 205 57 156 321 602 675 
605 11 134 672 641 273 698 155 263 580 211 100 579 
606 9 527 296 597 347 158 447 255 335 55 
607 11 309 28 611 495 182 424 721 450 108 30 92 
608 8 475 660 612 562 433 65 90 67 
609 11 191 479 461 511 667 49 559 725 212 178 720 
610 11 456 242 442 99 718 59 277 95 454 340 467 
611 11 28 495 309 424 721 607 30 450 546 206 708 
612 11 65 660 510 433 475 492 290 200 90 630 85 
613 11 691 34 568 185 503 303 48 136 312 677 180 
614 11 692 63 422 436 223 163 252 594 566 429 149 
615 11 50 294 676 199 370 302 209 240 584 73 19 
616 11 534 465 551 23 380 565 673 243 174 31 164 
617 11 136 568 496 691 18 216 525 185 170 503 613 
618 11 649 102 709 406 693 530 248 555 15 45 72 
619 11 627 94 279 391 219 292 404 686 647 169 531 
620 11 374 332 697 443 488 626 366 84 720 392 310 
621 11 46 197 644 175 387 598 82 474 694 439 116 
622 11 516 37 195 198 434 628 362 352 699 264 222 
623 11 64 241 635 458 3 114 368 418 489 671 72 
624 9 302 528 305 689 294 360 145 375 199 
625 10 715 469 722 402 387 648 175 455 46 319 
626 11 488 720 366 84 374 697 667 620 443 191 479 
627 11 619 391 686 94 651 219 531 279 647 169 404 
628 11 37 516 222 381 699 622 590 284 378 198 195 
629 11 43 229 133 307 317 573 576 581 152 250 441 
630 11 200 85 492 290 452 22 367 510 539 570 143 
631 11 140 105 463 385 632 524 371 144 322 457 687 
632 11 144 322 687 324 193 140 118 524 176 631 318 
633 11 80 76 189 427 713 122 716 473 523 587 237 
634 11 119 186 2 379 421 451 106 460 216 298 254 
635 11 458 671 623 72 177 368 64 241 489 15 389 
636 11 8 598 497 319 293 680 175 577 644 157 387 
637 11 269 354 262 111 397 382 115 192 342 188 639 
638 11 410 257 400 10 363 235 483 9 338 583 431 
639 11 168 382 710 123 116 188 694 474 262 111 269 
640 11 326 33 591 696 139 491 16 338 700 280 503 
641 11 134 605 672 698 580 155 273 263 100 211 59 
642 11 135 437 364 393 178 394 546 132 507 511 727 
643 11 716 4 237 300 69 473 7 726 80 575 427 
644 11 197 621 598 82 46 175 387 125 439 497 390 
645 11 320 398 666 71 38 40 333 112 719 445 685 
646 11 270 702 110 330 166 567 588 650 127 261 150 
647 11 169 219 327 651 94 686 279 323 417 70 627 
648 10 722 625 715 372 402 377 455 160 469 62 
649 11 618 102 709 406 45 530 693 486 72 15 248 
650 11 150 343 567 330 435 376 350 20 593 171 444 
651 11 686 417 70 647 169 482 627 13 51 219 312 
652 11 554 682 172 32 657 561 477 428 383 727 53 
653 11 66 161 579 329 273 487 605 654 134 467 412 
654 11 6 412 683 329 579 717 502 308 311 81 66 
655 11 157 577 293 405 413 8 344 680 497 636 674 
656 11 194 494 67 514 12 199 294 615 47 50 586 
657 11 727 554 507 68 132 437 561 172 477 428 135 
658 11 395 548 36 560 396 275 92 420 137 165 149 
659 10 388 368 221 574 448 403 671 690 544 114 
660 11 475 612 65 433 90 510 608 290 492 85 684 
661 11 196 360 351 440 47 464 128 407 117 145 167 
662 11 315 470 490 24 215 668 91 533 399 271 88 
663 11 19 100 211 287 73 358 263 155 266 698 672 
664 11 176 220 118 414 378 77 284 76 590 189 687 
665 10 459 724 93 159 438 173 152 581 250 485 
666 11 398 320 645 38 71 719 112 333 462 445 40 
667 11 191 720 479 84 609 511 461 626 310 49 559 
668 11 91 215 490 399 271 662 315 24 470 288 179 
669 11 156 602 57 53 675 504 428 477 341 682 205 
670 11 571 35 42 501 404 572 589 292 342 192 377 
671 10 635 368 177 458 623 389 72 64 204 241 
672 11 698 155 134 605 641 263 273 211 100 580 358 
673 11 31 174 164 109 380 465 512 714 124 534 313 
674 11 599 390 423 125 129 680 82 497 8 157 337 
675 11 602 57 669 156 205 53 604 682 115 283 331 
676 11 370 50 209 73 615 584 19 100 663 287 211 
677 11 303 48 180 34 361 185 613 568 569 691 136 
678 9 689 258 595 274 526 723 96 600 624 
679 11 425 247 98 259 359 202 529 376 343 435 150 
680 11 497 8 125 390 577 674 293 157 423 636 82 
681 10 336 520 260 558 213 707 193 21 480 545 
682 11 652 669 53 477 428 675 602 504 554 156 57 
683 11 717 6 654 412 502 358 329 308 311 579 263 
684 11 85 97 290 90 570 707 21 416 433 230 630 
685 11 40 103 373 71 230 541 320 645 398 333 291 
686 11 651 70 417 627 647 482 312 169 51 619 13 
687 11 144 632 324 118 176 322 664 193 318 77 371 
688 11 246 487 596 161 286 467 441 653 66 229 14 
689 9 258 678 526 624 595 493 528 96 232 
690 10 221 544 74 268 388 448 659 403 323 574 
691 11 568 136 613 34 617 185 503 48 180 216 303 
692 11 436 223 63 163 566 614 149 429 225 251 703 
693 11 248 406 555 102 530 618 709 15 522 649 445 
694 11 474 116 710 123 168 639 46 197 439 621 382 
695 11 60 54 463 182 411 385 560 607 631 309 105 
696 11 326 338 33 591 640 700 410 16 104 139 491 
697 11 443 84 620 374 392 720 626 332 488 310 667 
698 11 672 155 134 263 605 641 211 100 273 358 580 
699 11 222 284 378 590 414 253 628 37 189 381 76 
700 11 51 33 104 139 13 491 696 142 338 482 640 
701 11 547 141 264 17 466 261 352 282 552 362 603 
702 11 110 270 646 261 588 330 127 166 567 552 476 
703 11 408 306 429 328 163 146 468 223 27 225 337 
704 10 283 453 321 604 426 205 57 420 224 331 
705 11 348 256 55 255 9 128 235 483 532 86 363 
706 11 386 101 138 314 585 285 2 186 52 519 119 
707 10 21 570 260 97 416 520 681 85 684 480 
708 11 30 89 301 234 394 5 165 546 137 28 227 
709 11 102 406 618 649 693 522 555 445 248 530 15 
710 11 123 694 116 168 474 639 188 382 439 197 46 
711 11 39 130 239 369 25 171 166 350 471 265 359 
712 6 481 500 311 308 502 81 
713 11 427 523 473 633 76 716 80 237 189 69 643 
714 11 124 512 109 31 673 164 313 79 174 557 380 
715 10 625 469 722 387 648 402 46 175 589 621 
716 11 643 80 473 237 427 713 69 122 300 633 523 
717 10 683 6 358 654 412 502 211 263 287 266 
718 11 59 273 641 134 653 605 580 467 66 610 672 
719 11 112 38 462 666 398 320 645 524 457 445 522 
720 11 84 667 626 191 697 310 443 488 479 392 609 
721 11 424 495 450 108 206 309 611 281 28 392 607 
722 11 402 625 648 455 715 62 160 319 563 469 387 
723 10 600 274 678 126 595 190 526 258 689 96 
724 11 93 438 459 665 152 581 250 485 173 159 307 
725 11 559 349 212 461 49 153 403 479 609 365 448 
726 11 69 237 4 473 643 523 545 244 716 575 249 
727 11 657 507 68 437 132 554 135 561 364 172 642 
DEPOT_SECTION
   1
   -1
EOF
