NAME :  X-n716-kX-w71-c11.cctp
COMMENT : 	Adapted by Maziero, Usberti and Cavellucci from the Uchoa, Pecin, Pessoa, Poggi, Subramanian, and Vidal (2013)
TYPE :  CCTP
DIMENSION :    527
EDGE_WEIGHT_TYPE : 	EUC_2D	
CAPACITY : 	1007
VERTICES_WITHIN_COVERAGE :  11
VERTICES_WITH_DEMAND : 	71
NODE_COORD_SECTION
1 377 105
2 535 93
3 820 625
4 689 745
5 807 568
6 589 169
7 649 756
8 821 693
9 567 240
10 517 211
11 598 141
12 903 670
13 713 679
14 574 89
15 395 116
16 829 560
17 409 30
18 804 653
19 918 527
20 829 641
21 828 559
22 559 118
23 591 816
24 985 650
25 510 71
26 528 66
27 556 132
28 568 115
29 692 731
30 877 663
31 703 728
32 820 568
33 716 754
34 790 391
35 613 71
36 898 518
37 838 501
38 465 142
39 440 163
40 859 635
41 907 620
42 532 157
43 791 140
44 463 11
45 894 947
46 883 591
47 718 559
48 697 747
49 928 495
50 877 488
51 732 699
52 747 648
53 541 167
54 801 767
55 817 673
56 495 114
57 853 634
58 769 733
59 592 630
60 481 157
61 832 750
62 630 650
63 858 405
64 774 793
65 393 33
66 918 650
67 842 625
68 781 709
69 670 731
70 698 682
71 888 510
72 691 227
73 607 583
74 684 755
75 719 538
76 561 258
77 801 588
78 651 724
79 558 156
80 679 745
81 815 769
82 466 111
83 544 45
84 884 664
85 700 661
86 765 754
87 743 668
88 679 662
89 677 739
90 821 657
91 678 742
92 627 767
93 597 221
94 709 772
95 564 124
96 619 81
97 841 603
98 807 381
99 817 571
100 822 587
101 547 622
102 676 748
103 861 546
104 981 603
105 506 265
106 535 190
107 951 510
108 802 650
109 813 632
110 541 571
111 782 710
112 734 199
113 708 753
114 516 250
115 724 727
116 813 655
117 341 76
118 390 94
119 533 205
120 871 644
121 953 650
122 972 653
123 911 704
124 426 136
125 462 6
126 799 558
127 856 548
128 426 177
129 650 737
130 698 750
131 882 489
132 500 9
133 706 709
134 618 687
135 724 495
136 769 171
137 493 12
138 569 840
139 814 628
140 761 651
141 444 124
142 780 712
143 743 689
144 671 749
145 780 634
146 757 743
147 935 662
148 703 732
149 446 133
150 840 701
151 689 226
152 544 125
153 719 724
154 542 166
155 698 689
156 763 420
157 791 644
158 526 115
159 688 744
160 913 536
161 703 717
162 883 666
163 812 727
164 483 119
165 458 155
166 569 802
167 818 695
168 680 669
169 645 788
170 777 847
171 849 641
172 793 567
173 785 663
174 494 71
175 723 547
176 817 501
177 682 664
178 819 644
179 440 119
180 568 904
181 825 582
182 805 573
183 619 286
184 734 438
185 802 575
186 611 583
187 882 653
188 629 743
189 432 156
190 941 611
191 517 50
192 673 241
193 873 575
194 805 702
195 538 133
196 873 905
197 382 39
198 572 101
199 724 757
200 724 720
201 696 688
202 528 89
203 458 136
204 474 156
205 395 137
206 464 23
207 787 798
208 449 182
209 472 104
210 719 534
211 826 574
212 510 126
213 564 190
214 576 211
215 827 635
216 531 155
217 553 135
218 532 92
219 524 221
220 831 657
221 573 132
222 786 9
223 397 88
224 528 185
225 614 113
226 370 164
227 676 561
228 810 607
229 839 712
230 791 642
231 906 703
232 497 60
233 897 655
234 933 544
235 905 584
236 796 690
237 619 848
238 560 205
239 794 660
240 701 755
241 659 216
242 479 165
243 762 652
244 635 649
245 961 442
246 830 674
247 610 158
248 908 677
249 380 165
250 898 676
251 647 742
252 523 98
253 981 544
254 676 692
255 680 745
256 645 758
257 557 68
258 757 755
259 686 747
260 799 670
261 516 261
262 507 53
263 785 686
264 495 73
265 375 182
266 398 104
267 587 644
268 632 164
269 530 37
270 708 738
271 420 201
272 832 651
273 693 707
274 834 40
275 790 543
276 971 447
277 758 803
278 578 210
279 721 751
280 708 762
281 622 645
282 701 683
283 537 199
284 734 650
285 841 717
286 488 202
287 788 773
288 991 514
289 640 746
290 849 646
291 879 660
292 865 695
293 537 90
294 652 757
295 588 132
296 553 791
297 863 485
298 722 716
299 811 641
300 653 665
301 417 157
302 917 694
303 894 565
304 732 557
305 877 596
306 520 80
307 719 547
308 833 635
309 682 720
310 717 744
311 576 805
312 724 645
313 624 678
314 420 66
315 603 661
316 565 102
317 657 772
318 685 550
319 420 118
320 611 73
321 477 191
322 739 646
323 696 742
324 499 127
325 458 130
326 814 606
327 703 731
328 540 79
329 794 695
330 809 734
331 636 81
332 667 716
333 866 744
334 908 653
335 537 119
336 592 805
337 805 793
338 611 127
339 579 90
340 524 75
341 758 738
342 489 114
343 494 94
344 528 65
345 547 656
346 559 88
347 522 61
348 482 815
349 488 816
350 817 608
351 890 512
352 678 165
353 995 478
354 544 195
355 814 524
356 801 670
357 901 581
358 709 580
359 924 348
360 945 660
361 607 77
362 695 744
363 531 66
364 854 545
365 850 405
366 956 623
367 674 735
368 522 149
369 767 665
370 668 719
371 884 343
372 738 650
373 686 655
374 669 715
375 839 634
376 458 198
377 535 155
378 681 673
379 612 153
380 680 186
381 508 183
382 854 424
383 752 788
384 609 792
385 682 693
386 539 196
387 657 736
388 621 216
389 786 784
390 941 669
391 629 62
392 799 640
393 512 85
394 790 810
395 659 773
396 814 655
397 904 688
398 614 81
399 724 690
400 553 87
401 728 755
402 545 91
403 759 838
404 770 472
405 828 706
406 947 526
407 571 297
408 891 583
409 617 861
410 909 572
411 684 261
412 857 723
413 549 106
414 771 552
415 669 741
416 607 102
417 496 70
418 681 708
419 624 784
420 548 78
421 864 673
422 952 875
423 651 752
424 709 747
425 724 748
426 266 39
427 625 743
428 894 666
429 928 560
430 707 731
431 511 817
432 805 653
433 508 130
434 773 560
435 528 154
436 534 55
437 820 653
438 816 606
439 618 298
440 798 672
441 614 45
442 493 26
443 747 740
444 757 655
445 845 653
446 551 125
447 705 719
448 463 8
449 576 77
450 574 577
451 490 168
452 757 397
453 873 635
454 629 137
455 778 727
456 701 727
457 655 71
458 878 620
459 629 757
460 834 753
461 883 622
462 852 520
463 828 545
464 737 691
465 660 626
466 710 688
467 725 765
468 653 735
469 724 719
470 829 553
471 853 652
472 759 729
473 598 56
474 699 762
475 931 436
476 877 690
477 692 743
478 782 574
479 560 127
480 418 158
481 610 838
482 406 120
483 509 118
484 852 709
485 793 527
486 742 669
487 616 172
488 700 223
489 687 680
490 902 705
491 529 653
492 769 686
493 810 979
494 891 663
495 836 883
496 917 552
497 580 241
498 650 340
499 845 598
500 494 195
501 903 617
502 652 236
503 573 182
504 716 702
505 698 762
506 535 124
507 480 176
508 661 559
509 520 195
510 887 583
511 536 133
512 609 48
513 533 641
514 929 673
515 906 679
516 887 598
517 990 612
518 927 659
519 654 624
520 552 100
521 846 570
522 525 68
523 892 591
524 462 157
525 863 795
526 619 603
527 869 503
DEMAND_SECTION
2 47
3 21
4 19
5 37
6 40
7 79
8 60
9 88
10 84
11 75
12 12
13 42
14 21
15 91
16 6
17 57
18 7
19 66
20 7
21 99
22 75
23 4
24 85
25 10
26 29
27 6
28 20
29 7
30 50
31 26
32 29
33 99
34 45
35 57
36 14
37 33
38 2
39 38
40 43
41 64
42 85
43 84
44 46
45 53
46 45
47 48
48 48
49 85
50 60
51 2
52 17
53 12
54 99
55 43
56 40
57 29
58 13
59 29
60 26
61 66
62 45
63 34
64 33
65 6
66 72
67 34
68 16
69 36
70 69
71 10
72 10
COVERAGE_SECTION
2 11 218 293 202 402 252 328 520 400 413 306 420 
3 11 139 109 215 308 350 20 299 178 438 326 228 
4 11 159 259 477 362 48 323 255 80 130 74 91 
5 11 182 185 99 32 126 172 211 77 16 21 181 
6 11 503 247 487 379 11 213 79 295 221 278 268 
7 10 294 256 423 289 251 317 129 395 459 468 
8 11 167 405 194 55 150 246 236 229 329 356 285 
9 11 497 76 214 278 93 238 219 119 213 283 354 
10 11 219 509 119 283 386 106 224 500 381 286 354 
11 11 295 379 338 247 221 6 454 225 487 95 28 
12 11 250 248 515 428 494 233 334 397 84 162 66 
13 11 466 282 70 399 155 201 85 504 489 464 51 
14 11 339 198 449 346 316 400 520 28 257 420 402 
15 11 266 482 205 118 319 223 124 179 301 480 141 
16 11 21 470 32 211 463 99 521 181 5 182 100 
17 9 65 197 314 206 44 125 448 223 118 
18 11 432 108 116 396 239 299 392 157 437 90 178 
19 10 160 36 234 496 406 351 49 71 429 107 
20 11 215 308 178 272 375 437 220 3 90 109 299 
21 11 16 470 32 463 211 99 521 5 181 182 100 
22 11 95 28 479 446 27 413 152 316 217 520 221 
23 10 336 311 166 481 384 138 237 296 419 409 
24 11 122 121 517 366 360 104 390 147 190 518 514 
25 11 306 393 417 264 340 522 174 347 232 262 26 
26 11 344 363 522 347 340 436 306 328 25 191 202 
27 11 217 479 446 95 22 152 221 195 511 28 506 
28 11 22 95 316 479 198 221 446 27 413 520 217 
29 11 456 31 148 327 323 477 362 4 159 309 430 
30 11 291 84 162 187 494 421 428 120 233 250 471 
31 11 456 327 148 430 447 29 161 270 153 323 362 
32 10 99 211 16 21 5 181 182 470 100 185 
33 11 279 113 199 310 424 425 280 401 467 240 130 
34 9 98 452 156 365 63 382 184 404 371 
35 10 320 361 398 96 391 473 512 331 441 416 
36 10 351 71 19 160 131 527 50 49 496 234 
37 11 176 462 297 527 355 50 463 131 364 127 71 
38 11 203 325 165 524 204 149 60 242 141 164 82 
39 11 189 128 165 208 480 524 301 124 149 203 38 
40 11 57 171 453 120 290 471 67 375 445 458 308 
41 11 501 461 458 516 66 334 523 190 233 235 453 
42 10 216 377 435 53 154 368 511 195 79 224 
43 6 136 112 274 352 380 488 
44 7 448 125 206 137 442 132 17 
45 4 196 495 493 422 
46 11 305 516 510 523 408 193 357 235 303 458 461 
47 8 307 175 304 75 358 210 318 227 
48 11 130 362 323 477 4 159 240 259 424 113 270 
49 11 107 19 406 36 351 71 160 131 234 50 496 
50 11 131 297 527 71 351 36 37 462 49 19 103 
51 11 464 399 143 504 298 200 469 466 13 133 153 
52 10 322 372 444 284 140 243 87 486 312 369 
53 11 154 42 377 216 435 79 224 106 368 354 386 
54 11 81 287 389 337 207 330 61 460 64 86 163 
55 11 246 90 356 116 260 396 440 8 437 220 167 
56 10 342 164 324 483 212 343 433 209 82 158 
57 11 40 171 290 67 375 471 308 453 120 445 20 
58 10 455 472 341 146 86 443 142 258 111 68 
59 10 267 315 281 526 62 101 244 73 186 345 
60 11 204 242 451 507 524 38 165 203 321 324 325 
61 11 460 81 330 163 285 54 333 412 229 405 484 
62 10 244 281 300 313 315 519 465 134 59 267 
63 11 365 382 98 371 34 475 297 50 131 359 156 
64 8 207 389 277 383 394 287 337 54 
65 11 197 17 314 223 118 117 266 206 44 125 448 
66 11 334 518 147 233 12 514 248 360 428 390 494 
67 10 375 308 57 171 215 40 20 3 97 290 
68 10 111 142 455 329 263 236 194 492 58 472 
69 11 367 415 89 370 91 387 332 309 374 80 255 
70 11 282 201 155 489 466 13 378 385 85 168 177 
71 11 351 36 527 131 50 19 297 160 462 49 103 
72 11 151 488 192 241 411 502 380 112 352 388 268 
73 9 186 526 450 59 508 519 267 281 110 
74 8 259 4 80 102 255 159 91 144 
75 11 210 307 175 47 304 318 135 358 227 414 434 
76 11 9 497 407 261 114 214 278 93 219 238 105 
77 7 185 182 5 100 228 172 326 
78 11 468 129 387 251 332 370 69 374 289 367 415 
79 11 154 53 217 377 27 42 216 221 479 195 435 
80 11 255 91 102 89 259 144 159 4 74 367 415 
81 11 54 61 460 337 287 389 330 207 163 64 394 
82 8 209 164 325 342 141 203 179 56 
83 8 436 269 363 26 257 344 191 347 
84 11 162 291 30 494 428 187 233 250 12 421 120 
85 10 373 177 70 88 13 168 282 378 489 201 
86 6 258 146 341 58 443 472 
87 11 486 372 444 52 284 143 322 369 464 140 243 
88 9 177 168 373 378 489 85 300 70 254 
89 11 91 367 80 255 415 102 69 144 159 259 4 
90 11 437 396 116 220 178 272 55 432 18 20 246 
91 11 80 89 255 102 367 259 415 144 159 4 69 
92 11 459 419 256 188 427 7 289 294 169 423 317 
93 11 278 214 388 497 9 238 213 503 76 6 487 
94 6 280 474 505 467 33 113 
95 11 479 22 28 27 221 446 217 152 316 413 198 
96 8 398 320 35 361 331 391 416 225 
97 6 499 67 100 350 438 181 
98 9 34 365 452 63 156 382 371 184 404 
99 10 32 211 5 182 181 16 21 185 100 126 
100 5 181 211 99 32 438 
101 8 513 345 491 59 267 110 450 315 
102 10 80 144 255 91 89 259 415 74 4 159 
103 10 127 364 462 521 193 463 470 16 21 303 
104 11 517 366 190 24 122 121 253 360 429 147 41 
105 7 261 114 219 10 76 9 119 
106 11 386 224 283 354 119 509 53 154 10 381 213 
107 11 406 49 19 234 288 253 160 36 353 496 429 
108 11 18 432 392 116 157 239 299 396 230 178 437 
109 11 139 299 3 178 215 392 20 308 108 432 437 
110 10 450 101 73 513 186 59 491 526 345 267 
111 10 68 142 455 329 194 236 263 58 492 472 
112 10 488 136 72 151 380 352 192 241 411 43 
113 11 424 240 33 280 130 48 279 310 474 505 270 
114 10 261 105 219 10 76 119 9 283 509 286 
115 10 153 200 469 298 430 310 270 31 327 425 
116 11 396 437 90 432 18 108 178 299 55 220 272 
117 11 118 197 223 266 15 65 482 314 205 17 426 
118 10 223 266 15 482 319 314 205 117 124 179 
119 11 283 386 106 354 509 10 219 224 238 381 213 
120 11 453 187 40 291 30 471 57 171 290 84 162 
121 11 360 122 147 390 366 518 24 514 66 190 334 
122 11 24 121 360 366 390 147 517 518 514 104 190 
123 8 231 490 302 397 515 248 250 12 
124 11 319 149 189 141 179 301 480 482 39 205 203 
125 7 448 44 206 137 442 132 17 
126 11 172 5 182 185 275 99 32 478 434 21 414 
127 10 364 103 521 470 462 463 16 21 193 211 
128 11 39 480 189 301 208 271 376 165 124 524 149 
129 11 468 251 387 78 289 423 7 415 294 69 188 
130 11 48 240 362 323 477 4 113 424 159 259 474 
131 11 50 297 527 71 351 36 462 37 49 19 160 
132 7 137 442 44 448 125 206 269 
133 11 161 447 504 273 298 31 456 153 200 466 469 
134 3 313 315 62 
135 8 210 75 404 175 307 184 304 47 
136 7 43 112 488 380 352 72 151 
137 8 132 442 44 448 206 125 262 191 
138 11 23 311 166 481 336 237 296 409 384 431 180 
139 11 109 3 299 215 178 392 20 308 350 228 326 
140 10 243 444 52 369 322 372 87 145 486 173 
141 10 179 149 325 203 124 319 82 38 165 189 
142 10 68 111 455 329 58 263 194 236 472 492 
143 10 464 51 399 486 87 492 504 13 466 298 
144 10 102 415 80 91 255 89 74 367 259 4 
145 10 230 157 392 140 243 108 173 239 18 432 
146 7 341 443 258 86 472 58 455 
147 10 390 518 360 514 66 121 334 248 12 515 
148 11 327 31 430 456 270 29 323 447 362 161 48 
149 10 141 203 325 179 124 38 165 189 524 82 
150 11 229 405 484 285 8 167 292 412 246 194 55 
151 11 72 488 192 241 411 502 380 112 352 388 268 
152 10 446 335 506 195 511 217 27 479 22 95 
153 10 115 200 469 298 430 447 31 161 327 148 
154 11 53 42 377 216 435 79 224 106 368 354 386 
155 11 201 70 282 466 489 385 13 273 133 254 504 
156 7 452 184 34 404 98 135 365 
157 11 230 392 108 145 18 239 432 173 299 109 116 
158 10 335 506 252 483 212 152 511 195 433 2 
159 11 4 259 477 362 255 323 48 80 91 74 89 
160 10 19 496 234 36 429 351 303 406 71 410 
161 11 447 133 456 31 273 327 148 430 153 29 298 
162 11 84 30 291 494 428 187 233 250 12 421 120 
163 11 330 194 405 61 229 285 167 111 455 460 8 
164 10 342 56 324 82 209 483 325 343 433 212 
165 11 524 38 204 203 39 60 242 149 325 189 208 
166 11 311 296 336 23 138 384 481 419 431 92 237 
167 11 8 194 405 55 150 236 246 329 229 356 440 
168 9 378 177 88 489 373 70 85 254 385 
169 6 317 395 419 92 256 7 
170 5 403 394 277 207 64 
171 11 290 57 40 375 471 445 67 308 20 272 120 
172 11 126 185 182 478 5 434 77 99 275 32 414 
173 9 239 260 440 356 369 157 18 108 230 
174 6 264 417 232 25 262 343 
175 11 307 75 47 304 210 358 318 414 227 135 434 
176 10 37 355 485 462 463 297 275 527 470 404 
177 9 88 168 378 373 489 85 70 282 201 
178 11 299 437 20 215 396 90 109 116 272 18 139 
179 9 141 149 319 325 124 203 82 38 482 
180 7 138 409 237 481 23 311 166 
181 7 100 211 99 32 16 182 5 
182 9 185 5 99 172 32 77 126 211 100 
183 11 439 407 497 502 498 76 9 93 192 388 411 
184 6 156 452 404 135 34 98 
185 9 182 5 172 77 99 126 32 478 100 
186 9 73 526 450 59 508 519 281 465 267 
187 11 291 30 84 162 494 120 233 428 453 334 12 
188 8 427 289 459 251 129 256 7 92 
189 11 39 480 301 124 128 165 149 524 208 203 141 
190 11 366 41 501 104 121 66 235 360 517 357 410 
191 10 262 347 269 436 26 344 522 363 25 232 
192 11 151 502 72 411 241 488 380 388 183 112 352 
193 10 510 46 408 305 303 523 516 521 357 103 
194 11 329 167 236 8 405 111 68 163 263 142 55 
195 10 511 506 152 335 217 446 27 158 377 216 
196 4 495 45 422 493 
197 10 65 17 314 223 117 118 266 15 206 482 
198 11 316 14 339 28 346 520 22 95 400 413 449 
199 9 401 279 467 33 425 310 113 280 424 
200 10 469 298 153 115 447 430 504 133 161 31 
201 11 155 70 282 489 466 385 13 273 254 378 133 
202 11 218 2 293 252 306 340 328 393 402 522 26 
203 10 325 38 149 141 165 524 179 82 204 164 
204 11 60 242 524 165 38 451 507 203 325 39 321 
205 11 482 15 301 124 319 480 249 266 226 189 118 
206 7 44 448 125 442 137 132 232 
207 9 394 64 389 337 287 277 54 383 81 
208 11 376 39 128 165 524 321 189 507 242 271 204 
209 6 82 164 342 343 56 325 
210 10 75 307 175 47 304 318 135 358 227 414 
211 9 32 181 99 16 100 21 5 521 182 
212 10 433 483 324 56 158 342 506 368 511 164 
213 11 503 238 354 214 278 386 283 106 6 53 154 
214 11 278 238 93 213 503 9 497 354 386 283 119 
215 11 20 308 3 178 375 109 139 272 299 67 437 
216 10 42 435 377 368 53 154 195 511 79 217 
217 11 27 446 479 152 195 95 511 22 221 506 79 
218 11 2 202 293 252 402 328 306 340 393 420 400 
219 11 10 119 283 509 386 114 106 354 224 238 500 
220 11 272 90 437 445 20 246 396 116 178 55 290 
221 11 95 479 295 27 28 22 217 446 11 79 152 
222 2 274 43 
223 10 118 266 15 314 482 319 205 197 179 65 
224 11 106 509 386 283 354 381 119 53 154 10 42 
225 7 416 338 454 11 96 295 398 
226 11 249 265 205 301 480 15 128 482 271 124 189 
227 8 318 508 358 47 307 75 175 210 
228 6 326 438 350 3 77 139 
229 11 285 150 405 484 412 8 167 163 292 194 330 
230 11 157 392 108 145 18 239 432 299 173 109 116 
231 9 490 123 302 397 515 248 250 476 12 
232 6 417 174 262 264 25 191 
233 11 494 334 428 187 12 84 162 291 250 30 66 
234 10 429 496 160 19 406 410 107 36 303 253 
235 10 357 410 408 523 510 303 46 516 305 193 
236 10 329 263 194 440 260 356 167 68 111 8 
237 6 409 481 23 138 336 384 
238 11 213 214 278 354 386 283 503 119 106 9 224 
239 10 173 260 18 356 108 432 440 157 230 116 
240 11 130 113 474 505 48 280 424 362 323 33 477 
241 11 502 192 151 72 380 388 488 411 352 268 93 
242 11 60 204 451 507 524 165 321 38 208 381 500 
243 10 140 444 369 52 322 372 87 145 173 486 
244 8 62 281 300 313 519 315 465 134 
245 11 276 475 353 49 107 288 406 131 19 50 36 
246 11 55 220 90 8 272 437 167 116 396 445 150 
247 11 379 487 11 268 6 454 338 295 503 221 225 
248 11 515 12 250 397 428 302 514 494 334 233 231 
249 11 226 265 205 301 480 128 15 482 189 124 271 
250 11 12 515 248 428 397 494 84 162 233 30 291 
251 11 129 289 468 423 387 7 256 294 78 188 415 
252 11 202 218 2 293 158 393 306 340 402 483 328 
253 11 288 406 107 234 429 104 496 19 353 160 517 
254 9 385 489 418 201 378 155 168 273 70 
255 11 80 91 102 259 89 159 4 144 74 367 415 
256 11 7 294 423 289 251 459 317 92 395 129 188 
257 10 420 400 328 346 449 83 363 402 436 14 
258 6 86 146 341 443 58 472 
259 11 4 159 255 80 477 74 91 362 102 48 323 
260 10 356 440 239 173 18 55 432 108 236 116 
261 8 105 114 219 76 10 9 119 283 
262 8 191 232 347 25 417 174 264 522 
263 8 236 329 492 440 260 68 173 356 
264 7 174 417 232 25 343 393 262 
265 11 249 226 205 271 301 480 128 189 39 15 124 
266 10 15 118 223 482 319 205 124 314 179 141 
267 9 59 315 281 345 62 101 244 313 526 
268 10 487 247 379 454 11 6 338 352 380 388 
269 9 83 191 436 347 262 344 26 363 522 
270 11 430 148 327 424 31 310 323 456 48 362 113 
271 8 128 208 376 39 480 301 189 265 
272 11 220 20 437 90 445 178 308 215 290 375 396 
273 10 418 133 161 309 447 385 155 201 456 31 
274 3 222 43 136 
275 11 485 126 414 172 434 5 355 478 182 185 463 
276 11 245 353 475 49 107 288 406 19 131 253 36 
277 6 383 64 207 394 389 403 
278 11 214 238 93 213 503 497 9 354 386 6 283 
279 11 425 33 199 310 401 113 424 467 280 270 240 
280 9 113 474 94 240 505 33 424 130 199 
281 11 62 244 315 313 59 267 300 519 134 465 526 
282 11 70 155 201 466 13 489 385 85 378 399 504 
283 11 386 119 354 106 224 509 10 238 219 213 53 
284 8 372 322 312 52 87 486 444 140 
285 11 229 484 150 405 412 8 163 167 292 61 330 
286 11 500 321 507 381 10 376 509 451 242 219 224 
287 10 389 54 64 207 337 81 86 258 394 383 
288 11 253 353 107 406 234 49 276 19 245 429 160 
289 11 251 188 7 129 256 423 427 294 459 468 387 
290 11 171 471 445 57 40 375 272 308 20 220 67 
291 11 30 84 162 187 494 428 120 233 421 250 12 
292 10 476 484 421 150 412 229 285 30 162 84 
293 11 2 218 402 202 328 252 400 420 520 306 340 
294 10 7 423 256 251 289 317 395 129 144 387 
295 11 11 221 338 95 28 479 22 27 225 379 247 
296 10 166 311 336 23 431 138 384 349 419 481 
297 11 50 131 527 37 71 462 351 36 176 103 364 
298 10 200 469 153 115 504 133 447 161 51 430 
299 11 109 178 392 108 139 432 18 116 396 437 215 
300 7 244 88 62 168 177 378 313 
301 11 480 189 128 124 39 205 149 249 319 482 165 
302 9 123 231 397 248 490 515 514 250 12 
303 10 357 410 408 510 235 193 496 523 46 429 
304 9 175 47 307 75 210 358 414 434 318 
305 11 46 516 510 523 408 193 458 461 357 235 499 
306 11 340 393 202 25 522 26 218 344 252 363 347 
307 10 175 75 47 210 304 318 358 227 135 414 
308 11 215 375 20 67 3 272 171 178 290 57 109 
309 11 418 370 374 29 69 332 273 367 89 456 161 
310 11 279 425 424 33 270 113 199 401 430 115 148 
311 10 166 336 23 296 384 138 481 419 237 92 
312 5 284 322 372 52 85 
313 6 134 315 62 244 300 281 
314 7 223 17 118 65 266 197 319 
315 7 267 281 313 62 134 59 244 
316 11 198 28 520 346 14 413 22 339 400 95 402 
317 6 395 294 7 256 169 423 
318 9 227 508 47 307 75 175 210 358 304 
319 9 482 124 179 15 141 266 149 205 118 
320 10 35 361 398 96 391 473 512 331 441 416 
321 11 507 286 500 376 242 451 208 381 60 204 524 
322 9 372 284 52 312 444 87 140 486 243 
323 11 362 477 48 4 130 159 259 29 148 270 327 
324 10 433 212 483 56 342 164 158 368 343 60 
325 10 203 149 38 141 82 179 165 164 524 209 
326 4 438 228 350 3 
327 11 148 31 430 456 270 29 447 323 161 362 477 
328 11 420 293 402 2 218 400 202 340 363 26 344 
329 10 236 194 263 68 111 142 440 167 260 356 
330 11 163 61 460 194 455 54 405 81 111 142 285 
331 7 96 391 457 398 35 320 361 
332 9 374 370 69 309 418 78 367 387 468 
333 8 412 460 61 285 484 229 292 150 
334 11 66 233 12 428 494 518 248 250 84 187 515 
335 10 506 152 158 195 511 446 413 22 27 217 
336 10 23 311 384 166 419 481 296 138 237 92 
337 10 207 389 394 54 81 287 64 277 460 61 
338 8 225 11 454 295 416 379 247 221 
339 11 14 198 449 316 346 400 28 520 416 257 361 
340 11 306 522 26 344 363 347 25 202 328 393 218 
341 7 146 472 443 58 86 258 455 
342 10 56 164 324 209 483 343 82 212 433 325 
343 8 56 393 264 342 174 209 417 164 
344 11 26 363 522 347 340 436 306 328 25 191 202 
345 6 491 513 101 267 59 315 
346 11 400 402 520 14 316 420 198 257 339 449 328 
347 11 344 26 522 363 191 436 340 25 262 306 232 
348 7 349 431 296 166 138 311 23 
349 8 348 431 296 166 138 311 23 336 
350 5 438 326 228 3 139 
351 10 71 36 527 131 50 19 160 297 462 49 
352 9 380 268 241 454 151 487 488 72 112 
353 11 288 276 245 107 253 406 49 475 19 234 160 
354 11 386 283 106 119 224 238 213 509 53 154 10 
355 11 485 176 463 275 37 470 126 21 462 16 32 
356 11 260 440 239 55 18 173 432 116 108 396 236 
357 10 235 408 410 523 510 303 46 516 305 193 
358 6 47 304 307 175 227 318 
359 11 371 63 475 365 245 382 276 98 34 49 131 
360 10 147 390 121 518 514 122 66 334 366 24 
361 11 320 35 398 96 473 416 391 331 512 339 449 
362 11 323 477 48 4 130 159 259 29 240 148 270 
363 11 26 344 522 347 340 436 328 306 191 420 25 
364 10 127 103 462 463 470 521 16 21 193 211 
365 11 63 382 98 34 371 297 50 475 156 131 359 
366 11 190 121 104 122 517 360 24 147 518 66 390 
367 11 89 69 91 415 80 255 102 144 159 259 309 
368 10 435 216 42 377 511 195 433 53 154 212 
369 8 243 444 140 173 492 87 486 52 
370 10 332 374 69 309 367 418 78 387 89 415 
371 11 359 63 365 98 382 475 34 245 276 452 156 
372 9 284 322 52 312 87 486 444 140 243 
373 8 88 177 85 168 378 489 70 282 
374 9 332 370 309 418 69 78 367 254 387 
375 11 308 67 20 171 215 57 290 272 40 445 3 
376 9 208 321 286 507 500 128 271 39 242 
377 10 42 216 435 53 154 368 195 511 79 217 
378 10 168 177 489 88 70 373 254 385 201 85 
379 10 247 11 487 268 454 338 6 295 225 221 
380 11 352 241 151 72 488 268 192 112 502 388 487 
381 11 509 500 224 451 106 286 10 507 321 119 283 
382 11 63 365 297 98 50 131 34 475 37 527 176 
383 5 277 64 258 389 467 
384 8 419 336 23 92 311 169 459 166 
385 10 254 489 201 418 155 273 70 378 282 168 
386 11 283 354 106 119 224 509 238 213 10 53 219 
387 11 468 129 251 78 415 69 367 423 144 89 289 
388 11 93 502 241 278 487 214 497 268 6 192 9 
389 10 287 207 64 337 54 394 81 277 383 86 
390 10 147 360 514 518 121 66 248 122 302 515 
391 9 35 331 96 320 441 398 512 361 457 
392 11 230 157 108 299 18 432 109 139 145 178 116 
393 11 306 25 202 340 252 343 218 264 522 417 174 
394 10 207 64 337 389 277 287 170 403 54 383 
395 6 317 294 7 169 256 423 
396 11 116 437 90 432 18 178 108 299 220 55 272 
397 10 515 248 250 302 231 123 490 12 428 476 
398 9 96 361 320 35 331 416 391 473 225 
399 11 51 464 466 504 13 143 282 133 155 298 70 
400 11 346 402 420 520 328 293 2 257 316 413 14 
401 8 199 279 425 467 33 310 113 280 
402 11 293 400 2 520 218 328 420 346 413 202 252 
403 6 170 277 394 64 207 383 
404 8 184 135 156 176 485 355 37 275 
405 11 150 229 8 167 285 194 484 163 246 330 412 
406 11 107 234 19 160 49 253 429 496 288 36 351 
407 11 76 439 183 9 497 261 105 114 93 214 278 
408 10 510 523 357 46 235 516 303 305 193 410 
409 5 237 481 23 138 336 
410 10 357 235 303 408 429 496 510 523 46 516 
411 11 192 72 151 488 502 241 183 380 439 388 112 
412 10 484 285 229 333 150 292 405 61 460 476 
413 11 520 22 316 402 335 2 400 446 152 293 28 
414 10 434 275 478 172 126 485 5 185 304 182 
415 10 89 144 367 91 69 102 80 255 387 468 
416 8 225 398 96 338 361 320 339 35 
417 6 174 264 232 25 262 393 
418 10 273 309 374 385 332 254 370 161 29 69 
419 8 92 384 169 459 256 317 395 7 
420 11 328 400 257 402 346 293 2 218 363 520 26 
421 11 30 162 291 476 84 292 471 187 445 494 120 
422 2 196 45 
423 10 7 294 256 251 289 129 387 468 144 317 
424 11 113 270 310 33 130 240 48 279 323 362 280 
425 9 279 310 401 199 33 424 113 467 270 
426 11 117 197 65 118 223 17 266 15 314 205 482 
427 8 188 289 459 251 92 256 129 7 
428 11 494 12 84 162 233 250 291 30 187 248 515 
429 10 496 234 410 160 235 19 303 357 406 408 
430 11 148 327 31 270 456 447 153 29 161 310 323 
431 10 349 348 296 166 138 311 23 336 384 481 
432 11 18 108 116 396 239 299 392 437 90 157 178 
433 10 212 324 483 56 158 368 342 164 506 511 
434 9 414 478 172 275 126 185 5 182 485 
435 10 216 42 377 368 53 154 511 195 79 217 
436 11 363 344 26 347 83 522 191 269 340 328 257 
437 11 90 396 116 178 220 272 20 299 432 18 108 
438 4 326 350 228 3 
439 11 183 407 498 497 76 502 411 9 192 93 388 
440 10 260 356 239 173 236 55 263 18 432 108 
441 6 512 473 391 35 320 361 
442 8 137 132 206 262 44 191 232 448 
443 8 146 341 472 258 58 86 401 425 
444 9 140 243 52 369 87 322 372 486 284 
445 11 290 471 171 272 220 20 375 57 308 40 90 
446 11 152 27 479 217 22 95 195 335 506 511 413 
447 11 161 31 456 133 327 430 148 153 273 298 29 
448 7 125 44 206 137 442 132 17 
449 10 14 339 346 257 198 400 316 420 473 361 
450 9 73 110 186 101 526 59 267 513 281 
451 11 242 507 60 204 381 321 500 524 286 165 38 
452 8 156 34 184 98 404 365 63 382 
453 11 120 40 458 461 57 187 171 290 291 471 30 
454 8 338 379 268 225 247 11 487 295 
455 11 58 142 111 68 472 341 146 86 330 163 443 
456 11 31 327 148 430 447 29 161 270 323 153 362 
457 5 331 391 96 35 398 
458 11 461 453 40 305 516 120 501 41 46 57 523 
459 10 92 188 427 256 289 7 251 294 423 419 
460 11 61 81 330 333 163 54 285 412 229 405 484 
461 11 458 453 501 41 516 120 40 305 46 187 57 
462 11 37 527 364 103 127 463 71 297 355 351 176 
463 11 470 21 16 32 355 364 99 127 211 5 521 
464 10 143 51 399 486 87 504 13 466 298 469 
465 6 519 244 62 373 300 88 
466 11 13 282 155 70 201 399 504 133 489 51 273 
467 8 199 401 33 279 94 280 425 113 
468 11 129 387 251 78 69 289 415 423 7 367 294 
469 10 200 298 153 115 447 504 133 161 430 51 
470 11 21 16 463 32 211 99 521 364 5 127 181 
471 11 290 445 171 40 57 120 272 220 375 421 20 
472 9 341 58 146 443 455 86 258 142 68 
473 9 512 441 35 320 361 398 449 391 96 
474 7 505 240 280 130 113 94 48 
475 11 245 276 49 131 50 107 353 382 63 297 71 
476 10 292 421 162 250 30 84 397 428 490 291 
477 11 362 4 159 323 48 259 130 29 255 80 74 
478 8 172 434 185 126 182 77 414 5 
479 11 95 27 22 446 217 28 221 152 195 335 413 
480 11 301 189 128 39 124 205 149 208 249 165 319 
481 7 237 409 23 336 138 384 311 
482 11 15 319 266 205 124 118 223 179 141 301 480 
483 10 212 433 324 56 158 342 252 164 506 335 
484 11 229 150 285 412 292 405 476 8 167 333 421 
485 10 275 355 126 414 176 434 463 172 5 470 
486 10 87 372 143 284 444 52 322 464 369 140 
487 11 247 268 379 6 11 454 388 503 338 295 93 
488 11 72 151 192 411 112 241 380 502 352 388 136 
489 11 378 70 201 168 155 282 385 254 177 88 85 
490 9 231 123 397 302 515 248 250 476 12 
491 5 513 345 101 267 59 
492 8 263 369 68 143 111 236 329 142 
493 3 45 196 495 
494 11 428 84 162 233 291 187 12 30 250 334 248 
495 4 196 170 45 394 
496 10 429 160 234 410 19 303 357 235 36 406 
497 11 9 76 93 214 278 238 388 213 407 354 119 
498 8 439 183 411 407 192 502 72 151 
499 6 97 100 181 67 521 350 
500 11 286 321 381 507 509 451 10 242 224 376 60 
501 11 41 461 458 516 523 46 235 305 453 66 334 
502 11 241 192 388 151 72 411 488 93 380 183 439 
503 11 213 6 238 278 214 79 354 53 154 386 106 
504 11 133 399 298 466 51 469 161 200 447 153 155 
505 7 474 240 280 130 113 48 94 
506 10 335 152 195 511 158 446 217 27 413 22 
507 11 242 451 321 60 204 500 524 286 381 165 376 
508 7 227 318 358 186 47 73 307 
509 11 224 10 106 119 283 381 386 354 219 500 286 
510 10 408 46 523 357 516 193 305 235 303 410 
511 10 195 506 152 335 217 446 27 158 368 377 
512 6 441 473 35 391 320 361 
513 7 491 345 101 267 59 110 315 
514 10 147 390 518 248 360 302 515 66 12 334 
515 11 248 12 250 397 428 302 494 231 514 123 162 
516 11 46 523 305 510 408 357 235 458 461 501 193 
517 11 104 366 24 122 190 121 360 253 147 390 518 
518 11 147 66 514 390 360 334 12 248 121 515 233 
519 7 465 244 62 281 300 526 88 
520 11 413 402 316 400 346 2 293 22 198 28 218 
521 10 16 211 21 127 181 470 32 364 193 103 
522 11 26 344 363 340 347 306 25 436 328 191 202 
523 11 408 46 510 516 357 235 305 193 410 303 501 
524 11 165 204 38 60 242 203 39 507 325 208 149 
525 6 333 460 61 81 337 54 
526 10 186 73 59 519 281 465 62 244 267 450 
527 11 50 131 297 71 351 462 37 36 103 364 127 
DEPOT_SECTION
   1
   -1
EOF
