NAME :  X-n783-kX-w156-c11.cctp
COMMENT : 	Adapted by Maziero, Usberti and Cavellucci from the Uchoa, Pecin, Pessoa, Poggi, Subramanian, and Vidal (2013)
TYPE :  CCTP
DIMENSION :    727
EDGE_WEIGHT_TYPE : 	EUC_2D	
CAPACITY : 	832
VERTICES_WITHIN_COVERAGE :  11
VERTICES_WITH_DEMAND : 	156
NODE_COORD_SECTION
1 909 919
2 878 721
3 969 85
4 591 195
5 955 148
6 587 903
7 994 792
8 625 129
9 544 703
10 461 167
11 37 644
12 615 22
13 773 788
14 384 364
15 51 291
16 109 732
17 570 124
18 692 985
19 62 150
20 358 5
21 188 450
22 674 658
23 676 904
24 815 984
25 710 16
26 74 658
27 576 1000
28 636 695
29 547 92
30 587 397
31 26 150
32 182 561
33 938 462
34 362 928
35 366 835
36 516 892
37 448 923
38 501 445
39 513 799
40 905 388
41 474 791
42 560 782
43 465 552
44 315 645
45 738 396
46 45 915
47 797 871
48 922 643
49 793 586
50 921 458
51 160 295
52 598 257
53 516 221
54 99 169
55 788 634
56 425 751
57 616 680
58 949 444
59 987 459
60 182 279
61 127 354
62 791 822
63 645 609
64 857 386
65 917 154
66 398 480
67 729 688
68 134 510
69 172 2
70 499 737
71 780 565
72 908 477
73 917 341
74 272 553
75 421 876
76 770 2
77 497 623
78 853 27
79 853 521
80 519 196
81 90 822
82 827 901
83 350 168
84 656 56
85 199 924
86 732 55
87 772 748
88 884 973
89 158 430
90 563 13
91 50 959
92 609 223
93 628 860
94 264 436
95 699 764
96 441 479
97 95 246
98 236 627
99 307 893
100 695 302
101 378 639
102 830 30
103 44 339
104 885 644
105 122 603
106 850 732
107 155 865
108 230 346
109 300 719
110 55 954
111 467 494
112 153 641
113 713 82
114 659 564
115 881 18
116 781 654
117 490 806
118 823 569
119 878 496
120 441 898
121 589 516
122 165 614
123 17 749
124 164 778
125 296 858
126 258 488
127 437 866
128 187 88
129 725 988
130 125 619
131 352 701
132 447 517
133 316 80
134 743 575
135 555 373
136 84 140
137 341 827
138 541 567
139 919 768
140 945 924
141 397 932
142 905 944
143 892 37
144 74 227
145 911 617
146 668 697
147 1 96
148 223 299
149 637 118
150 622 958
151 356 127
152 347 777
153 157 190
154 8 497
155 138 78
156 100 192
157 384 598
158 23 228
159 110 163
160 345 464
161 53 628
162 316 705
163 112 361
164 642 405
165 235 578
166 489 621
167 563 916
168 597 310
169 960 837
170 164 988
171 37 513
172 648 247
173 375 402
174 531 205
175 935 676
176 103 549
177 964 651
178 233 241
179 891 112
180 378 472
181 457 893
182 852 861
183 113 701
184 340 913
185 662 198
186 667 718
187 140 332
188 809 908
189 968 908
190 163 857
191 333 418
192 59 136
193 529 215
194 385 380
195 319 417
196 318 216
197 156 119
198 528 320
199 138 787
200 473 713
201 537 114
202 168 838
203 774 825
204 32 510
205 216 372
206 16 935
207 60 733
208 500 37
209 343 363
210 205 398
211 708 298
212 840 359
213 112 603
214 865 775
215 259 348
216 893 516
217 814 607
218 605 162
219 359 199
220 16 739
221 482 214
222 70 526
223 528 103
224 572 770
225 802 517
226 876 469
227 118 571
228 952 781
229 823 795
230 522 595
231 52 336
232 255 413
233 410 194
234 956 21
235 717 142
236 766 880
237 524 825
238 657 640
239 189 232
240 920 809
241 688 98
242 660 781
243 236 735
244 784 692
245 743 446
246 201 32
247 188 957
248 381 605
249 380 904
250 227 263
251 69 94
252 123 416
253 341 341
254 450 482
255 251 533
256 352 591
257 724 967
258 753 539
259 684 924
260 617 989
261 455 500
262 472 926
263 395 683
264 167 357
265 789 678
266 897 272
267 991 492
268 457 837
269 809 754
270 770 852
271 153 799
272 643 455
273 924 995
274 788 75
275 147 318
276 85 634
277 373 184
278 99 998
279 312 527
280 846 684
281 725 123
282 806 813
283 566 172
284 191 307
285 373 125
286 906 762
287 91 96
288 40 521
289 579 597
290 907 73
291 718 33
292 279 156
293 114 156
294 220 648
295 948 992
296 969 895
297 986 791
298 78 292
299 559 896
300 791 579
301 228 922
302 856 201
303 155 8
304 243 347
305 48 593
306 954 72
307 549 308
308 401 200
309 2 686
310 301 649
311 467 112
312 810 8
313 984 28
314 918 370
315 89 382
316 586 337
317 151 693
318 550 217
319 606 719
320 178 588
321 434 358
322 136 341
323 544 174
324 504 41
325 282 685
326 39 476
327 104 90
328 460 557
329 86 722
330 694 749
331 707 652
332 774 72
333 922 819
334 735 359
335 707 226
336 102 861
337 358 730
338 462 414
339 49 853
340 750 829
341 224 328
342 581 819
343 49 715
344 84 563
345 305 734
346 917 652
347 530 838
348 403 43
349 681 779
350 393 11
351 208 154
352 646 369
353 37 206
354 122 294
355 451 649
356 993 339
357 604 580
358 274 509
359 289 185
360 728 595
361 952 690
362 989 745
363 958 560
364 966 296
365 104 963
366 478 854
367 394 459
368 147 617
369 39 967
370 537 957
371 740 958
372 544 247
373 186 913
374 38 939
375 839 23
376 754 893
377 930 149
378 430 951
379 739 15
380 202 774
381 104 669
382 241 910
383 189 181
384 645 128
385 500 603
386 577 997
387 146 161
388 662 708
389 360 721
390 622 159
391 264 483
392 166 281
393 881 938
394 137 613
395 897 132
396 710 807
397 965 334
398 127 729
399 918 559
400 522 569
401 202 666
402 127 378
403 156 913
404 306 328
405 97 971
406 747 419
407 838 961
408 391 886
409 484 126
410 828 28
411 954 279
412 930 285
413 750 567
414 921 125
415 654 832
416 440 878
417 720 914
418 606 394
419 372 600
420 869 892
421 274 961
422 471 928
423 511 594
424 867 996
425 417 918
426 554 923
427 920 808
428 254 941
429 389 203
430 222 972
431 741 70
432 101 132
433 110 652
434 533 564
435 891 336
436 661 893
437 15 879
438 527 56
439 481 860
440 709 388
441 105 381
442 210 937
443 550 23
444 603 51
445 582 48
446 415 206
447 591 850
448 776 80
449 354 660
450 301 884
451 50 500
452 240 938
453 530 386
454 859 502
455 826 779
456 86 854
457 923 289
458 403 612
459 771 629
460 983 321
461 550 820
462 80 276
463 189 636
464 676 601
465 129 319
466 363 577
467 340 524
468 490 220
469 584 523
470 553 110
471 935 660
472 830 469
473 539 52
474 278 487
475 637 548
476 674 905
477 823 923
478 999 837
479 565 337
480 82 851
481 969 38
482 693 895
483 710 695
484 390 537
485 837 407
486 220 391
487 618 221
488 180 686
489 959 960
490 934 765
491 951 543
492 752 859
493 402 222
494 487 708
495 434 776
496 129 119
497 153 438
498 564 929
499 541 777
500 290 772
501 202 468
502 432 949
503 117 642
504 413 752
505 719 52
506 543 161
507 963 277
508 112 459
509 301 817
510 80 48
511 300 770
512 622 470
513 148 130
514 70 782
515 488 540
516 814 887
517 84 21
518 679 989
519 159 535
520 180 610
521 155 207
522 424 341
523 829 839
524 828 485
525 579 290
526 621 918
527 92 563
528 609 789
529 233 130
530 184 475
531 182 513
532 601 785
533 482 409
534 587 627
535 396 611
536 653 648
537 552 862
538 804 553
539 12 198
540 887 275
541 183 925
542 242 857
543 749 551
544 651 13
545 373 643
546 731 963
547 219 275
548 568 499
549 714 734
550 617 325
551 560 470
552 837 631
553 4 304
554 79 917
555 355 877
556 735 76
557 745 354
558 621 723
559 145 377
560 119 768
561 638 271
562 574 247
563 924 493
564 924 402
565 91 336
566 599 6
567 635 887
568 660 944
569 716 219
570 186 35
571 679 861
572 919 121
573 822 482
574 151 384
575 407 860
576 869 930
577 928 75
578 139 615
579 625 969
580 252 842
581 123 311
582 404 744
583 216 14
584 906 567
585 15 55
586 719 567
587 948 717
588 614 496
589 564 906
590 179 656
591 207 724
592 355 609
593 344 833
594 726 657
595 971 896
596 958 954
597 351 186
598 39 94
599 18 167
600 396 368
601 416 570
602 653 463
603 792 716
604 649 420
605 332 103
606 561 229
607 144 320
608 971 672
609 44 186
610 924 415
611 267 418
612 782 427
613 715 867
614 306 493
615 853 704
616 293 285
617 468 127
618 464 700
619 692 310
620 610 428
621 257 608
622 980 789
623 25 7
624 918 803
625 740 837
626 762 527
627 50 710
628 978 624
629 775 736
630 551 199
631 416 970
632 630 871
633 926 116
634 293 786
635 959 178
636 244 56
637 28 579
638 342 15
639 267 887
640 339 737
641 219 933
642 750 110
643 533 943
644 116 72
645 556 836
646 421 584
647 777 841
648 664 334
649 340 957
650 138 690
651 185 939
652 895 564
653 384 127
654 221 151
655 164 405
656 788 509
657 171 394
658 33 379
659 987 917
660 892 692
661 267 798
662 881 293
663 1 227
664 935 348
665 527 995
666 487 506
667 395 580
668 405 978
669 557 620
670 966 509
671 571 996
672 57 410
673 214 405
674 734 399
675 69 747
676 589 624
677 272 760
678 936 678
679 84 652
680 525 364
681 908 779
682 600 19
683 548 288
684 33 90
685 717 960
686 360 458
687 204 29
688 799 441
689 602 46
690 372 106
691 707 678
692 884 598
693 401 345
694 889 818
695 288 295
696 453 130
697 587 936
698 169 316
699 271 407
700 428 772
701 461 415
702 926 968
703 61 305
704 435 146
705 653 395
706 637 547
707 620 2
708 973 397
709 58 455
710 561 40
711 147 381
712 452 610
713 963 618
714 948 761
715 850 189
716 785 845
717 65 388
718 900 613
719 668 101
720 445 170
721 660 387
722 57 176
723 373 307
724 365 297
725 117 1000
726 765 916
727 387 877
DEMAND_SECTION
2 85
3 34
4 47
5 49
6 75
7 87
8 13
9 92
10 85
11 3
12 18
13 87
14 96
15 72
16 38
17 5
18 59
19 75
20 81
21 68
22 99
23 66
24 67
25 33
26 30
27 73
28 61
29 18
30 37
31 81
32 36
33 17
34 31
35 25
36 85
37 12
38 44
39 60
40 5
41 23
42 58
43 29
44 9
45 13
46 1
47 100
48 88
49 53
50 30
51 66
52 47
53 35
54 55
55 83
56 20
57 84
58 36
59 50
60 76
61 70
62 80
63 79
64 44
65 26
66 60
67 80
68 40
69 60
70 46
71 62
72 50
73 32
74 18
75 3
76 16
77 30
78 4
79 68
80 6
81 34
82 93
83 58
84 10
85 45
86 27
87 90
88 77
89 98
90 40
91 41
92 30
93 58
94 63
95 78
96 67
97 51
98 32
99 25
100 26
101 25
102 25
103 67
104 99
105 41
106 66
107 47
108 86
109 18
110 19
111 85
112 23
113 14
114 79
115 48
116 93
117 9
118 80
119 34
120 19
121 79
122 21
123 20
124 44
125 24
126 60
127 14
128 87
129 88
130 23
131 29
132 12
133 61
134 90
135 12
136 84
137 20
138 85
139 68
140 60
141 21
142 53
143 29
144 67
145 84
146 86
147 86
148 60
149 2
150 64
151 77
152 10
153 85
154 81
155 92
156 93
157 12
COVERAGE_SECTION
2 11 106 615 660 280 286 214 139 681 587 490 678 
3 11 306 577 481 633 313 414 572 290 5 234 377 
4 11 92 283 218 487 630 606 318 390 323 562 506 
5 11 377 635 65 414 633 572 395 3 179 306 577 
6 11 589 167 299 697 498 526 426 567 447 537 632 
7 10 297 622 228 478 362 714 169 490 240 427 
8 11 149 384 390 218 719 17 241 283 4 470 185 
9 11 70 494 319 200 224 499 57 558 618 42 669 
10 11 720 704 696 617 409 221 311 233 446 468 80 
11 11 161 26 679 276 305 309 637 627 343 381 433 
12 11 682 707 566 689 444 544 445 84 90 710 443 
13 11 203 62 87 282 340 229 269 629 647 455 716 
14 10 600 194 693 173 209 522 253 321 723 724 
15 11 703 298 462 231 103 553 565 97 144 158 354 
16 11 398 329 183 560 675 207 650 317 199 343 381 
17 11 470 201 29 506 223 283 218 8 323 390 149 
18 11 518 129 685 257 546 568 371 259 579 150 260 
19 11 192 136 722 31 609 54 432 599 159 293 251 
20 6 638 350 348 133 605 690 
21 11 501 530 89 497 655 673 210 657 531 486 252 
22 11 536 238 331 146 691 388 483 594 28 63 464 
23 11 476 436 482 259 568 571 567 417 613 526 632 
24 11 407 424 477 88 188 576 371 393 82 726 546 
25 11 291 379 505 86 544 76 431 556 113 84 241 
26 11 679 276 381 433 161 11 503 627 183 343 130 
27 11 386 671 260 665 370 579 150 697 643 498 426 
28 11 57 388 146 558 319 186 536 22 238 691 483 
29 10 470 223 201 17 438 473 710 445 324 443 
30 11 418 620 135 164 453 316 479 352 604 705 680 
31 11 599 19 192 609 722 539 353 598 136 147 684 
32 11 320 519 531 520 122 165 227 368 394 578 68 
33 11 50 58 72 563 59 610 670 267 226 564 119 
34 11 184 249 141 649 408 555 425 727 99 668 631 
35 11 593 137 555 727 575 408 152 509 75 249 125 
36 11 299 439 537 426 589 167 366 643 262 347 422 
37 11 262 422 120 181 425 502 378 416 141 75 631 
38 10 533 338 701 111 254 666 551 453 96 261 
39 11 117 237 499 41 347 461 42 645 70 366 224 
40 11 314 564 610 64 73 664 435 708 58 212 485 
41 11 117 39 495 268 700 70 237 56 366 499 439 
42 11 224 499 461 532 342 528 39 645 237 347 117 
43 11 328 515 132 666 601 261 646 111 400 712 385 
44 11 310 449 325 592 545 162 101 256 131 621 419 
45 10 674 406 440 334 557 245 612 688 721 705 
46 11 374 554 206 110 91 437 369 339 456 480 365 
47 11 516 716 236 270 647 188 82 523 492 376 62 
48 11 346 471 145 175 104 718 678 177 713 361 608 
49 11 300 71 217 118 538 413 55 459 134 543 258 
50 11 33 72 58 563 610 226 564 119 216 59 670 
51 11 392 698 275 60 607 284 354 465 581 187 322 
52 11 562 92 525 487 561 606 172 168 372 683 4 
53 11 193 174 80 468 318 221 372 630 606 323 562 
54 11 159 293 156 136 432 19 722 387 192 496 609 
55 11 459 116 217 265 49 552 300 244 594 71 360 
56 11 504 700 582 495 200 41 618 337 389 263 70 
57 11 28 319 558 536 388 146 238 534 22 676 186 
58 11 33 50 610 59 564 72 708 563 267 670 40 
59 11 267 58 33 670 708 50 563 610 72 564 491 
60 11 392 51 284 547 698 148 239 250 275 607 354 
61 11 322 163 402 187 559 711 441 465 574 607 264 
62 11 203 282 647 716 270 13 229 340 523 47 625 
63 11 464 238 536 114 357 22 676 534 475 706 289 
64 11 485 212 40 435 314 564 610 73 688 226 612 
65 11 377 414 395 572 5 633 635 179 715 302 577 
66 11 367 180 96 686 254 160 484 261 132 111 467 
67 11 483 691 594 331 549 244 265 116 146 22 629 
68 11 519 531 176 508 530 227 222 527 32 344 497 
69 11 303 570 246 687 583 155 128 517 636 644 510 
70 11 494 200 618 9 499 41 39 117 56 42 495 
71 11 300 49 538 413 543 258 134 626 118 225 217 
72 11 50 563 226 33 119 216 58 454 610 670 79 
73 11 664 435 314 40 397 457 412 662 564 364 460 
74 11 255 358 165 279 621 126 474 614 391 467 98 
75 11 127 416 575 120 408 727 181 425 249 268 37 
76 11 379 312 291 25 410 86 102 332 505 375 431 
77 11 166 385 423 230 712 355 400 669 434 138 328 
78 10 375 102 410 115 143 312 290 274 76 577 
79 11 454 119 216 524 573 225 118 226 472 538 652 
80 11 174 193 53 630 323 318 468 221 506 283 606 
81 11 480 456 336 514 339 199 560 271 107 675 202 
82 11 188 516 477 47 420 182 576 407 523 726 236 
83 11 597 277 219 151 285 429 653 196 308 359 233 
84 11 544 719 12 241 444 689 113 505 149 707 291 
85 11 541 373 442 651 641 301 247 452 382 403 430 
86 11 505 431 556 291 113 379 25 332 448 642 274 
87 11 629 269 603 13 244 549 455 229 265 282 67 
88 11 424 393 142 702 273 576 407 295 24 489 596 
89 11 497 655 21 252 657 574 711 530 508 559 210 
90 11 443 710 566 682 445 473 689 12 444 438 707 
91 11 110 369 374 206 46 405 554 365 278 725 437 
92 11 487 4 52 562 172 606 561 185 318 218 630 
93 11 632 567 415 447 436 571 526 6 342 476 23 
94 11 611 232 699 391 126 474 195 673 486 210 501 
95 10 330 349 549 242 396 186 388 483 146 87 
96 11 254 261 111 132 66 367 666 180 701 338 38 
97 11 144 462 298 156 354 15 703 353 581 521 158 
98 11 294 621 463 165 401 520 590 310 320 122 325 
99 11 450 125 184 639 555 34 382 593 428 649 137 
100 11 619 211 648 561 334 172 557 335 550 352 569 
101 11 545 449 535 248 458 592 419 157 263 256 667 
102 10 410 375 78 312 115 143 274 76 332 448 
103 10 231 703 658 565 15 553 717 298 315 163 
104 11 346 718 48 145 692 660 552 471 280 175 678 
105 11 213 130 394 578 368 227 503 122 276 112 433 
106 11 615 2 214 269 280 455 660 603 286 229 629 
107 11 190 202 403 336 373 271 541 456 85 480 81 
108 11 304 341 215 205 486 148 284 210 673 264 698 
109 11 345 162 325 640 677 511 500 131 337 389 243 
110 11 91 369 374 46 206 554 405 365 278 725 437 
111 11 261 254 666 96 132 515 43 38 328 66 701 
112 11 368 122 578 590 394 130 463 503 520 433 105 
113 11 556 241 431 505 86 281 642 291 719 235 332 
114 11 475 706 464 63 357 586 238 360 588 536 121 
115 11 143 78 375 102 410 290 312 577 234 481 306 
116 11 55 265 459 244 594 217 552 67 603 49 280 
117 11 41 39 237 268 366 347 439 499 461 495 70 
118 11 538 49 300 217 71 225 79 552 692 656 652 
119 11 454 216 226 79 72 563 524 472 50 573 33 
120 11 181 416 37 75 425 127 262 422 408 575 502 
121 11 469 548 588 551 512 706 475 357 138 434 272 
122 11 520 368 578 394 320 112 463 130 105 590 213 
123 11 220 207 343 627 675 514 309 329 16 81 560 
124 11 271 199 380 560 202 398 591 16 190 243 81 
125 11 450 99 509 639 580 542 593 137 555 661 184 
126 11 391 474 358 255 614 94 501 74 279 611 232 
127 11 416 75 575 120 181 268 366 439 408 727 425 
128 11 197 155 570 513 246 687 529 636 496 351 654 
129 11 257 546 685 18 371 518 417 259 568 726 24 
130 11 394 578 105 213 368 503 112 433 122 276 227 
131 11 389 337 162 640 449 263 109 345 545 44 101 
132 11 261 111 254 96 43 666 328 515 484 66 601 
133 10 605 151 690 638 285 636 653 292 20 83 
134 11 413 360 543 586 258 71 300 49 626 459 538 
135 11 453 680 479 30 316 418 198 307 168 550 620 
136 11 432 19 192 54 293 159 287 722 251 496 156 
137 11 593 35 509 152 555 125 634 727 450 511 99 
138 11 434 400 230 423 289 385 669 515 469 357 121 
139 11 286 490 681 714 228 624 427 240 333 214 694 
140 11 189 596 296 595 489 659 142 702 393 295 273 
141 11 425 249 34 378 502 631 408 668 37 120 727 
142 11 393 702 88 576 140 273 596 489 420 295 424 
143 11 115 290 78 577 375 102 410 234 306 179 481 
144 11 97 353 156 462 158 609 722 54 298 15 539 
145 11 718 48 692 346 104 471 584 713 652 399 177 
146 11 388 186 28 22 483 691 536 558 57 238 330 
147 11 684 598 585 31 251 192 599 19 287 510 623 
148 11 547 341 284 250 60 108 304 698 178 392 215 
149 11 384 8 719 390 218 241 84 17 444 689 113 
150 11 579 260 526 568 697 386 27 671 6 498 518 
151 9 285 690 653 605 83 277 597 133 219 
152 11 640 337 511 137 634 593 389 500 345 35 509 
153 11 521 387 383 239 159 293 156 513 54 351 197 
154 11 204 171 326 288 451 709 222 637 672 344 305 
155 11 644 327 496 197 128 287 513 570 432 510 251 
156 11 54 159 293 144 722 97 136 387 609 19 153 
157 11 248 419 535 667 458 466 592 256 646 101 601 
158 11 663 353 539 609 144 599 722 15 97 462 31 
159 11 293 54 156 432 136 387 496 19 513 153 722 
160 11 686 180 191 367 614 195 66 467 173 279 474 
161 11 11 276 305 26 679 637 433 213 381 503 344 
162 11 109 345 131 325 640 389 337 310 449 44 511 
163 11 61 441 402 315 322 565 559 187 711 465 574 
164 11 705 604 721 352 418 620 272 30 602 512 440 
165 11 621 74 255 98 32 320 520 294 463 122 358 
166 11 77 385 423 712 230 355 400 669 328 434 43 
167 11 589 426 498 299 6 697 643 370 36 537 526 
168 10 550 525 316 479 307 52 683 561 562 198 
169 10 478 333 240 427 622 297 624 7 228 296 
170 11 247 725 651 430 365 278 541 405 442 85 403 
171 11 204 288 451 154 222 326 709 637 344 527 176 
172 11 561 487 92 52 185 335 100 562 569 4 619 
173 11 194 14 600 191 209 195 686 367 693 160 180 
174 11 193 80 630 53 318 323 606 372 468 506 283 
175 11 678 471 361 346 48 608 177 587 660 104 145 
176 11 527 344 227 222 68 213 105 519 288 305 394 
177 11 608 471 628 713 175 678 361 48 346 145 587 
178 9 250 547 239 148 60 383 616 695 284 
179 8 395 572 414 633 290 65 577 377 
180 11 367 66 686 160 96 467 484 173 191 254 614 
181 11 120 416 37 127 262 422 75 439 366 425 268 
182 11 523 420 516 82 47 694 188 282 477 716 576 
183 11 650 16 398 381 329 317 433 679 26 503 207 
184 11 34 99 555 249 649 450 408 727 141 125 425 
185 11 487 172 335 390 569 92 218 4 384 561 8 
186 11 388 146 28 330 558 483 549 95 691 22 319 
187 11 322 607 275 465 61 581 698 264 163 51 354 
188 11 82 477 516 47 726 236 376 407 420 182 576 
189 11 595 296 659 140 596 489 169 142 702 478 295 
190 11 107 202 403 271 336 373 541 199 85 456 124 
191 11 195 173 160 686 209 699 194 611 180 94 367 
192 11 19 136 31 722 432 251 598 287 599 54 609 
193 11 174 53 80 318 630 372 606 468 323 221 562 
194 9 14 600 173 693 209 321 522 253 191 
195 11 191 699 611 160 94 173 686 209 232 194 614 
196 9 359 219 597 83 277 292 429 616 493 
197 11 513 496 387 128 155 293 432 327 644 351 159 
198 7 307 683 479 680 135 525 316 
199 11 271 560 124 81 202 398 16 380 514 190 107 
200 11 494 618 70 56 355 9 504 495 700 582 41 
201 10 223 470 29 17 506 409 438 323 473 283 
202 11 190 107 271 199 124 336 380 403 542 373 81 
203 11 647 62 716 340 270 282 625 13 492 47 236 
204 11 171 288 451 154 326 222 709 637 344 527 176 
205 11 486 210 108 673 304 341 215 657 264 232 655 
206 11 374 46 369 91 110 437 554 339 405 365 278 
207 11 675 343 627 329 220 123 16 514 183 398 560 
208 7 324 438 473 443 710 90 29 
209 11 253 14 194 173 404 600 191 195 693 723 724 
210 11 673 486 205 657 655 232 21 264 574 89 108 
211 9 100 619 648 334 557 335 561 172 569 
212 7 64 485 435 40 662 73 314 
213 11 105 130 394 578 227 368 503 276 527 344 433 
214 11 455 286 681 106 229 694 139 2 269 624 427 
215 11 304 108 341 205 404 486 695 699 148 232 611 
216 11 119 454 563 79 72 652 226 399 584 50 491 
217 11 49 552 300 55 118 459 71 538 116 692 265 
218 11 390 4 8 283 17 384 149 487 92 323 506 
219 11 597 277 429 83 308 196 493 233 446 359 151 
220 11 123 343 207 627 675 309 514 329 16 11 26 
221 10 468 53 80 193 174 10 720 446 318 372 
222 11 288 451 171 176 344 204 527 326 68 227 154 
223 10 201 29 470 17 438 409 473 506 311 617 
224 11 42 499 532 528 342 461 319 39 558 645 9 
225 11 656 538 573 524 626 79 71 258 118 472 454 
226 11 119 72 454 50 472 216 524 563 573 79 33 
227 11 176 527 105 213 344 394 130 578 368 519 320 
228 10 714 490 622 139 297 624 427 7 240 681 
229 11 455 282 62 269 523 214 13 203 716 647 87 
230 11 423 385 400 434 138 77 166 669 289 515 43 
231 11 103 703 565 15 658 298 717 553 315 163 462 
232 11 611 699 94 486 673 210 205 195 215 304 391 
233 10 308 446 429 493 277 720 219 704 10 597 
234 11 481 313 306 577 3 143 290 115 633 78 572 
235 8 281 642 241 113 719 556 384 431 
236 11 376 492 270 47 726 716 647 516 625 188 340 
237 11 347 461 39 645 117 537 499 366 439 42 342 
238 11 536 22 63 464 331 57 146 28 691 388 676 
239 11 521 178 60 250 383 547 153 392 51 148 284 
240 10 427 624 333 681 694 139 228 490 169 286 
241 11 719 113 281 384 556 84 235 149 505 431 86 
242 11 349 95 330 415 528 396 532 186 558 549 388 
243 11 591 677 380 500 109 325 345 661 511 488 634 
244 11 265 603 116 629 67 87 55 280 459 269 594 
245 7 406 612 674 45 688 440 656 
246 11 687 570 583 69 636 303 128 155 644 197 529 
247 11 651 442 541 85 430 170 641 373 301 403 452 
248 11 157 419 535 458 592 667 256 466 101 545 646 
249 11 408 727 34 141 555 425 184 75 575 120 416 
250 10 547 178 148 60 239 284 392 341 695 616 
251 11 287 598 327 684 192 510 136 432 644 19 496 
252 9 497 89 402 441 655 711 574 508 559 
253 11 209 404 723 14 724 194 693 600 173 695 616 
254 11 96 261 111 132 666 66 367 38 701 338 515 
255 11 74 358 126 165 391 474 279 614 531 32 621 
256 11 466 592 419 248 157 667 535 101 458 545 44 
257 11 546 685 371 129 18 518 417 259 726 568 482 
258 10 543 626 413 71 134 586 656 538 225 300 
259 11 476 23 482 568 417 436 685 257 546 567 18 
260 11 579 150 386 27 671 697 518 568 526 18 498 
261 11 111 132 254 96 666 515 43 328 66 38 367 
262 11 422 37 181 120 502 378 36 425 416 643 439 
263 11 545 101 131 449 389 337 582 355 458 504 618 
264 11 559 574 711 322 187 657 61 698 275 607 402 
265 11 244 116 603 55 459 280 629 67 594 552 615 
266 9 540 662 457 412 411 435 507 73 364 
267 11 670 59 33 58 491 563 363 50 72 708 399 
268 11 366 439 127 416 117 41 75 575 181 120 495 
269 11 455 87 629 603 229 106 13 282 214 244 615 
270 11 647 716 492 203 236 340 47 625 62 376 282 
271 11 199 124 202 560 380 190 107 81 398 16 336 
272 10 602 512 604 620 164 588 705 721 418 30 
273 11 295 702 88 489 596 142 424 393 140 576 407 
274 6 448 332 431 642 556 86 
275 11 607 187 465 698 322 581 51 354 61 392 264 
276 11 679 26 433 161 503 381 213 130 105 11 305 
277 11 219 597 429 83 308 233 446 493 653 151 285 
278 11 725 405 365 110 91 170 369 554 374 247 46 
279 11 467 614 358 74 474 255 391 126 160 466 256 
280 11 615 660 106 2 552 104 265 244 603 116 55 
281 8 235 642 113 241 556 431 719 448 
282 11 62 229 203 523 716 455 647 13 270 340 47 
283 11 323 506 630 4 218 17 174 318 80 193 390 
284 11 698 60 51 148 392 341 547 275 607 108 264 
285 7 653 151 690 605 83 277 597 
286 11 139 681 490 714 214 624 427 240 2 228 333 
287 11 327 251 644 432 496 136 510 155 192 598 684 
288 11 171 204 451 222 154 326 637 344 527 709 176 
289 11 676 357 534 669 138 230 434 400 63 423 469 
290 11 577 143 179 306 633 572 414 395 115 3 78 
291 11 25 505 86 379 431 556 113 76 84 332 544 
292 10 359 529 654 351 83 196 605 597 151 133 
293 11 159 54 432 387 136 156 496 513 19 153 197 
294 11 401 98 463 590 621 488 520 122 112 165 325 
295 11 273 702 489 596 142 88 140 424 659 189 393 
296 10 595 189 659 140 169 596 478 489 142 702 
297 10 622 7 228 362 478 714 169 490 240 427 
298 11 462 703 15 354 565 97 581 231 103 465 144 
299 11 589 167 426 6 498 537 36 697 643 447 645 
300 11 49 71 538 118 217 413 134 543 459 55 258 
301 11 641 382 452 442 85 428 373 541 651 430 639 
302 4 715 65 395 540 
303 10 69 570 246 687 583 155 517 644 510 128 
304 11 108 215 341 205 486 148 210 673 284 404 699 
305 11 637 161 344 11 527 276 213 679 26 176 222 
306 11 3 577 481 290 234 633 313 572 414 143 179 
307 9 683 198 479 525 316 168 372 680 135 
308 9 233 429 446 493 277 219 597 720 83 
309 11 627 11 220 343 123 207 26 161 679 329 675 
310 11 44 325 449 162 621 592 98 109 545 131 256 
311 5 617 409 696 704 10 
312 11 410 102 375 76 78 274 379 115 332 448 143 
313 11 481 234 306 3 577 290 143 115 633 572 414 
314 11 40 664 73 564 435 610 397 708 64 212 58 
315 8 441 717 163 402 672 565 61 252 
316 11 479 168 550 307 135 525 30 198 418 683 680 
317 11 650 488 183 398 590 112 381 16 401 433 503 
318 11 606 630 193 174 372 53 80 562 323 4 283 
319 11 558 28 57 388 186 224 9 146 532 528 42 
320 11 520 32 122 368 578 394 463 519 105 165 112 
321 5 522 693 600 14 194 
322 11 187 61 607 465 275 163 581 264 559 402 698 
323 11 506 283 630 80 174 318 193 4 53 17 606 
324 8 208 438 473 443 710 90 223 29 
325 11 109 162 310 44 345 243 131 294 98 449 677 
326 9 451 709 204 154 171 288 222 672 508 
327 11 287 644 251 155 496 432 510 136 513 197 192 
328 11 43 515 132 601 646 712 261 666 385 111 400 
329 11 16 207 675 183 343 627 398 381 560 650 514 
330 11 95 549 349 186 242 388 483 146 396 67 691 
331 11 594 691 22 67 483 238 536 146 464 360 459 
332 7 448 274 431 556 86 642 505 
333 10 240 427 624 694 169 681 228 139 490 286 
334 10 557 45 440 674 406 619 211 100 648 721 
335 9 569 185 172 211 100 561 235 619 487 
336 11 456 480 81 107 339 190 554 202 403 46 271 
337 11 389 640 131 152 582 162 345 109 504 263 56 
338 7 701 533 38 321 96 254 453 
339 11 480 456 437 81 336 46 554 514 374 206 110 
340 10 625 203 270 492 647 716 62 396 13 613 
341 11 108 304 148 284 215 205 547 698 486 264 60 
342 11 645 461 447 532 528 42 224 537 347 237 499 
343 11 627 207 329 675 220 123 309 16 26 183 514 
344 11 527 176 227 222 305 213 105 637 288 130 171 
345 11 109 162 640 511 500 677 337 634 325 131 389 
346 11 48 471 175 678 104 145 718 177 660 361 713 
347 11 237 645 461 537 39 117 342 366 439 36 447 
348 3 350 20 638 
349 10 242 95 330 396 549 415 186 388 528 532 
350 4 348 20 638 690 
351 11 654 383 529 153 387 197 513 128 292 521 239 
352 11 721 705 164 648 418 604 550 30 440 316 620 
353 11 609 158 539 722 663 144 599 31 19 156 97 
354 11 581 465 607 275 51 187 298 392 462 322 565 
355 11 712 166 77 618 458 263 385 535 200 494 646 
356 11 460 397 364 664 708 507 411 73 314 412 457 
357 11 289 475 676 706 63 534 114 469 669 138 121 
358 11 474 126 391 255 614 279 74 467 94 165 501 
359 9 292 196 597 83 219 654 529 178 277 
360 11 134 586 413 543 464 459 71 258 331 594 300 
361 11 678 175 608 587 471 177 346 48 660 362 628 
362 11 714 622 297 7 587 228 490 361 139 608 286 
363 11 491 399 584 670 713 652 628 145 563 267 216 
364 11 507 411 460 397 412 457 356 664 73 266 540 
365 11 405 278 725 110 554 91 170 369 374 403 46 
366 11 439 268 127 181 416 117 36 237 347 120 75 
367 11 66 180 686 160 96 173 254 191 261 484 132 
368 11 578 394 122 130 112 105 520 213 503 320 463 
369 11 91 110 374 206 46 405 554 365 278 725 437 
370 11 643 426 498 665 167 671 697 386 27 589 299 
371 11 546 257 685 129 417 726 18 259 376 518 24 
372 10 606 562 318 193 53 683 174 630 52 525 
373 11 541 85 651 403 442 641 301 247 382 107 452 
374 11 206 91 110 46 369 554 437 405 365 278 339 
375 10 102 410 78 312 115 143 76 274 332 290 
376 11 236 726 492 417 270 613 47 188 647 716 625 
377 11 65 5 414 572 633 395 635 179 577 3 290 
378 11 502 631 37 425 668 141 422 262 120 181 249 
379 11 291 25 76 86 505 431 556 332 312 113 448 
380 11 124 591 243 271 199 661 677 202 560 580 398 
381 11 433 679 503 26 183 276 650 317 130 112 329 
382 11 301 452 641 428 639 442 85 542 373 541 421 
383 11 153 351 521 654 387 239 513 529 197 178 293 
384 11 149 8 719 390 218 241 185 84 235 17 281 
385 11 423 77 166 230 400 712 434 138 669 328 43 
386 11 27 671 260 665 579 370 150 697 498 643 426 
387 11 153 513 293 159 197 496 383 521 54 432 156 
388 11 186 146 28 558 483 22 330 57 691 319 549 
389 11 337 131 640 162 582 263 152 345 109 449 504 
390 11 218 8 384 149 4 185 283 487 17 92 719 
391 11 126 474 358 614 94 255 501 279 611 74 232 
392 11 51 60 698 284 275 607 354 581 465 547 239 
393 11 576 142 88 420 407 702 424 477 82 140 273 
394 11 578 368 130 105 213 122 112 503 520 227 433 
395 9 179 414 572 65 633 377 5 290 577 
396 10 349 625 95 340 242 330 613 415 571 13 
397 11 460 356 664 364 73 411 507 314 412 457 708 
398 11 16 183 560 650 329 317 199 124 675 381 207 
399 11 584 652 491 363 216 692 718 145 563 670 713 
400 11 434 138 230 423 385 515 43 77 166 669 328 
401 11 294 590 488 463 98 112 317 591 520 122 650 
402 11 559 711 441 163 61 574 252 315 322 264 655 
403 11 373 541 651 85 107 247 190 442 641 365 301 
404 10 253 695 616 209 215 304 724 723 108 341 
405 11 365 278 725 110 91 554 369 374 170 46 403 
406 8 674 45 245 612 440 688 334 557 
407 11 24 477 576 424 88 393 188 82 142 420 516 
408 11 727 249 575 75 555 425 141 127 416 34 120 
409 8 617 311 696 10 223 704 201 720 
410 10 102 375 78 312 115 274 76 143 332 448 
411 11 507 364 412 457 460 397 266 540 73 356 664 
412 11 457 411 507 266 364 540 662 73 397 664 435 
413 10 134 543 258 71 586 360 626 300 49 538 
414 11 572 633 395 377 65 179 5 577 290 3 306 
415 10 93 571 632 242 567 349 396 436 528 447 
416 11 127 75 120 181 575 268 366 439 37 425 408 
417 11 482 259 376 23 726 685 476 613 371 546 257 
418 11 30 620 164 352 705 604 721 135 316 479 550 
419 11 248 157 592 256 466 535 667 458 101 545 646 
420 11 182 576 82 393 477 516 188 142 523 47 407 
421 10 428 452 430 301 382 641 649 442 639 99 
422 11 262 37 181 120 502 378 425 36 416 643 439 
423 11 230 385 400 77 166 434 138 669 515 712 43 
424 11 88 407 24 273 393 142 702 576 295 477 489 
425 11 141 37 120 502 378 249 408 75 416 181 727 
426 11 167 498 589 299 643 697 370 6 36 537 526 
427 10 240 624 333 681 694 139 228 490 286 169 
428 10 452 421 301 382 641 442 430 639 85 247 
429 9 308 233 493 277 446 219 597 83 720 
430 10 247 442 452 641 428 301 651 85 421 170 
431 10 556 86 505 113 332 448 642 291 274 281 
432 11 136 293 496 159 54 287 192 327 19 513 251 
433 11 503 381 679 276 26 130 112 394 578 650 183 
434 11 138 400 230 423 385 515 289 669 469 43 77 
435 11 73 314 662 664 40 212 457 64 540 266 412 
436 11 476 23 567 482 571 632 259 93 526 568 613 
437 11 339 46 206 374 480 554 456 110 91 336 369 
438 10 473 324 208 710 443 29 223 90 445 201 
439 11 366 268 181 127 416 36 347 117 120 237 75 
440 11 674 45 334 406 721 557 705 352 245 604 164 
441 8 315 163 402 61 252 559 717 711 
442 11 641 85 301 651 247 452 541 373 430 382 428 
443 11 90 710 473 438 445 324 682 208 566 689 444 
444 11 689 445 12 682 710 566 707 84 90 443 544 
445 11 689 444 710 682 90 443 12 473 566 29 438 
446 9 233 308 493 429 277 720 219 10 704 
447 11 342 93 645 537 632 461 6 299 567 347 589 
448 6 332 274 431 642 556 86 
449 11 545 101 131 44 263 592 310 162 248 389 419 
450 11 99 125 639 184 555 382 542 580 509 593 137 
451 11 171 204 288 326 222 154 709 176 344 508 527 
452 11 428 301 641 382 442 430 421 85 247 651 541 
453 9 680 135 533 30 479 38 198 316 338 
454 11 79 119 524 216 226 573 472 72 225 563 656 
455 11 229 269 214 282 106 13 62 523 87 629 203 
456 11 480 336 81 339 554 107 46 514 437 190 202 
457 11 412 266 411 540 507 662 364 73 435 664 397 
458 11 535 248 157 419 646 667 101 545 601 592 712 
459 11 55 116 49 217 265 594 300 360 134 244 71 
460 11 356 397 364 507 411 664 412 457 73 708 314 
461 11 645 237 347 342 42 537 39 499 447 224 117 
462 11 298 15 97 703 354 144 581 565 465 231 103 
463 11 590 520 122 294 401 112 368 98 320 488 578 
464 11 63 114 238 360 536 586 22 331 475 706 134 
465 11 581 607 187 275 322 354 61 51 698 565 163 
466 11 256 419 157 667 248 592 535 484 458 601 467 
467 11 279 614 484 466 160 180 256 358 686 474 66 
468 11 221 53 80 193 174 10 318 372 630 720 323 
469 11 121 548 588 551 706 475 357 138 434 512 289 
470 11 201 29 17 223 506 438 473 283 323 445 710 
471 11 175 678 346 48 177 361 608 145 713 104 660 
472 10 573 524 688 454 226 119 225 79 656 485 
473 10 438 710 443 324 29 208 445 90 223 470 
474 11 391 126 358 614 279 94 255 74 611 160 467 
475 11 706 114 357 588 121 469 63 464 289 512 586 
476 11 23 436 259 482 568 567 571 417 526 613 632 
477 11 188 82 516 407 576 420 47 726 393 24 182 
478 10 169 7 297 622 296 595 228 189 333 659 
479 10 316 307 135 198 168 680 525 683 550 453 
480 11 456 336 81 339 554 514 437 46 107 190 199 
481 11 313 234 306 3 577 290 143 633 115 572 414 
482 10 23 476 259 436 417 613 571 567 568 376 
483 11 691 67 549 594 146 331 186 388 22 330 95 
484 11 601 667 466 467 646 66 132 157 180 256 419 
485 10 64 212 688 612 472 40 226 573 524 564 
486 11 673 210 205 232 108 657 304 699 611 215 655 
487 11 92 4 172 52 185 562 561 606 218 390 318 
488 11 317 401 590 650 591 463 112 294 398 183 122 
489 11 596 295 702 140 273 659 189 142 595 296 88 
490 11 139 714 228 286 681 624 427 240 587 622 333 
491 11 363 399 670 584 563 652 216 267 713 72 33 
492 10 270 236 625 340 647 376 716 613 203 47 
493 9 446 308 429 233 277 219 597 720 83 
494 11 200 618 70 9 355 56 41 77 495 504 166 
495 11 700 56 504 41 582 117 268 200 70 39 618 
496 11 513 197 432 327 293 155 287 387 159 644 136 
497 11 89 655 21 252 508 530 657 574 501 711 559 
498 11 426 167 589 697 299 643 6 370 526 36 150 
499 11 42 224 39 461 237 70 342 117 532 645 347 
500 11 511 634 677 661 345 509 109 152 640 243 162 
501 11 530 21 531 497 89 126 391 673 94 210 655 
502 11 378 631 37 425 141 668 422 262 120 181 249 
503 11 433 130 381 276 679 394 578 112 105 213 368 
504 11 56 582 700 495 337 389 152 263 41 200 618 
505 11 86 291 431 556 113 25 379 241 332 84 448 
506 11 323 283 630 80 17 174 201 470 193 318 4 
507 11 411 364 412 457 460 397 266 356 540 664 73 
508 8 252 497 89 709 68 451 530 672 
509 11 634 661 125 137 500 593 511 580 152 677 35 
510 10 517 644 251 327 287 598 684 155 585 623 
511 11 500 634 677 345 661 509 152 109 640 162 137 
512 11 272 588 602 620 121 604 548 551 469 164 418 
513 11 197 496 387 293 432 159 155 128 327 153 54 
514 11 675 81 207 560 123 329 16 199 220 343 480 
515 11 43 328 666 400 132 111 434 261 138 423 385 
516 11 82 188 47 477 182 236 523 716 420 270 726 
517 10 510 644 623 303 327 251 287 585 155 598 
518 11 18 129 685 568 257 546 579 260 150 259 371 
519 11 531 32 68 227 320 176 530 527 105 520 122 
520 11 122 320 463 368 112 578 394 590 32 294 130 
521 11 153 239 383 387 156 159 293 54 97 351 392 
522 5 321 693 600 14 194 
523 11 182 282 62 229 716 47 516 647 203 270 455 
524 10 573 472 454 225 79 656 119 226 688 216 
525 10 168 683 307 52 562 316 479 550 372 198 
526 11 567 6 697 150 436 568 632 579 476 23 93 
527 11 344 176 227 222 213 105 305 130 637 288 394 
528 11 532 342 224 42 242 415 447 461 558 499 319 
529 10 654 351 292 128 383 636 197 359 513 387 
530 11 501 21 531 497 89 68 519 655 508 126 673 
531 11 519 530 32 68 501 21 255 320 126 497 165 
532 11 528 224 342 42 242 499 461 558 319 447 645 
533 6 338 701 38 453 680 321 
534 11 676 289 669 357 57 63 536 238 230 138 423 
535 11 458 248 157 419 667 101 646 545 592 601 466 
536 11 238 22 63 57 28 146 464 331 388 691 676 
537 11 645 347 299 447 461 237 589 36 342 6 167 
538 11 118 71 300 49 225 656 626 258 217 543 413 
539 11 353 663 158 599 609 31 722 144 19 192 156 
540 7 266 662 457 412 435 411 73 
541 11 373 651 85 403 442 247 641 301 452 382 430 
542 11 580 639 382 125 661 450 301 509 99 202 190 
543 10 258 413 134 626 71 586 360 300 538 49 
544 11 707 12 84 682 566 25 689 444 291 445 505 
545 11 101 449 592 248 535 419 458 157 263 256 44 
546 11 257 371 685 129 18 417 518 726 259 568 376 
547 11 250 148 60 178 284 239 341 392 51 698 108 
548 11 121 469 551 588 512 138 434 666 620 400 706 
549 11 330 95 483 67 186 349 691 388 146 87 629 
550 11 168 316 648 525 352 479 561 307 418 52 721 
551 11 548 121 469 588 512 38 620 30 666 272 418 
552 11 217 55 104 280 692 116 49 118 459 718 265 
553 11 15 103 703 231 298 663 158 658 462 565 353 
554 11 46 110 374 91 365 405 336 456 369 206 480 
555 11 727 249 408 184 35 593 34 99 137 450 575 
556 11 431 86 113 505 642 332 448 291 281 241 274 
557 9 334 45 674 440 406 211 619 100 612 
558 11 319 28 57 388 186 146 532 528 224 242 330 
559 11 711 574 402 61 264 657 655 163 322 441 187 
560 11 199 16 398 124 271 514 675 329 81 183 207 
561 11 172 52 487 92 168 550 525 100 619 562 648 
562 11 606 52 372 318 92 525 683 487 630 4 193 
563 11 72 33 50 216 670 119 226 58 491 399 454 
564 11 610 40 314 58 708 664 50 73 33 64 435 
565 11 163 231 61 581 465 703 322 298 315 103 441 
566 11 682 707 12 90 689 444 445 710 443 544 84 
567 11 632 436 93 526 476 23 6 571 447 415 482 
568 11 259 150 476 23 579 526 518 436 18 482 685 
569 8 335 185 172 235 211 100 561 619 
570 11 246 687 69 583 303 128 636 155 644 197 327 
571 10 613 436 482 415 23 476 632 93 567 396 
572 11 414 633 395 179 377 65 5 577 290 306 3 
573 10 524 472 225 454 656 688 79 226 119 612 
574 11 711 559 657 402 655 264 61 252 163 322 441 
575 11 75 727 127 408 416 35 120 249 268 555 425 
576 11 393 420 142 407 88 477 82 188 424 702 516 
577 11 290 306 633 3 572 414 143 179 481 234 395 
578 11 394 368 130 105 122 112 213 503 520 320 433 
579 11 150 260 568 697 526 386 27 518 671 18 498 
580 11 542 661 125 639 509 450 382 634 99 500 202 
581 11 465 354 607 275 187 322 51 565 61 698 298 
582 11 504 56 700 495 337 389 263 640 152 131 618 
583 11 687 246 570 69 636 303 128 155 644 529 133 
584 11 652 399 692 718 145 491 363 216 79 119 563 
585 10 684 147 598 623 510 251 517 287 192 31 
586 10 134 360 413 543 258 464 626 114 71 300 
587 11 361 678 175 714 362 490 608 471 139 660 286 
588 11 512 121 469 548 272 602 706 475 551 620 114 
589 11 167 299 426 6 498 697 537 643 36 370 526 
590 11 463 401 112 488 294 122 317 520 368 650 578 
591 11 243 488 380 401 317 124 590 677 294 650 398 
592 11 256 419 248 157 466 101 545 535 458 667 449 
593 11 137 35 555 509 125 152 727 450 575 634 99 
594 11 331 691 67 483 22 459 116 360 55 265 244 
595 10 296 189 659 140 596 169 478 489 142 702 
596 11 489 140 702 295 189 659 273 142 595 296 88 
597 11 219 83 277 429 196 308 151 233 359 493 285 
598 11 684 251 147 585 192 287 31 19 510 136 327 
599 11 31 539 609 722 353 19 192 158 663 136 147 
600 9 14 194 693 321 522 173 209 253 723 
601 11 646 667 484 157 458 328 535 248 43 419 466 
602 9 272 512 604 588 620 164 705 721 121 
603 11 244 629 87 265 269 106 615 116 280 67 455 
604 11 164 705 721 272 620 602 418 352 512 30 440 
605 8 133 151 690 285 653 83 292 597 
606 11 318 562 372 630 193 174 4 52 53 92 80 
607 11 275 187 465 322 581 698 51 354 61 264 392 
608 11 177 361 175 678 471 628 587 713 48 346 362 
609 11 722 353 599 539 19 31 158 144 192 156 54 
610 11 564 40 58 50 314 33 708 72 664 226 64 
611 11 699 232 94 195 486 673 210 391 191 205 215 
612 9 688 406 245 45 674 485 472 573 524 
613 10 482 571 492 625 376 417 340 236 23 476 
614 11 474 279 358 391 467 126 160 686 255 74 94 
615 11 280 106 2 660 603 269 104 265 244 214 552 
616 10 695 404 250 148 215 196 724 178 253 547 
617 6 311 696 409 704 10 720 
618 11 200 494 70 355 56 263 504 582 9 700 495 
619 11 100 211 648 334 561 557 352 550 172 440 721 
620 11 418 30 164 604 272 512 705 602 551 721 588 
621 11 98 165 294 74 310 44 463 255 520 401 320 
622 10 297 7 228 714 362 169 478 490 240 427 
623 10 585 517 510 684 598 147 251 287 644 327 
624 10 427 240 333 681 694 139 228 490 286 714 
625 10 340 492 270 203 647 613 396 716 236 62 
626 10 258 543 656 225 71 413 538 134 586 300 
627 11 343 207 329 675 220 123 309 26 16 183 11 
628 11 713 177 608 471 48 145 175 346 363 678 361 
629 11 87 603 269 244 13 265 549 67 455 106 229 
630 11 318 174 323 193 283 80 606 506 4 53 372 
631 11 668 378 502 141 425 37 34 422 262 249 120 
632 11 93 567 436 447 415 526 571 6 476 23 482 
633 11 572 414 377 395 179 65 577 5 290 306 3 
634 11 500 511 661 509 677 345 152 137 109 640 580 
635 11 5 377 65 414 572 633 395 3 179 507 411 
636 11 687 246 583 570 128 529 133 69 654 605 303 
637 11 305 161 344 288 11 527 171 222 204 276 176 
638 7 20 350 348 133 605 690 636 
639 11 450 382 542 99 125 580 301 428 452 641 421 
640 11 337 389 345 131 162 152 109 511 500 582 634 
641 11 442 301 85 452 382 651 428 541 247 373 430 
642 7 281 556 448 431 332 113 235 
643 11 370 426 498 167 589 665 36 299 697 262 422 
644 11 327 155 287 510 496 251 517 197 432 513 128 
645 11 461 347 537 342 237 447 42 39 299 499 224 
646 11 601 667 458 535 157 712 248 328 419 43 484 
647 11 716 270 203 62 340 492 47 625 282 236 523 
648 11 619 352 100 550 721 211 705 561 440 168 164 
649 10 34 184 141 249 421 668 99 631 555 450 
650 11 317 183 381 398 488 433 16 112 503 590 329 
651 11 541 247 85 442 373 641 403 301 430 170 452 
652 11 584 399 692 216 718 145 79 491 363 119 118 
653 7 285 690 151 83 704 605 277 
654 10 351 529 383 292 128 197 153 359 387 513 
655 11 657 574 89 711 559 497 210 252 402 264 673 
656 9 225 626 573 258 524 538 71 543 472 
657 11 655 574 711 559 210 264 89 673 402 497 486 
658 8 717 672 103 231 315 441 565 703 
659 11 189 595 296 140 596 489 702 478 169 295 142 
660 11 2 615 175 678 280 346 104 471 48 106 361 
661 11 634 500 677 509 511 580 542 125 380 243 345 
662 6 540 266 457 435 412 73 
663 11 158 539 353 609 599 144 722 553 15 31 462 
664 11 73 314 397 435 40 460 564 356 457 364 708 
665 11 370 671 27 386 643 498 426 697 167 422 262 
666 11 111 261 515 132 254 43 96 328 38 400 434 
667 11 157 601 646 248 419 535 466 458 484 256 592 
668 11 631 378 502 141 425 34 649 37 249 422 262 
669 11 534 289 676 230 423 138 385 77 434 357 400 
670 11 267 491 563 363 59 33 72 58 50 399 216 
671 11 27 386 665 260 370 579 697 150 643 498 426 
672 8 717 658 315 709 441 252 326 103 
673 11 210 486 205 232 657 655 21 611 699 94 89 
674 10 45 406 440 334 557 245 612 721 688 705 
675 11 207 329 514 343 627 16 123 220 560 398 183 
676 11 534 289 669 357 63 57 536 238 230 138 434 
677 11 500 511 634 661 345 243 109 509 162 380 640 
678 11 175 471 361 346 608 48 177 587 660 104 145 
679 11 26 276 381 433 503 161 11 130 213 183 105 
680 7 453 135 198 479 307 533 316 
681 11 139 286 624 490 427 240 333 214 694 228 714 
682 11 566 12 707 689 444 445 90 710 443 544 84 
683 9 307 525 198 372 562 479 168 52 606 
684 11 598 147 251 585 192 287 31 510 19 136 327 
685 11 257 546 371 129 18 417 518 259 568 726 23 
686 11 160 180 367 66 191 173 195 614 467 194 96 
687 11 246 570 583 69 636 303 128 155 644 197 529 
688 10 612 472 573 485 524 245 406 656 45 225 
689 11 444 445 12 682 566 710 707 90 84 443 544 
690 6 285 653 151 605 133 83 
691 11 483 67 331 594 22 146 388 549 186 536 238 
692 11 718 145 652 584 104 399 552 48 346 118 217 
693 8 522 600 14 321 194 723 253 724 
694 10 240 333 427 624 681 214 182 139 286 523 
695 10 616 404 215 148 250 304 253 341 547 108 
696 6 617 311 704 409 10 720 
697 11 498 167 6 426 526 589 150 299 579 370 643 
698 11 275 51 284 607 187 392 60 465 264 322 581 
699 11 611 232 94 195 486 673 215 191 205 304 210 
700 11 495 56 504 582 41 117 268 200 70 618 152 
701 7 338 533 38 321 96 254 453 
702 11 273 142 295 489 596 88 140 393 424 576 189 
703 11 15 298 231 462 103 565 553 354 581 97 465 
704 8 696 720 10 617 311 409 233 653 
705 11 721 164 604 352 418 620 440 272 648 30 602 
706 11 475 114 357 588 121 469 63 464 289 512 548 
707 11 12 566 682 544 689 444 90 445 84 710 443 
708 11 564 610 58 314 356 664 59 397 40 33 460 
709 8 326 672 451 508 204 171 154 717 
710 11 443 445 473 90 438 689 444 682 566 29 12 
711 11 559 574 402 657 655 264 61 163 322 252 441 
712 11 166 355 646 77 385 458 328 601 535 43 423 
713 11 628 177 48 471 145 608 346 363 718 175 678 
714 11 490 228 139 286 622 362 587 681 297 624 7 
715 3 302 395 65 
716 11 647 270 203 62 47 492 282 340 236 523 625 
717 8 672 315 658 441 103 163 231 565 
718 11 145 692 104 48 346 584 652 399 471 713 552 
719 11 241 149 384 84 113 8 281 235 505 556 390 
720 11 10 704 696 233 446 617 308 221 409 311 429 
721 11 705 352 164 604 440 648 418 620 272 30 550 
722 11 609 19 353 31 192 599 54 136 156 539 144 
723 8 724 253 693 14 522 209 600 404 
724 7 723 253 693 404 14 209 616 
725 11 278 405 365 170 110 91 247 369 554 651 403 
726 11 376 236 188 417 371 47 516 477 492 546 82 
727 11 408 575 249 555 75 35 127 425 416 141 34 
DEPOT_SECTION
   1
   -1
EOF
