NAME :  X-n733-kX-w146-c9.cctp
COMMENT : 	Adapted by Maziero, Usberti and Cavellucci from the Uchoa, Pecin, Pessoa, Poggi, Subramanian, and Vidal (2013)
TYPE :  CCTP
DIMENSION :    656
EDGE_WEIGHT_TYPE : 	EUC_2D	
CAPACITY : 	25
VERTICES_WITHIN_COVERAGE :  9
VERTICES_WITH_DEMAND : 	146
NODE_COORD_SECTION
1 500 500
2 143 12
3 206 907
4 895 855
5 640 970
6 865 716
7 993 356
8 618 966
9 963 539
10 50 979
11 241 998
12 32 206
13 288 926
14 299 507
15 336 180
16 589 726
17 665 488
18 36 521
19 112 895
20 814 442
21 843 474
22 17 258
23 360 273
24 814 537
25 775 524
26 825 471
27 321 87
28 773 958
29 119 166
30 368 928
31 193 250
32 452 919
33 736 322
34 386 911
35 624 313
36 694 398
37 186 803
38 948 721
39 216 973
40 915 641
41 238 810
42 946 172
43 23 561
44 613 657
45 359 434
46 604 96
47 56 554
48 862 723
49 222 161
50 974 838
51 775 67
52 815 880
53 204 362
54 435 760
55 593 358
56 203 435
57 882 803
58 194 739
59 380 323
60 836 461
61 537 136
62 789 669
63 956 1000
64 98 295
65 656 410
66 580 959
67 594 64
68 459 43
69 425 559
70 262 31
71 522 339
72 960 74
73 237 910
74 353 828
75 420 281
76 721 524
77 185 679
78 703 303
79 923 491
80 444 792
81 567 476
82 987 930
83 113 210
84 907 45
85 383 799
86 209 192
87 34 820
88 464 717
89 837 536
90 202 94
91 177 341
92 551 3
93 835 467
94 128 655
95 988 937
96 179 369
97 487 765
98 975 406
99 365 411
100 440 41
101 607 487
102 57 898
103 161 707
104 0 517
105 210 88
106 524 195
107 682 409
108 608 55
109 16 909
110 846 379
111 183 242
112 586 182
113 948 682
114 324 44
115 380 573
116 339 188
117 629 32
118 589 805
119 934 907
120 848 633
121 890 973
122 98 787
123 964 391
124 171 837
125 261 409
126 637 133
127 541 313
128 946 388
129 479 636
130 818 503
131 188 602
132 887 643
133 981 839
134 585 570
135 383 325
136 288 219
137 407 596
138 707 525
139 56 193
140 523 502
141 102 374
142 282 573
143 90 56
144 538 143
145 614 30
146 237 435
147 823 405
148 363 560
149 192 314
150 826 849
151 604 432
152 292 364
153 131 65
154 990 723
155 944 209
156 68 210
157 564 354
158 865 378
159 646 604
160 362 499
161 313 888
162 49 95
163 797 864
164 93 297
165 439 445
166 74 429
167 76 683
168 152 66
169 796 886
170 716 113
171 693 324
172 263 134
173 893 184
174 549 927
175 976 350
176 692 957
177 227 408
178 323 894
179 169 573
180 106 959
181 982 365
182 292 960
183 552 181
184 505 588
185 119 372
186 506 122
187 160 569
188 208 381
189 530 266
190 947 928
191 857 644
192 990 518
193 178 652
194 305 811
195 834 331
196 577 316
197 607 398
198 471 599
199 111 69
200 149 735
201 38 10
202 841 876
203 870 781
204 806 151
205 789 38
206 238 478
207 182 984
208 272 20
209 231 683
210 142 8
211 611 385
212 950 575
213 823 394
214 676 27
215 823 573
216 850 625
217 923 848
218 552 189
219 468 743
220 522 560
221 756 931
222 55 920
223 47 187
224 136 376
225 838 595
226 833 785
227 367 992
228 938 833
229 856 363
230 184 380
231 751 956
232 831 424
233 927 752
234 711 219
235 479 537
236 288 947
237 175 63
238 111 514
239 603 634
240 90 763
241 557 925
242 3 914
243 682 68
244 269 277
245 360 979
246 958 203
247 854 930
248 59 285
249 697 384
250 999 813
251 332 70
252 399 474
253 8 315
254 102 310
255 913 612
256 429 919
257 567 461
258 995 588
259 969 530
260 173 949
261 440 702
262 141 839
263 641 740
264 361 430
265 365 318
266 621 920
267 337 330
268 50 481
269 347 468
270 387 470
271 642 51
272 486 875
273 568 101
274 95 19
275 463 673
276 864 522
277 792 430
278 607 489
279 541 477
280 830 978
281 859 434
282 485 690
283 944 765
284 990 934
285 186 358
286 494 823
287 563 350
288 396 727
289 272 211
290 104 980
291 625 64
292 58 830
293 190 270
294 989 645
295 179 252
296 437 360
297 93 576
298 521 190
299 607 277
300 949 574
301 713 437
302 282 382
303 113 15
304 459 368
305 858 925
306 235 360
307 916 377
308 817 710
309 213 486
310 350 900
311 262 829
312 109 521
313 960 308
314 207 862
315 282 555
316 970 106
317 75 217
318 88 275
319 249 910
320 622 92
321 794 539
322 190 261
323 912 562
324 239 9
325 232 154
326 53 42
327 951 789
328 26 748
329 222 65
330 170 643
331 889 86
332 986 224
333 473 21
334 937 197
335 399 590
336 983 139
337 225 375
338 44 366
339 344 764
340 882 90
341 720 250
342 570 238
343 514 534
344 868 870
345 291 431
346 871 381
347 71 526
348 24 626
349 464 212
350 617 137
351 869 818
352 219 453
353 871 952
354 647 941
355 354 911
356 787 715
357 703 108
358 715 611
359 217 201
360 778 655
361 636 539
362 231 139
363 896 875
364 149 310
365 490 146
366 30 507
367 629 789
368 170 132
369 862 16
370 965 567
371 358 377
372 585 856
373 296 401
374 247 913
375 247 435
376 728 971
377 821 717
378 127 290
379 552 702
380 889 108
381 59 842
382 354 427
383 811 541
384 646 634
385 200 595
386 65 882
387 190 682
388 892 397
389 911 972
390 924 847
391 175 582
392 120 413
393 251 281
394 496 123
395 868 438
396 252 427
397 489 227
398 176 25
399 824 82
400 281 949
401 594 400
402 551 492
403 587 545
404 10 280
405 412 385
406 118 205
407 397 649
408 240 664
409 48 117
410 677 390
411 13 41
412 698 192
413 253 630
414 19 187
415 266 971
416 976 790
417 298 612
418 87 602
419 670 316
420 761 466
421 237 724
422 91 189
423 229 296
424 980 970
425 663 691
426 581 178
427 16 299
428 1 430
429 972 560
430 93 782
431 298 972
432 556 678
433 624 36
434 488 752
435 37 137
436 409 568
437 104 641
438 32 545
439 881 445
440 477 892
441 48 558
442 528 812
443 316 928
444 46 518
445 288 114
446 160 636
447 267 514
448 829 404
449 59 134
450 223 704
451 956 308
452 368 523
453 987 3
454 170 703
455 938 925
456 742 338
457 116 155
458 456 252
459 451 777
460 973 57
461 225 138
462 85 372
463 567 505
464 518 310
465 917 341
466 776 30
467 529 433
468 955 382
469 62 317
470 102 781
471 584 849
472 471 40
473 966 476
474 524 326
475 20 822
476 209 361
477 896 507
478 470 876
479 711 235
480 450 114
481 324 779
482 104 241
483 57 522
484 923 27
485 712 427
486 470 964
487 54 752
488 693 963
489 311 479
490 271 194
491 964 724
492 176 808
493 384 936
494 371 981
495 846 857
496 945 504
497 791 719
498 509 607
499 95 639
500 751 372
501 75 958
502 270 637
503 62 898
504 994 91
505 80 955
506 744 327
507 162 587
508 458 595
509 372 168
510 330 379
511 66 190
512 197 229
513 413 716
514 184 835
515 151 81
516 591 356
517 616 852
518 35 1
519 996 23
520 845 854
521 850 475
522 693 951
523 880 672
524 495 614
525 936 622
526 544 21
527 289 72
528 906 45
529 412 160
530 769 573
531 709 340
532 268 211
533 640 263
534 604 137
535 305 190
536 305 835
537 66 597
538 566 121
539 867 589
540 990 771
541 413 711
542 580 374
543 729 641
544 409 283
545 67 679
546 386 329
547 249 424
548 528 22
549 55 599
550 476 8
551 255 769
552 537 489
553 296 575
554 578 236
555 503 884
556 489 958
557 262 795
558 191 708
559 978 896
560 394 834
561 645 6
562 106 659
563 156 888
564 962 119
565 955 217
566 674 251
567 615 425
568 733 282
569 151 182
570 613 431
571 586 480
572 160 725
573 154 682
574 90 574
575 935 608
576 760 475
577 749 859
578 177 967
579 297 396
580 269 829
581 550 370
582 397 539
583 389 199
584 498 893
585 226 358
586 504 637
587 966 481
588 364 615
589 597 134
590 12 93
591 139 824
592 246 744
593 391 718
594 192 857
595 70 999
596 91 436
597 375 330
598 90 117
599 295 420
600 140 382
601 390 352
602 945 422
603 160 621
604 645 42
605 379 971
606 951 753
607 350 340
608 4 293
609 17 762
610 710 511
611 610 493
612 242 988
613 214 834
614 13 547
615 164 342
616 659 346
617 809 539
618 930 196
619 974 862
620 11 303
621 643 667
622 409 926
623 584 675
624 137 732
625 442 514
626 626 494
627 719 243
628 14 859
629 790 425
630 160 720
631 501 66
632 789 555
633 893 652
634 995 293
635 855 486
636 586 489
637 604 475
638 153 435
639 76 380
640 728 97
641 186 15
642 175 942
643 232 991
644 408 267
645 798 568
646 104 139
647 540 509
648 611 568
649 540 277
650 544 996
651 829 952
652 146 558
653 276 452
654 370 965
655 72 268
656 555 758
DEMAND_SECTION
2 5
3 3
4 1
5 1
6 5
7 9
8 9
9 3
10 2
11 3
12 4
13 1
14 2
15 4
16 1
17 10
18 9
19 3
20 3
21 3
22 2
23 3
24 1
25 1
26 4
27 5
28 8
29 4
30 7
31 5
32 10
33 3
34 5
35 1
36 10
37 5
38 2
39 1
40 4
41 5
42 4
43 10
44 6
45 4
46 8
47 3
48 6
49 1
50 2
51 2
52 2
53 1
54 7
55 6
56 5
57 4
58 5
59 2
60 3
61 5
62 1
63 5
64 3
65 3
66 10
67 10
68 1
69 5
70 2
71 6
72 3
73 9
74 6
75 9
76 7
77 2
78 9
79 7
80 8
81 3
82 3
83 5
84 10
85 6
86 4
87 9
88 1
89 2
90 6
91 10
92 8
93 6
94 4
95 1
96 8
97 3
98 8
99 7
100 6
101 4
102 1
103 8
104 3
105 9
106 8
107 7
108 10
109 8
110 2
111 10
112 5
113 2
114 4
115 1
116 9
117 1
118 6
119 6
120 8
121 9
122 8
123 7
124 6
125 1
126 10
127 10
128 1
129 9
130 2
131 3
132 10
133 2
134 3
135 1
136 3
137 3
138 2
139 5
140 7
141 2
142 1
143 7
144 4
145 6
146 5
147 1
COVERAGE_SECTION
2 9 210 303 398 641 274 153 168 237 199 
3 9 73 374 319 314 642 594 260 563 39 
4 9 363 217 390 344 351 228 495 520 57 
5 8 8 354 266 488 176 522 66 376 
6 8 48 377 523 308 203 633 191 233 
7 9 181 175 123 468 98 128 313 451 634 
8 9 5 354 66 266 241 176 488 522 174 
9 8 259 429 370 192 212 300 496 323 
10 8 595 501 505 290 180 222 109 242 
11 9 612 643 39 415 207 400 431 182 236 
12 9 414 223 139 156 511 317 22 422 435 
13 9 236 400 443 182 319 374 161 178 431 
14 9 489 447 315 653 269 160 142 206 553 
15 9 116 535 509 583 136 490 289 532 529 
16 9 379 656 623 263 432 44 367 118 621 
17 9 626 610 611 138 101 278 361 637 76 
18 9 444 366 483 438 347 614 104 47 441 
19 8 563 386 503 102 222 262 180 505 
20 9 232 277 60 629 26 93 147 448 21 
21 9 521 93 60 635 26 130 20 281 395 
22 8 404 608 427 620 248 12 655 253 
23 9 265 644 544 59 135 597 75 267 546 
24 9 383 617 321 89 632 130 645 215 25 
25 9 321 632 617 383 24 130 530 645 576 
26 9 93 60 21 521 20 130 635 232 281 
27 9 251 527 114 445 172 70 208 15 509 
28 9 231 221 376 651 280 169 488 522 176 
29 9 457 646 422 569 406 83 598 511 368 
30 9 493 355 34 310 654 622 605 245 443 
31 9 322 111 295 293 512 359 423 86 149 
32 9 256 440 622 478 486 584 556 272 555 
33 9 506 456 531 78 568 171 500 419 249 
34 9 30 493 622 355 310 256 654 605 178 
35 9 299 419 196 616 533 516 55 171 287 
36 9 249 107 410 485 65 301 531 500 616 
37 9 492 514 124 613 591 41 594 262 314 
38 9 491 606 233 113 154 283 540 327 416 
39 8 643 612 11 207 578 260 415 642 
40 8 633 132 525 255 575 523 113 191 
41 7 557 311 613 580 551 37 514 
42 9 334 618 246 155 565 336 173 564 332 
43 9 614 438 441 47 18 444 104 549 483 
44 9 239 621 623 384 425 432 159 16 379 
45 9 264 382 99 269 270 252 371 510 160 
46 9 320 67 273 291 589 108 534 350 538 
47 9 441 438 347 483 43 444 18 574 297 
48 8 6 377 308 523 203 226 233 497 
49 9 325 461 362 86 359 172 490 368 532 
50 9 133 619 250 228 416 390 217 327 559 
51 5 205 466 399 640 170 
52 9 169 163 202 150 495 520 344 305 247 
53 9 476 285 188 585 337 96 230 306 91 
54 9 459 80 219 513 288 88 97 434 541 
55 9 516 542 157 287 211 197 401 196 581 
56 9 352 146 177 375 547 396 638 309 188 
57 9 351 203 226 4 217 390 520 228 495 
58 9 558 572 630 454 200 450 103 421 592 
59 9 135 546 597 265 601 607 267 544 23 
60 9 93 21 26 521 20 635 281 232 395 
61 9 144 538 186 394 183 273 365 218 298 
62 9 360 356 308 497 377 543 120 191 216 
63 9 424 389 95 121 190 284 82 455 119 
64 8 164 254 318 378 655 248 469 364 
65 9 107 410 36 567 570 249 197 211 151 
66 8 8 241 174 650 266 5 354 556 
67 9 108 291 46 145 320 433 273 117 271 
68 9 472 100 333 550 631 480 548 394 526 
69 9 436 582 335 137 115 625 508 235 198 
70 9 208 324 527 329 114 105 641 251 27 
71 9 474 464 127 287 581 157 196 649 542 
72 9 460 316 504 564 84 484 528 519 336 
73 9 374 319 3 13 314 400 236 39 415 
74 7 560 85 536 194 481 339 161 
75 9 544 644 458 135 59 546 23 265 597 
76 9 138 610 25 576 17 530 420 321 632 
77 9 387 193 454 558 573 103 330 450 209 
78 9 171 419 531 568 33 506 456 341 566 
79 9 496 477 587 473 259 9 439 276 635 
80 9 459 54 97 219 286 434 85 560 88 
81 9 257 571 402 636 279 463 552 637 101 
82 9 284 95 559 190 424 455 119 619 63 
83 9 406 422 482 317 29 156 569 511 457 
84 7 528 484 331 340 369 72 380 
85 8 560 74 339 80 481 54 459 288 
86 9 359 49 512 325 111 461 362 569 31 
87 9 475 292 381 628 609 386 430 487 122 
88 9 219 261 282 434 275 513 541 54 97 
89 9 24 383 617 276 130 215 321 645 632 
90 9 105 329 237 368 461 515 362 168 325 
91 9 615 285 96 149 53 476 230 364 188 
92 9 526 548 145 67 550 108 333 433 631 
93 9 60 21 26 521 635 20 130 281 232 
94 9 562 437 446 499 573 330 603 193 167 
95 9 284 82 424 190 559 455 119 63 619 
96 9 230 285 53 91 188 476 615 600 224 
97 9 434 219 459 80 54 88 286 442 656 
98 9 123 468 128 602 181 7 175 307 473 
99 8 264 382 45 371 510 405 269 270 
100 8 68 472 333 550 631 480 548 394 
101 9 278 611 637 626 636 571 81 463 257 
102 9 503 386 222 109 19 242 381 628 505 
103 9 454 630 572 573 200 558 624 77 387 
104 9 366 614 18 438 444 43 483 268 441 
105 9 90 329 237 461 362 368 515 168 172 
106 9 298 218 183 397 144 426 61 365 349 
107 9 36 410 65 249 485 301 616 567 570 
108 9 67 291 433 145 117 271 604 320 46 
109 9 242 222 102 503 628 386 501 10 505 
110 9 158 229 346 213 448 147 232 195 388 
111 9 295 31 512 322 293 359 86 569 423 
112 9 426 183 218 534 589 350 554 342 144 
113 9 38 491 40 294 154 525 633 523 606 
114 9 251 27 527 208 70 445 324 329 172 
115 9 148 335 436 137 582 588 69 452 160 
116 9 15 535 509 583 136 490 289 532 529 
117 9 433 145 604 271 108 561 291 67 214 
118 7 367 471 372 517 656 442 16 
119 9 455 190 559 363 82 217 619 390 95 
120 9 216 191 225 132 539 633 523 215 40 
121 9 389 353 247 305 280 651 455 63 190 
122 9 430 470 240 591 487 292 262 381 624 
123 9 468 128 98 181 602 175 7 307 465 
124 9 514 492 594 262 591 37 613 314 563 
125 9 547 396 375 177 302 146 373 599 345 
126 8 350 534 589 320 46 291 112 357 
127 9 474 464 71 196 649 287 157 189 581 
128 9 468 123 307 98 602 181 175 388 465 
129 9 586 524 198 275 498 508 282 184 261 
130 9 26 24 617 21 89 383 93 635 321 
131 9 385 391 507 603 179 187 446 330 193 
132 9 633 40 191 523 120 255 216 525 539 
133 9 50 619 250 228 416 559 327 390 217 
134 9 403 648 361 220 239 463 159 647 343 
135 9 59 546 597 265 601 607 267 544 23 
136 9 289 532 490 535 116 244 15 393 359 
137 9 335 436 115 69 588 508 407 148 582 
138 9 76 610 17 25 361 576 530 420 358 
139 9 511 223 156 12 317 422 414 83 435 
140 9 647 552 402 279 343 463 81 235 220 
141 9 185 462 639 224 600 392 338 166 596 
142 9 553 315 417 447 413 502 14 148 385 
143 9 199 274 326 153 303 162 598 168 515 
144 9 61 538 186 183 394 218 365 298 273 
145 9 433 117 108 604 271 291 67 561 214 
146 9 375 547 396 352 177 56 125 206 653 
147 9 448 213 232 110 20 629 277 281 158 
148 9 115 452 582 335 436 588 137 160 69 
149 9 91 615 423 364 285 293 53 476 322 
150 9 520 495 202 52 163 344 169 351 226 
151 9 570 567 197 401 637 257 211 571 101 
152 7 302 579 373 510 125 267 599 
153 9 199 168 515 143 237 303 2 210 274 
154 9 491 38 540 606 113 283 416 233 327 
155 7 334 565 246 618 42 332 173 
156 9 317 511 139 223 422 12 83 482 406 
157 9 287 581 542 516 55 196 71 127 474 
158 8 346 229 110 388 448 213 147 307 
159 9 384 648 239 44 621 361 358 134 403 
160 9 452 269 270 252 582 489 148 14 45 
161 9 178 310 443 13 355 536 236 30 319 
162 9 409 590 449 435 598 326 143 411 199 
163 7 169 52 150 202 577 495 520 
164 8 64 254 318 378 248 655 469 364 
165 8 252 270 405 625 264 304 45 99 
166 7 596 392 639 268 462 141 338 
167 5 545 562 499 437 94 
168 9 515 153 237 199 398 2 90 210 641 
169 8 52 163 202 150 577 495 520 221 
170 8 357 640 243 51 126 412 214 320 
171 9 78 531 419 616 33 456 506 568 249 
172 9 362 445 325 461 49 490 527 105 535 
173 4 618 334 42 155 
174 6 241 66 584 555 556 650 
175 9 181 7 468 123 313 451 128 98 465 
176 7 488 522 376 354 5 231 221 
177 9 547 146 396 188 337 125 375 56 352 
178 9 161 310 355 443 13 30 536 236 34 
179 9 187 391 507 652 131 385 603 446 330 
180 5 290 505 501 595 10 
181 9 7 175 123 468 98 128 313 451 307 
182 9 431 236 400 415 13 443 612 11 374 
183 9 218 426 106 298 112 144 61 342 554 
184 9 498 524 220 198 508 586 129 343 235 
185 9 141 224 600 462 392 639 615 96 254 
186 9 394 365 61 144 631 480 538 273 298 
187 9 179 507 652 391 131 385 603 297 446 
188 9 337 53 476 230 585 96 285 177 306 
189 9 649 464 127 342 397 554 474 196 106 
190 9 455 119 82 95 284 559 424 389 619 
191 9 120 216 132 523 633 225 539 40 255 
192 9 259 9 587 429 496 473 370 300 212 
193 9 330 446 77 387 603 573 94 131 454 
194 6 536 481 580 557 311 74 
195 8 229 110 158 346 213 448 147 465 
196 9 127 287 157 516 55 35 299 474 649 
197 9 401 211 567 151 570 542 55 516 65 
198 9 508 524 184 129 498 586 69 235 137 
199 9 153 143 168 515 274 598 303 237 326 
200 9 624 572 630 103 454 58 558 573 240 
201 9 518 326 411 274 143 303 162 590 199 
202 9 495 520 52 344 150 163 169 305 363 
203 7 57 226 351 48 233 6 283 
204 3 399 51 173 
205 3 466 51 399 
206 9 309 352 146 375 447 653 396 56 547 
207 5 578 39 260 642 643 
208 9 70 324 527 114 329 251 27 641 105 
209 6 408 450 387 421 77 558 
210 9 2 303 398 641 274 153 168 237 199 
211 9 197 401 55 542 516 567 570 151 65 
212 7 300 370 429 575 9 323 258 
213 9 147 448 110 232 158 229 629 277 20 
214 8 604 561 243 271 117 433 145 291 
215 9 645 225 383 24 617 632 89 321 539 
216 9 120 191 225 539 132 633 523 215 255 
217 9 390 228 4 363 50 619 133 344 119 
218 9 183 106 298 426 112 144 342 554 61 
219 9 434 88 97 54 459 261 80 282 513 
220 9 343 184 235 498 647 140 524 134 198 
221 7 231 28 376 169 522 176 488 
222 9 102 503 386 109 501 505 242 10 19 
223 9 139 511 12 414 156 317 422 435 449 
224 9 600 185 141 392 96 615 230 462 285 
225 9 215 539 216 120 645 191 89 383 24 
226 5 203 351 57 150 48 
227 9 494 245 605 654 493 30 431 622 182 
228 9 390 217 50 133 327 619 4 416 363 
229 9 158 110 346 195 213 448 388 147 307 
230 9 96 285 188 53 476 91 337 615 600 
231 8 28 221 376 488 522 176 651 280 
232 9 448 147 20 281 213 60 277 395 629 
233 9 283 606 38 327 491 416 203 540 57 
234 8 479 627 412 341 566 568 78 533 
235 9 343 625 220 140 184 69 508 198 647 
236 9 400 182 13 431 415 443 374 319 612 
237 9 168 515 398 90 105 153 329 641 2 
238 9 312 347 483 652 574 297 444 47 268 
239 9 44 384 623 159 621 432 134 648 425 
240 7 430 470 122 487 624 200 328 
241 6 174 66 266 584 555 650 
242 9 109 222 102 628 503 386 10 501 505 
243 8 214 271 357 604 640 170 291 117 
244 8 393 423 136 289 532 293 31 322 
245 9 494 227 654 605 493 30 431 443 355 
246 7 565 155 334 618 42 332 173 
247 9 305 353 651 280 121 202 344 52 363 
248 7 655 318 469 164 64 427 404 
249 9 36 410 107 485 531 65 616 301 500 
250 9 133 416 50 540 327 619 228 283 606 
251 9 27 114 527 445 208 70 172 509 15 
252 9 270 160 165 269 45 264 452 625 382 
253 6 620 427 608 404 469 22 
254 8 64 164 378 318 469 364 248 655 
255 8 575 525 40 132 633 323 539 212 
256 9 622 32 34 493 440 478 486 30 272 
257 9 81 571 279 636 402 637 552 463 151 
258 7 429 370 212 300 294 9 575 
259 9 9 192 429 496 370 300 212 587 473 
260 5 642 578 207 39 3 
261 8 88 541 513 275 282 219 288 593 
262 9 591 124 514 492 563 594 37 19 122 
263 5 367 16 425 621 118 
264 9 45 382 99 269 270 371 252 510 599 
265 8 59 597 135 546 607 267 601 23 
266 8 354 8 5 66 241 517 174 372 
267 8 607 265 597 59 135 510 546 371 
268 8 366 444 18 483 347 166 596 104 
269 9 160 45 489 264 270 382 252 452 99 
270 9 252 160 269 45 264 382 452 165 99 
271 9 604 291 117 433 108 145 214 243 561 
272 6 478 440 555 584 286 32 
273 9 538 46 589 67 61 534 144 320 108 
274 9 303 143 210 326 2 199 153 201 518 
275 9 282 261 129 88 586 541 513 524 219 
276 9 89 477 635 521 130 21 24 383 617 
277 9 629 20 232 147 448 213 420 26 60 
278 9 101 611 637 626 636 571 81 463 257 
279 9 552 402 81 140 257 647 463 571 467 
280 9 651 353 247 28 121 305 389 231 221 
281 7 395 439 232 60 93 448 521 
282 9 275 88 261 129 219 586 434 379 432 
283 9 606 233 327 416 38 491 540 154 228 
284 9 95 82 424 559 190 455 119 63 619 
285 9 96 53 91 230 476 615 188 585 337 
286 7 442 272 97 478 80 555 459 
287 9 157 581 516 542 55 196 71 127 474 
288 5 593 513 541 54 261 
289 9 532 490 136 535 359 86 244 325 15 
290 5 180 505 501 595 10 
291 9 108 271 320 433 604 67 117 145 46 
292 9 381 87 475 386 628 122 430 470 102 
293 9 322 31 295 111 512 149 423 364 393 
294 7 113 258 525 575 40 154 212 
295 9 111 31 322 293 512 149 359 378 364 
296 9 304 405 601 546 135 59 597 75 371 
297 9 574 418 537 47 549 441 347 652 312 
298 9 106 218 183 397 144 365 61 349 426 
299 9 533 35 196 554 342 649 566 419 127 
300 7 212 370 429 575 9 323 258 
301 9 485 107 36 249 420 410 576 65 17 
302 8 152 579 373 125 599 510 345 306 
303 9 274 2 210 143 153 199 168 398 326 
304 8 296 405 71 601 474 165 464 546 
305 9 247 353 651 202 344 121 280 52 363 
306 8 585 337 476 53 188 177 285 302 
307 8 388 128 465 468 346 123 158 602 
308 7 377 497 356 48 6 62 360 
309 9 206 352 56 146 375 447 396 547 653 
310 9 355 178 30 34 161 443 493 622 13 
311 8 580 41 557 536 194 613 551 314 
312 9 238 347 483 652 574 297 47 444 187 
313 6 451 634 175 465 7 181 
314 9 594 613 514 124 3 73 563 41 492 
315 9 142 553 447 14 417 413 148 489 502 
316 9 564 504 72 336 460 42 380 331 519 
317 9 156 511 139 422 482 83 223 12 406 
318 8 655 64 164 248 254 482 378 469 
319 9 374 73 13 3 400 236 415 314 182 
320 9 46 291 67 108 126 350 271 534 589 
321 9 617 383 632 24 25 645 530 89 130 
322 9 293 31 295 111 512 423 149 364 393 
323 8 300 212 255 575 539 370 9 477 
324 9 70 208 641 329 398 527 105 237 114 
325 9 49 362 461 172 86 359 490 368 90 
326 9 201 143 411 518 274 162 199 590 303 
327 9 283 416 606 540 233 228 50 250 133 
328 6 609 487 240 87 475 430 
329 9 105 90 237 70 324 398 641 208 527 
330 9 193 446 603 77 573 94 387 131 385 
331 5 340 380 528 84 399 
332 7 565 246 155 334 618 42 634 
333 9 550 472 68 100 631 548 526 92 480 
334 7 618 155 246 42 565 173 332 
335 9 137 436 115 69 588 148 582 407 508 
336 9 564 316 504 42 72 246 334 618 155 
337 9 585 188 306 476 53 177 230 285 96 
338 5 639 462 469 141 253 
339 3 481 85 194 
340 5 331 380 84 528 399 
341 8 627 479 234 568 566 78 412 33 
342 9 554 189 649 218 299 112 183 426 106 
343 9 220 140 235 647 552 184 402 463 279 
344 9 495 202 363 520 4 150 351 52 305 
345 9 599 653 373 579 125 396 547 375 302 
346 7 158 229 110 388 307 448 213 
347 9 483 444 47 18 312 441 238 438 366 
348 8 549 537 43 418 545 441 499 167 
349 8 397 458 298 106 365 529 583 644 
350 9 534 126 589 46 320 538 112 426 273 
351 9 57 203 520 4 495 226 344 150 217 
352 9 56 146 206 375 309 396 547 177 653 
353 9 121 247 305 651 389 280 455 119 190 
354 7 5 266 8 522 176 488 66 
355 9 310 30 34 178 493 443 161 654 622 
356 5 497 308 377 62 360 
357 8 170 640 243 126 51 271 320 412 
358 8 543 530 159 384 360 138 76 621 
359 9 86 512 49 325 532 111 490 31 289 
360 9 62 543 356 497 308 120 377 358 216 
361 9 648 626 403 611 278 17 101 134 159 
362 9 461 325 49 172 90 105 86 368 445 
363 9 4 344 217 390 119 495 202 520 228 
364 9 378 615 91 149 254 64 164 293 285 
365 8 394 186 61 144 480 298 106 183 
366 9 18 444 483 104 268 438 614 347 43 
367 7 118 263 517 16 471 372 656 
368 9 90 569 515 461 105 457 49 29 362 
369 2 528 84 
370 7 429 212 300 9 258 259 575 
371 8 510 99 607 601 382 597 267 264 
372 6 471 517 118 442 266 241 
373 8 579 599 302 345 125 152 510 396 
374 9 319 73 3 13 400 236 415 182 314 
375 9 396 146 547 125 352 177 653 56 206 
376 8 231 488 176 522 28 221 354 5 
377 7 308 497 356 48 6 62 226 
378 9 64 364 254 164 318 482 655 295 615 
379 9 432 623 16 656 282 44 434 586 239 
380 4 340 331 528 84 
381 9 292 87 386 475 628 102 503 122 430 
382 9 264 45 99 269 371 270 510 599 345 
383 9 617 24 321 89 632 645 215 130 25 
384 8 159 621 44 239 425 358 623 648 
385 9 131 391 179 507 187 603 330 446 193 
386 9 503 102 222 381 19 292 109 628 87 
387 9 77 558 454 193 573 103 450 209 330 
388 7 346 307 158 395 110 439 229 
389 9 121 353 63 455 190 119 424 247 305 
390 9 217 228 4 363 50 619 133 57 119 
391 9 179 507 187 131 385 652 603 446 330 
392 9 596 600 224 638 185 141 166 462 639 
393 8 244 423 293 322 31 149 136 532 
394 8 186 365 61 144 480 631 538 298 
395 7 281 439 60 232 521 21 93 
396 9 547 375 146 125 177 653 345 352 599 
397 9 349 458 106 298 189 649 218 183 365 
398 9 641 2 210 237 168 153 329 515 303 
399 3 51 205 340 
400 9 236 182 13 415 431 443 319 374 612 
401 8 197 211 542 567 151 570 55 516 
402 9 552 279 647 463 81 140 257 636 571 
403 9 134 648 463 361 636 611 278 647 101 
404 6 608 427 22 620 253 248 
405 9 296 601 304 99 371 546 165 597 135 
406 9 83 422 29 482 569 317 156 457 511 
407 8 588 137 335 541 261 513 593 275 
408 7 209 413 502 450 387 77 421 
409 9 449 162 435 598 590 646 223 143 326 
410 9 36 107 249 65 616 485 301 531 211 
411 9 201 326 518 590 162 143 409 274 435 
412 8 234 479 627 341 566 170 357 126 
413 7 502 408 417 209 142 385 553 
414 9 12 223 139 511 435 156 317 449 22 
415 9 400 182 612 431 236 11 643 13 39 
416 9 540 327 250 283 606 50 133 228 233 
417 8 553 502 142 413 315 588 408 148 
418 9 537 297 574 549 499 437 47 441 562 
419 9 171 616 78 35 531 533 566 33 568 
420 9 576 277 629 301 20 25 485 26 130 
421 5 592 450 209 58 551 
422 9 511 83 156 406 317 139 29 457 223 
423 8 393 149 244 293 322 31 585 306 
424 9 95 284 63 82 190 455 389 559 119 
425 6 621 263 384 44 623 16 
426 9 112 183 218 534 589 144 350 554 106 
427 6 620 608 253 404 22 248 
428 7 268 166 338 366 104 596 639 
429 7 370 9 212 300 259 258 192 
430 9 122 470 240 487 292 591 624 381 87 
431 9 182 236 400 415 13 443 612 245 11 
432 9 379 623 16 44 239 586 282 656 498 
433 9 117 145 604 271 108 291 561 67 214 
434 9 97 219 88 459 54 80 282 656 261 
435 9 449 409 162 223 590 414 598 139 511 
436 9 69 335 137 115 582 148 508 452 625 
437 9 499 562 94 418 167 545 446 537 603 
438 9 43 614 441 18 47 444 483 366 104 
439 7 395 281 521 21 60 388 635 
440 7 478 272 584 555 32 256 556 
441 9 47 438 43 483 614 18 347 444 549 
442 6 286 656 118 97 471 372 
443 9 13 236 178 161 182 400 355 310 431 
444 9 18 483 366 347 438 47 268 441 614 
445 9 172 527 27 251 362 461 325 535 114 
446 9 330 603 193 94 131 573 507 77 387 
447 9 14 315 206 489 142 309 653 553 352 
448 9 147 213 232 110 20 281 158 629 277 
449 9 409 435 598 162 646 223 511 139 457 
450 6 209 421 558 387 408 58 
451 6 313 634 175 465 7 181 
452 9 160 582 148 115 270 252 269 436 69 
453 9 519 460 484 72 504 84 528 316 564 
454 9 103 630 558 572 573 77 387 200 58 
455 9 190 119 82 559 95 284 389 424 363 
456 9 506 33 531 500 171 78 568 249 419 
457 9 29 646 422 569 598 406 83 368 449 
458 9 349 397 75 644 544 189 464 583 649 
459 9 80 54 97 219 434 88 286 85 513 
460 9 72 504 519 316 453 484 564 84 528 
461 9 362 325 49 172 90 105 368 86 359 
462 8 639 141 185 338 224 392 600 166 
463 9 402 636 647 81 571 552 279 278 101 
464 9 474 127 71 649 189 196 287 157 581 
465 8 307 451 313 128 468 175 346 388 
466 4 205 51 399 640 
467 7 279 257 81 552 402 581 140 
468 9 128 123 98 181 175 307 602 7 465 
469 6 248 164 254 64 318 427 
470 9 122 430 240 487 591 624 200 292 262 
471 6 372 517 118 442 367 266 
472 9 68 333 100 550 631 548 526 480 394 
473 9 587 496 79 192 259 602 9 98 477 
474 9 71 464 127 287 157 581 649 196 189 
475 9 87 628 292 381 609 328 386 487 430 
476 9 53 585 188 337 285 306 96 230 91 
477 9 79 276 635 496 521 323 21 439 89 
478 7 272 440 584 555 32 286 256 
479 8 627 234 341 566 412 568 78 533 
480 8 394 365 186 529 631 68 100 472 
481 4 339 194 74 536 
482 9 83 317 318 406 655 156 64 378 422 
483 9 444 347 18 366 47 438 441 268 614 
484 8 84 528 460 72 369 331 453 519 
485 9 301 36 107 249 410 65 420 500 576 
486 9 556 32 256 440 622 584 650 174 555 
487 6 328 240 609 430 122 470 
488 8 176 522 376 354 5 231 221 8 
489 9 14 269 653 345 160 447 599 45 382 
490 9 289 532 136 535 359 325 49 172 86 
491 9 38 154 606 113 233 283 540 327 416 
492 9 37 514 124 591 613 262 594 41 314 
493 9 30 34 622 654 605 355 494 256 245 
494 9 245 227 605 654 493 30 622 34 355 
495 9 520 202 150 344 52 351 4 163 363 
496 9 79 587 259 473 9 192 477 429 370 
497 5 356 308 377 62 360 
498 9 524 184 586 198 129 220 508 343 235 
499 8 437 562 94 418 167 545 537 549 
500 9 456 506 33 531 249 36 629 485 277 
501 7 505 180 10 290 595 222 503 
502 7 413 417 408 209 142 553 385 
503 9 102 386 222 109 19 381 505 242 501 
504 9 316 72 460 564 336 519 453 42 484 
505 7 501 180 290 10 222 595 503 
506 9 33 456 531 500 568 78 171 249 419 
507 9 391 179 187 131 652 603 385 446 330 
508 9 198 524 129 184 69 137 498 436 335 
509 8 583 15 116 529 535 480 27 136 
510 8 371 579 373 152 607 99 302 267 
511 9 139 223 156 422 317 12 414 83 406 
512 9 111 31 295 322 359 86 293 569 49 
513 8 541 288 593 261 54 88 219 275 
514 9 124 594 492 613 37 314 262 591 41 
515 9 168 153 237 199 90 368 105 398 143 
516 9 55 542 157 287 211 196 581 401 197 
517 5 372 471 118 367 266 
518 9 201 326 411 274 143 303 162 590 199 
519 9 453 460 72 504 484 316 84 528 564 
520 9 495 150 202 344 52 351 163 4 363 
521 9 21 635 93 60 26 395 281 130 439 
522 7 176 488 376 354 5 231 221 
523 9 633 132 191 6 40 120 48 216 255 
524 9 498 586 129 184 198 508 220 275 282 
525 7 575 255 40 212 300 633 132 
526 9 548 92 631 67 550 145 333 108 472 
527 9 27 445 251 114 70 208 172 329 324 
528 7 84 484 331 340 369 72 380 
529 8 509 583 480 349 116 15 365 394 
530 9 632 645 321 25 617 383 215 24 358 
531 9 171 33 456 78 506 249 419 616 500 
532 9 289 490 136 535 359 86 244 325 49 
533 9 299 566 35 419 554 342 78 479 171 
534 9 589 350 126 46 538 426 112 320 273 
535 9 15 116 136 490 289 532 172 509 445 
536 7 194 580 311 74 161 481 557 
537 8 549 418 574 297 441 47 348 499 
538 9 273 61 589 144 534 46 350 426 186 
539 9 225 216 215 120 255 323 191 132 89 
540 9 416 250 327 606 283 154 491 38 233 
541 8 513 288 593 261 88 54 275 219 
542 8 55 516 157 287 401 581 211 197 
543 7 358 360 62 530 384 425 621 
544 9 75 644 59 135 23 546 265 458 597 
545 5 167 562 499 437 94 
546 9 135 59 597 601 265 607 267 544 371 
547 9 396 375 146 125 177 653 352 345 599 
548 9 526 92 631 550 333 472 68 67 145 
549 8 537 418 348 441 574 297 47 43 
550 9 333 472 68 100 548 631 526 92 480 
551 4 557 592 41 421 
552 9 279 402 140 647 81 463 257 636 571 
553 9 142 315 417 502 14 447 148 413 588 
554 9 342 299 218 112 649 189 426 183 106 
555 6 584 272 440 478 32 286 
556 9 486 32 584 440 650 174 256 555 241 
557 5 551 41 311 580 194 
558 9 454 387 77 103 58 450 630 572 573 
559 9 619 82 284 95 119 190 455 133 50 
560 9 85 74 80 34 310 459 54 339 355 
561 9 117 604 214 433 145 271 108 291 243 
562 8 437 94 499 167 545 573 446 418 
563 9 19 594 262 3 124 314 642 514 260 
564 9 316 336 504 72 42 460 380 331 334 
565 7 155 246 334 332 618 42 173 
566 9 533 479 341 627 234 78 412 419 568 
567 9 570 151 197 401 211 65 637 257 542 
568 8 341 78 33 627 506 479 456 171 
569 9 29 406 457 83 368 86 422 646 512 
570 9 567 151 197 401 637 211 65 257 101 
571 9 636 81 637 101 278 257 611 463 402 
572 9 630 200 103 454 624 558 58 573 77 
573 9 103 454 77 387 94 193 630 330 572 
574 9 297 418 537 47 549 441 347 312 652 
575 7 525 255 212 300 40 323 370 
576 9 420 25 277 629 301 610 20 76 130 
577 3 163 169 52 
578 5 207 260 642 39 643 
579 8 373 302 599 152 345 510 125 396 
580 7 311 557 41 536 194 613 551 
581 8 157 287 542 71 516 55 474 401 
582 9 436 452 69 115 148 335 625 160 137 
583 8 509 529 116 15 644 349 23 535 
584 6 555 440 272 478 32 174 
585 9 306 337 476 53 188 285 230 96 177 
586 9 129 524 498 184 198 275 282 508 432 
587 9 473 496 79 192 259 9 602 477 98 
588 8 335 115 137 407 148 436 417 553 
589 9 534 350 538 46 126 273 426 112 320 
590 9 162 409 435 411 449 326 598 143 201 
591 9 262 124 492 514 37 122 470 430 594 
592 5 421 551 450 58 557 
593 5 288 513 541 261 54 
594 9 314 514 124 613 563 3 492 37 262 
595 6 10 290 501 505 180 222 
596 8 166 392 639 268 638 141 462 185 
597 8 59 135 546 265 601 607 267 371 
598 9 646 449 409 457 162 199 29 435 143 
599 9 345 373 579 125 653 302 396 547 375 
600 9 224 185 392 141 96 230 615 285 91 
601 9 546 597 135 59 405 371 265 607 296 
602 8 98 128 123 468 307 473 388 587 
603 9 446 330 131 507 193 391 94 385 179 
604 9 271 117 433 291 145 214 561 108 243 
605 9 654 494 245 227 493 30 622 34 355 
606 9 283 233 38 491 327 540 416 154 113 
607 8 267 265 597 59 135 371 546 601 
608 6 620 427 404 253 22 248 
609 7 328 487 87 475 240 292 430 
610 9 138 76 17 576 25 420 301 361 485 
611 9 278 101 626 637 636 571 463 81 361 
612 9 11 643 415 39 400 182 431 207 236 
613 9 314 514 594 41 37 124 492 311 580 
614 9 43 438 104 18 441 366 47 444 483 
615 9 91 285 96 364 149 230 224 53 600 
616 9 419 171 35 410 531 249 78 211 36 
617 9 383 24 321 632 89 645 25 130 215 
618 7 334 155 42 246 565 173 332 
619 9 50 133 559 228 390 217 250 119 82 
620 6 427 253 608 404 22 248 
621 7 425 44 384 239 623 159 263 
622 9 256 34 493 30 32 605 654 355 310 
623 9 432 44 379 239 16 621 384 425 263 
624 9 200 572 630 103 454 573 240 58 558 
625 9 235 69 582 252 436 165 270 343 452 
626 9 611 101 278 637 17 636 571 361 463 
627 7 341 479 234 568 566 412 78 
628 9 475 87 381 109 292 242 386 102 503 
629 9 277 20 147 232 448 213 420 26 60 
630 9 572 103 200 454 624 558 573 58 77 
631 9 472 68 548 333 186 394 526 550 100 
632 9 645 321 383 617 530 24 25 215 89 
633 9 132 523 40 191 255 120 216 525 575 
634 6 313 451 175 7 332 181 
635 9 521 21 93 60 26 276 130 477 439 
636 9 571 101 278 81 637 611 463 257 402 
637 9 101 278 571 611 636 626 81 257 151 
638 9 392 56 600 224 596 230 352 96 185 
639 8 462 141 338 185 166 392 596 224 
640 8 170 357 243 51 466 205 214 204 
641 9 398 2 210 237 324 168 329 303 153 
642 6 260 578 207 3 39 563 
643 9 612 11 39 415 207 578 400 182 431 
644 9 544 75 23 458 59 135 546 265 583 
645 9 632 215 321 530 383 617 24 225 25 
646 9 457 598 29 449 422 409 511 569 368 
647 9 140 402 552 463 279 343 81 636 220 
648 9 134 403 361 159 239 384 611 626 463 
649 9 189 127 464 342 474 196 554 71 299 
650 9 66 556 174 241 8 486 5 266 584 
651 9 280 247 305 353 28 121 52 169 221 
652 9 187 179 507 391 312 238 297 574 131 
653 9 345 375 396 599 547 146 489 125 206 
654 9 605 494 245 227 493 30 622 34 355 
655 8 318 248 164 64 482 469 317 254 
656 9 16 379 118 442 434 97 367 432 219 
DEPOT_SECTION
   1
   -1
EOF
