NAME :  X-n749-kX-w149-c7.cctp
COMMENT : 	Adapted by Maziero, Usberti and Cavellucci from the Uchoa, Pecin, Pessoa, Poggi, Subramanian, and Vidal (2013)
TYPE :  CCTP
DIMENSION :    664
EDGE_WEIGHT_TYPE : 	EUC_2D	
CAPACITY : 	396
VERTICES_WITHIN_COVERAGE :  7
VERTICES_WITH_DEMAND : 	149
NODE_COORD_SECTION
1 643 512
2 707 407
3 394 355
4 140 470
5 364 215
6 493 857
7 117 466
8 462 38
9 551 479
10 545 460
11 423 274
12 440 602
13 525 357
14 574 994
15 387 377
16 583 424
17 16 481
18 615 427
19 511 799
20 110 518
21 223 506
22 163 520
23 834 419
24 442 482
25 42 547
26 478 421
27 372 108
28 320 252
29 731 372
30 341 234
31 787 331
32 433 254
33 555 397
34 640 350
35 565 185
36 320 196
37 64 374
38 283 411
39 46 582
40 328 453
41 779 448
42 602 152
43 466 934
44 280 317
45 403 425
46 482 80
47 504 575
48 649 348
49 388 331
50 518 731
51 550 364
52 745 421
53 384 205
54 236 226
55 602 498
56 670 80
57 380 177
58 135 333
59 594 841
60 189 250
61 682 470
62 515 19
63 311 39
64 398 363
65 217 615
66 530 879
67 410 679
68 382 240
69 146 456
70 543 339
71 316 436
72 397 382
73 507 783
74 436 314
75 88 469
76 127 428
77 158 431
78 639 444
79 722 341
80 121 445
81 470 876
82 452 69
83 82 446
84 353 318
85 220 551
86 534 495
87 502 5
88 411 463
89 338 218
90 282 593
91 457 514
92 321 215
93 363 948
94 524 256
95 642 783
96 722 576
97 265 503
98 113 541
99 638 920
100 523 805
101 722 444
102 364 408
103 310 484
104 519 392
105 240 338
106 662 429
107 603 451
108 336 290
109 759 337
110 64 496
111 490 148
112 297 386
113 167 488
114 402 351
115 424 152
116 472 108
117 580 538
118 157 385
119 695 410
120 104 462
121 404 98
122 114 450
123 456 111
124 756 305
125 446 59
126 711 772
127 86 489
128 557 516
129 440 70
130 44 553
131 618 456
132 404 261
133 460 908
134 542 837
135 379 268
136 633 383
137 331 210
138 706 444
139 570 378
140 218 347
141 47 445
142 514 367
143 175 505
144 198 390
145 586 552
146 386 95
147 855 567
148 734 396
149 301 140
150 93 530
151 417 932
152 389 341
153 527 829
154 378 185
155 447 23
156 665 479
157 306 896
158 527 14
159 517 904
160 441 419
161 766 356
162 337 208
163 523 506
164 470 121
165 510 286
166 620 439
167 79 545
168 426 246
169 335 881
170 772 362
171 486 62
172 156 404
173 418 385
174 393 293
175 511 494
176 650 348
177 830 577
178 271 262
179 411 558
180 691 255
181 646 356
182 696 414
183 728 486
184 445 131
185 123 427
186 832 697
187 373 318
188 502 188
189 202 424
190 424 669
191 37 391
192 527 551
193 467 76
194 47 399
195 519 673
196 177 563
197 694 337
198 123 536
199 379 160
200 343 284
201 661 442
202 545 767
203 109 240
204 512 821
205 398 332
206 178 479
207 604 453
208 446 505
209 662 382
210 98 478
211 619 86
212 516 265
213 138 412
214 440 331
215 313 75
216 378 124
217 345 109
218 140 505
219 369 214
220 411 92
221 471 938
222 295 494
223 406 535
224 507 9
225 337 217
226 557 465
227 694 200
228 143 453
229 488 429
230 68 566
231 397 360
232 671 843
233 801 435
234 142 482
235 6 644
236 515 950
237 119 570
238 367 377
239 147 488
240 339 119
241 96 431
242 666 440
243 605 490
244 575 507
245 532 463
246 691 613
247 115 540
248 202 497
249 48 487
250 452 152
251 518 830
252 45 426
253 5 557
254 98 491
255 468 325
256 452 156
257 65 509
258 128 283
259 542 852
260 722 697
261 327 183
262 689 497
263 643 790
264 87 460
265 518 247
266 595 425
267 345 290
268 69 439
269 719 414
270 577 932
271 487 810
272 456 549
273 419 419
274 220 574
275 396 468
276 527 214
277 458 24
278 527 678
279 91 444
280 634 503
281 355 117
282 660 435
283 149 516
284 121 467
285 365 233
286 564 673
287 643 335
288 948 666
289 594 567
290 368 64
291 448 908
292 470 869
293 305 267
294 354 303
295 469 868
296 582 349
297 727 340
298 735 436
299 460 476
300 715 554
301 461 906
302 179 434
303 498 36
304 304 429
305 212 389
306 479 327
307 188 416
308 604 443
309 558 409
310 489 275
311 371 88
312 513 866
313 77 520
314 388 135
315 277 459
316 412 274
317 629 454
318 537 411
319 693 319
320 603 794
321 371 214
322 506 171
323 98 529
324 476 2
325 404 102
326 415 273
327 646 464
328 578 488
329 404 330
330 80 541
331 512 538
332 109 606
333 482 173
334 654 46
335 14 285
336 526 585
337 664 331
338 56 415
339 560 452
340 398 275
341 388 344
342 350 350
343 148 546
344 419 366
345 37 552
346 510 758
347 154 358
348 317 496
349 610 553
350 101 531
351 597 86
352 682 434
353 779 374
354 118 357
355 478 137
356 458 252
357 496 396
358 235 313
359 725 432
360 492 69
361 443 58
362 340 304
363 361 281
364 358 258
365 289 187
366 313 208
367 297 425
368 443 516
369 543 458
370 797 465
371 513 45
372 416 336
373 564 201
374 435 16
375 357 400
376 537 509
377 364 62
378 709 500
379 539 440
380 179 201
381 492 865
382 429 5
383 126 408
384 667 984
385 265 491
386 541 338
387 399 351
388 100 480
389 678 434
390 438 63
391 327 276
392 98 557
393 135 440
394 386 214
395 79 687
396 516 484
397 773 468
398 244 603
399 45 401
400 87 537
401 261 108
402 390 262
403 384 935
404 448 83
405 489 973
406 657 919
407 338 317
408 114 522
409 334 393
410 293 326
411 648 460
412 420 336
413 393 348
414 334 288
415 672 434
416 177 517
417 643 781
418 514 33
419 662 863
420 254 350
421 402 378
422 332 925
423 710 395
424 388 325
425 256 400
426 207 297
427 532 516
428 800 371
429 64 440
430 398 75
431 509 86
432 455 472
433 31 603
434 141 450
435 468 101
436 268 677
437 85 472
438 387 214
439 426 270
440 381 324
441 178 485
442 457 865
443 562 354
444 567 453
445 640 442
446 403 427
447 523 918
448 348 343
449 389 370
450 453 486
451 573 379
452 191 580
453 423 683
454 319 275
455 612 413
456 459 44
457 683 490
458 786 466
459 428 878
460 596 138
461 473 859
462 592 373
463 381 210
464 127 314
465 716 359
466 384 243
467 93 482
468 760 471
469 194 604
470 768 315
471 421 623
472 409 79
473 55 365
474 508 407
475 399 120
476 729 403
477 197 490
478 492 445
479 338 393
480 146 443
481 241 369
482 641 437
483 716 603
484 598 569
485 132 542
486 384 384
487 617 237
488 609 513
489 449 444
490 808 393
491 626 449
492 773 960
493 670 376
494 777 492
495 146 551
496 828 575
497 360 508
498 94 660
499 473 382
500 434 322
501 170 460
502 354 262
503 44 445
504 301 175
505 717 388
506 123 484
507 843 415
508 69 466
509 796 452
510 413 237
511 351 384
512 821 294
513 185 440
514 396 325
515 272 191
516 419 258
517 391 760
518 515 18
519 637 988
520 876 412
521 327 110
522 90 512
523 630 373
524 680 354
525 224 510
526 564 151
527 528 173
528 474 967
529 414 347
530 135 481
531 455 897
532 453 24
533 332 558
534 516 867
535 562 814
536 418 933
537 511 480
538 551 776
539 725 450
540 469 558
541 101 446
542 43 517
543 517 138
544 567 415
545 399 115
546 99 504
547 209 156
548 724 617
549 570 935
550 664 488
551 432 59
552 755 709
553 649 209
554 387 178
555 80 463
556 360 169
557 541 838
558 298 260
559 382 315
560 659 867
561 322 258
562 205 652
563 616 354
564 218 21
565 529 714
566 828 384
567 630 396
568 374 408
569 558 250
570 477 75
571 43 364
572 404 366
573 353 335
574 571 270
575 83 360
576 459 934
577 196 555
578 202 337
579 200 385
580 123 437
581 682 409
582 409 376
583 476 39
584 461 174
585 531 448
586 467 127
587 566 402
588 549 831
589 379 273
590 133 461
591 469 68
592 302 430
593 66 510
594 517 292
595 380 411
596 89 524
597 544 311
598 429 219
599 539 887
600 498 861
601 451 15
602 445 659
603 400 240
604 298 186
605 250 655
606 534 558
607 456 479
608 506 804
609 148 404
610 308 962
611 296 419
612 368 320
613 466 505
614 388 190
615 577 164
616 417 375
617 535 830
618 784 347
619 435 53
620 393 173
621 520 751
622 644 335
623 111 557
624 453 44
625 416 198
626 491 848
627 261 548
628 334 468
629 558 308
630 180 394
631 446 325
632 624 371
633 271 71
634 364 389
635 468 103
636 217 249
637 550 410
638 339 322
639 532 826
640 543 380
641 30 452
642 60 500
643 357 65
644 577 491
645 718 433
646 232 501
647 346 235
648 358 411
649 459 113
650 49 567
651 136 439
652 765 305
653 130 452
654 490 841
655 592 865
656 283 390
657 357 323
658 323 281
659 533 53
660 746 699
661 358 957
662 400 325
663 150 462
664 395 247
DEMAND_SECTION
2 86
3 42
4 29
5 22
6 21
7 61
8 22
9 12
10 72
11 71
12 28
13 16
14 14
15 4
16 74
17 64
18 40
19 38
20 64
21 46
22 65
23 82
24 99
25 65
26 53
27 1
28 13
29 29
30 68
31 64
32 37
33 52
34 47
35 7
36 86
37 88
38 9
39 36
40 80
41 91
42 75
43 42
44 75
45 94
46 23
47 48
48 33
49 22
50 63
51 80
52 6
53 21
54 39
55 61
56 55
57 15
58 56
59 35
60 86
61 93
62 32
63 5
64 15
65 14
66 71
67 10
68 57
69 39
70 70
71 19
72 40
73 90
74 42
75 48
76 43
77 35
78 68
79 9
80 63
81 92
82 76
83 79
84 100
85 63
86 37
87 94
88 76
89 93
90 99
91 73
92 68
93 53
94 33
95 59
96 79
97 45
98 10
99 91
100 20
101 39
102 6
103 100
104 29
105 26
106 24
107 29
108 9
109 5
110 52
111 79
112 92
113 89
114 30
115 76
116 25
117 38
118 62
119 71
120 90
121 15
122 35
123 57
124 38
125 74
126 75
127 17
128 55
129 62
130 18
131 89
132 52
133 55
134 20
135 70
136 76
137 13
138 77
139 26
140 52
141 69
142 77
143 48
144 48
145 29
146 80
147 12
148 59
149 11
150 18
COVERAGE_SECTION
2 7 119 423 182 269 505 476 581 
3 7 231 387 413 64 114 341 152 
4 7 590 234 530 663 69 228 239 
5 7 219 321 285 463 53 394 438 
6 7 600 381 626 654 461 312 534 
7 7 284 120 122 590 506 653 80 
8 6 456 624 583 277 532 155 
9 7 226 10 369 86 245 328 339 
10 7 369 226 245 339 585 9 379 
11 7 439 326 316 516 32 132 340 
12 7 471 179 540 272 602 47 190 
13 7 142 70 386 51 640 104 443 
14 5 549 270 519 236 405 
15 7 449 486 72 421 64 231 238 
16 7 266 544 308 587 309 455 18 
17 7 641 249 542 503 141 642 110 
18 7 166 455 308 266 491 107 207 
19 6 608 100 73 204 271 251 
20 7 408 323 350 546 150 522 198 
21 6 525 646 248 477 97 85 
22 7 416 283 143 218 343 113 495 
23 7 507 566 233 490 520 509 370 
24 7 450 607 432 299 208 613 368 
25 6 130 345 650 542 230 39 
26 7 229 478 357 474 160 489 499 
27 7 216 146 281 311 217 545 475 
28 7 561 293 454 558 391 30 658 
29 7 465 505 148 423 476 79 297 
30 7 647 89 225 285 137 162 28 
31 7 618 470 109 161 170 652 124 
32 7 168 516 439 11 356 326 510 
33 7 309 587 637 640 544 318 139 
34 7 181 48 176 287 622 563 523 
35 7 373 615 526 527 276 42 460 
36 7 366 261 137 92 162 604 225 
37 6 473 571 575 194 191 399 
38 7 611 367 656 592 304 112 425 
39 7 650 433 230 130 345 25 253 
40 7 628 71 304 592 103 367 348 
41 7 509 458 397 370 233 468 52 
42 7 460 615 526 35 373 351 211 
43 7 221 576 133 301 291 528 531 
44 5 410 420 105 358 178 
45 6 446 273 595 568 160 88 
46 6 570 360 193 171 591 435 
47 6 336 192 606 331 540 272 
48 7 176 34 181 287 622 337 523 
49 7 424 152 205 440 514 341 662 
50 7 565 621 346 202 73 278 538 
51 7 443 640 139 13 70 451 386 
52 7 298 359 476 148 269 645 101 
53 7 463 394 438 321 614 219 154 
54 7 636 178 515 60 380 365 558 
55 6 243 488 328 644 244 280 
56 5 334 211 351 460 42 
57 7 554 154 620 614 199 556 53 
58 5 464 354 347 258 118 
59 7 655 535 588 320 134 259 557 
60 7 636 380 426 54 258 358 203 
61 7 156 457 550 262 242 138 201 
62 7 518 158 224 418 87 303 371 
63 5 215 633 643 377 290 
64 7 231 572 3 449 387 114 413 
65 7 469 398 562 274 452 605 85 
66 7 599 534 312 159 259 600 381 
67 7 453 190 602 471 12 517 195 
68 7 466 664 285 603 402 394 438 
69 7 228 663 434 480 590 4 653 
70 7 386 443 13 51 597 629 142 
71 7 304 592 40 367 611 628 38 
72 7 421 15 486 582 449 572 64 
73 7 19 608 346 100 271 621 204 
74 7 500 631 214 412 372 255 329 
75 7 437 264 555 210 467 388 120 
76 7 185 580 393 651 80 213 383 
77 7 480 302 651 393 434 172 228 
78 7 445 482 317 491 411 166 327 
79 7 297 465 197 29 319 109 524 
80 7 580 122 653 393 651 76 185 
81 7 292 295 442 461 381 531 6 
82 7 125 129 361 390 404 193 591 
83 7 279 264 268 555 429 541 241 
84 7 657 294 407 612 638 573 362 
85 7 274 577 452 525 627 21 196 
86 6 376 163 396 427 9 175 
87 7 224 518 62 324 158 418 303 
88 7 275 24 446 45 489 273 432 
89 7 225 162 137 30 92 647 5 
90 7 398 627 533 274 65 605 85 
91 7 613 208 368 450 24 272 607 
92 7 137 366 225 89 162 36 30 
93 6 661 403 422 151 536 610 
94 7 265 212 165 569 594 310 276 
95 6 417 263 320 232 126 59 
96 4 300 483 548 246 
97 7 385 222 646 21 525 627 315 
98 7 247 198 350 623 323 408 485 
99 6 406 560 270 419 519 384 
100 7 19 608 204 639 153 251 73 
101 7 539 359 645 298 138 269 52 
102 7 648 568 375 595 634 511 479 
103 7 348 222 628 40 315 385 71 
104 7 474 357 142 318 640 13 33 
105 7 420 140 358 481 578 44 426 
106 7 282 415 242 201 389 352 482 
107 7 207 308 131 166 491 317 18 
108 7 414 200 267 362 658 391 294 
109 7 161 470 618 170 31 124 297 
110 7 642 257 593 249 127 313 508 
111 7 355 333 322 543 586 164 250 
112 7 656 38 611 409 367 479 425 
113 7 441 206 143 239 234 501 477 
114 7 387 3 413 231 64 529 572 
115 7 250 256 184 620 314 475 584 
116 7 635 435 164 649 123 586 46 
117 7 145 244 128 289 349 484 488 
118 5 172 609 630 347 213 
119 7 182 2 581 423 269 352 389 
120 7 7 122 541 75 210 264 284 
121 7 325 220 146 545 472 475 430 
122 7 80 541 7 120 580 653 284 
123 7 649 635 116 435 164 586 184 
124 7 652 470 109 31 297 79 618 
125 7 361 390 82 129 619 551 624 
126 7 417 95 263 260 552 232 660 
127 7 467 254 210 388 437 75 546 
128 7 244 376 427 86 117 644 163 
129 7 390 82 361 125 551 404 619 
130 6 25 345 650 230 39 167 
131 7 317 491 207 107 166 308 78 
132 7 402 316 340 516 326 664 603 
133 7 301 291 531 576 43 221 81 
134 7 557 588 617 259 639 153 251 
135 7 589 402 340 363 364 466 132 
136 7 523 567 632 209 181 34 563 
137 7 162 225 89 92 36 366 30 
138 7 101 645 539 359 352 298 389 
139 7 451 462 33 51 587 443 640 
140 7 578 105 481 420 358 305 579 
141 7 503 429 641 252 268 508 338 
142 7 13 104 640 357 51 70 386 
143 7 416 22 113 441 206 477 248 
144 7 579 305 630 307 189 118 172 
145 7 117 289 484 349 488 128 244 
146 7 311 121 27 325 430 545 220 
147 5 177 496 494 370 458 
148 7 476 505 269 29 423 52 2 
149 6 504 521 240 604 365 261 
150 7 323 596 350 400 330 522 313 
151 5 536 403 291 576 43 
152 7 341 413 49 205 387 3 114 
153 7 639 617 251 134 204 557 588 
154 7 57 554 614 620 53 556 199 
155 7 532 601 277 374 8 624 456 
156 5 550 61 457 327 411 
157 6 169 422 610 93 661 403 
158 7 62 518 224 418 87 371 303 
159 6 447 66 599 534 312 236 
160 5 273 489 26 45 446 
161 7 170 109 618 353 31 428 29 
162 7 137 225 89 92 36 366 30 
163 5 427 376 86 175 396 
164 7 586 116 649 123 355 635 435 
165 7 594 212 310 94 265 597 306 
166 7 491 18 308 131 317 78 445 
167 6 330 400 150 392 596 230 
168 7 32 516 510 439 132 598 603 
169 5 157 422 93 403 661 
170 7 161 353 618 109 428 31 29 
171 6 360 570 46 591 193 583 
172 7 609 118 213 630 77 383 307 
173 5 616 582 421 344 72 
174 6 340 589 559 316 135 326 
175 5 396 537 163 86 376 
176 7 48 181 34 622 287 337 524 
177 5 496 147 494 96 548 
178 7 558 293 28 54 454 561 658 
179 7 223 272 12 368 540 91 208 
180 6 227 553 319 487 337 124 
181 7 34 48 176 287 622 523 632 
182 7 119 2 581 269 352 423 389 
183 5 378 468 539 262 101 
184 7 250 586 123 649 256 164 115 
185 7 76 580 80 393 651 383 213 
186 7 552 660 260 177 288 496 147 
187 6 612 559 440 424 657 49 
188 5 322 333 527 276 111 
189 6 307 513 302 144 305 630 
190 7 453 67 602 471 12 195 517 
191 6 194 399 571 338 37 473 
192 6 606 331 47 336 427 376 
193 6 591 570 46 82 404 171 
194 7 399 191 338 252 37 473 571 
195 6 278 565 286 50 602 621 
196 7 577 452 495 343 274 469 22 
197 7 319 524 79 337 465 297 176 
198 7 247 98 485 408 20 350 623 
199 4 57 620 554 556 
200 7 267 108 414 363 391 362 658 
201 7 242 282 106 415 389 445 482 
202 7 538 621 346 73 100 50 19 
203 7 258 464 380 60 58 335 636 
204 6 251 153 608 100 639 19 
205 7 329 514 662 49 424 152 341 
206 6 441 113 501 477 143 248 
207 7 107 308 131 166 491 317 18 
208 7 368 91 450 613 24 607 299 
209 7 493 136 181 523 524 581 567 
210 7 388 467 75 254 437 127 120 
211 5 351 56 334 460 42 
212 6 94 265 165 594 310 569 
213 6 383 609 76 172 185 651 
214 5 631 500 74 412 372 
215 5 63 521 633 643 217 
216 6 314 27 475 545 281 146 
217 5 240 281 521 27 311 
218 6 283 239 234 530 22 506 
219 7 321 5 463 53 394 438 285 
220 7 121 325 472 430 146 545 475 
221 7 43 576 528 133 301 291 405 
222 7 103 348 385 97 315 628 40 
223 7 179 368 208 272 497 91 24 
224 7 87 518 62 158 418 303 324 
225 7 89 137 162 92 30 647 366 
226 7 10 339 9 369 444 245 328 
227 5 553 180 487 42 460 
228 7 69 434 480 663 590 653 393 
229 7 26 478 474 357 489 585 104 
230 6 650 167 39 130 330 392 
231 7 64 3 387 572 114 413 449 
232 7 419 560 263 95 417 59 406 
233 7 509 41 370 458 23 397 490 
234 7 530 239 4 506 663 218 590 
235 7 433 39 395 253 650 498 345 
236 6 447 405 528 159 221 43 
237 6 623 392 98 247 485 495 
238 7 634 511 486 15 449 375 72 
239 7 234 530 218 4 113 506 663 
240 4 217 521 281 27 
241 7 279 541 83 122 185 268 580 
242 7 201 282 415 106 389 352 482 
243 6 55 488 328 644 280 244 
244 7 644 328 128 55 117 243 488 
245 7 369 10 585 379 9 226 396 
246 4 483 548 96 300 
247 7 98 198 350 485 623 408 323 
248 7 477 21 525 441 143 206 646 
249 7 110 642 257 593 508 542 17 
250 7 256 184 584 115 586 355 164 
251 6 153 204 639 617 557 100 
252 7 338 141 503 429 399 194 268 
253 7 345 25 130 650 39 433 542 
254 6 467 388 127 210 546 522 
255 5 306 631 214 74 500 
256 7 250 584 184 115 355 586 333 
257 6 593 642 110 313 542 522 
258 7 464 203 58 60 354 347 426 
259 7 557 134 588 617 153 639 66 
260 5 660 552 126 548 246 
261 5 36 137 162 504 366 
262 6 457 378 550 61 156 183 
263 7 95 417 320 232 126 59 419 
264 7 555 75 437 83 279 120 508 
265 6 94 212 276 165 310 569 
266 7 16 18 308 455 107 166 207 
267 7 200 108 414 362 294 363 391 
268 7 429 83 141 279 503 555 252 
269 7 2 476 359 645 423 148 182 
270 5 549 447 599 14 99 
271 4 608 19 204 654 
272 7 540 91 368 208 613 179 223 
273 5 45 446 160 173 489 
274 7 85 452 577 398 469 65 196 
275 7 88 446 45 24 273 497 489 
276 5 265 188 373 527 94 
277 7 532 155 601 8 456 624 583 
278 5 195 565 286 50 621 
279 7 83 541 241 264 120 555 268 
280 3 488 55 243 
281 5 217 240 27 216 521 
282 7 106 201 242 415 389 482 445 
283 7 218 22 143 239 416 343 485 
284 7 7 590 506 653 120 122 4 
285 7 5 68 219 647 321 466 30 
286 4 278 195 565 50 
287 7 622 48 34 176 181 337 563 
288 6 186 147 177 496 552 660 
289 7 484 145 349 117 488 606 128 
290 5 377 643 311 430 146 
291 5 133 301 531 576 43 
292 7 295 81 461 442 381 6 600 
293 7 558 454 561 28 658 391 178 
294 7 362 84 267 657 407 108 200 
295 7 292 81 461 442 381 6 600 
296 7 443 462 139 451 563 51 70 
297 7 79 465 29 109 197 319 161 
298 7 359 101 539 645 52 269 138 
299 7 607 432 450 24 613 208 489 
300 2 96 483 
301 7 133 531 291 43 576 81 221 
302 6 513 307 77 189 501 480 
303 6 418 371 583 62 518 224 
304 7 592 367 611 71 38 40 315 
305 7 579 144 630 481 189 307 140 
306 5 255 631 214 74 500 
307 7 189 302 630 513 144 579 77 
308 7 107 207 166 18 131 266 491 
309 7 637 544 587 33 318 16 139 
310 6 165 212 594 356 94 265 
311 6 146 27 290 377 643 430 
312 7 534 600 66 381 6 626 259 
313 6 596 522 593 257 150 400 
314 5 216 475 545 199 27 
315 7 385 592 222 367 304 103 611 
316 7 326 11 340 132 439 516 402 
317 7 491 131 78 445 166 327 411 
318 7 637 309 33 104 379 474 544 
319 7 197 337 79 524 297 465 176 
320 7 263 95 417 535 59 538 202 
321 7 219 5 463 394 53 438 285 
322 6 188 527 333 111 543 355 
323 7 350 150 596 400 20 408 98 
324 7 87 277 601 224 532 155 583 
325 7 121 220 545 146 475 472 430 
326 7 316 11 439 132 516 340 32 
327 6 411 317 78 445 156 491 
328 7 644 244 55 243 9 226 128 
329 7 205 662 514 372 49 412 424 
330 6 167 400 150 596 313 323 
331 5 192 427 606 163 47 
332 6 237 623 392 498 230 98 
333 6 584 322 188 111 256 355 
334 4 56 211 351 460 
335 7 571 473 37 575 203 191 258 
336 6 47 606 192 331 540 145 
337 7 622 287 176 48 524 34 181 
338 7 252 194 399 429 268 141 191 
339 7 444 226 10 369 379 9 585 
340 7 316 132 402 326 174 589 135 
341 7 152 413 3 49 387 114 205 
342 5 448 573 657 638 84 
343 7 495 485 198 22 283 196 247 
344 6 616 582 572 173 529 64 
345 6 25 130 650 39 253 230 
346 7 621 73 50 202 19 538 608 
347 5 118 58 354 630 172 
348 7 103 222 628 40 497 97 385 
349 6 484 289 145 117 488 280 
350 7 323 150 596 400 20 98 408 
351 3 211 460 42 
352 7 389 415 242 106 201 282 182 
353 7 170 428 161 618 490 109 31 
354 3 58 575 347 
355 7 586 111 164 116 250 649 256 
356 4 32 168 439 310 
357 7 474 104 499 26 142 229 318 
358 7 105 426 140 578 420 44 481 
359 7 645 298 101 539 269 138 52 
360 6 171 46 570 591 431 193 
361 7 125 390 619 551 129 82 624 
362 7 407 294 108 267 414 638 84 
363 7 200 267 502 589 135 294 364 
364 7 502 135 363 285 589 647 30 
365 7 604 504 515 36 366 261 92 
366 7 92 36 137 162 225 89 604 
367 7 611 592 304 38 71 656 112 
368 7 208 91 613 450 24 272 607 
369 7 10 245 226 585 339 379 9 
370 6 458 509 397 41 233 494 
371 7 418 303 659 62 518 171 360 
372 7 412 529 329 205 662 114 387 
373 7 35 276 615 527 569 526 42 
374 7 382 155 601 532 277 624 8 
375 7 102 648 634 511 568 479 409 
376 5 427 86 163 128 175 
377 5 290 643 311 430 146 
378 5 262 183 457 61 550 
379 7 585 369 10 245 339 318 226 
380 6 60 547 636 54 203 515 
381 7 600 6 626 461 312 292 295 
382 7 374 601 155 532 277 624 8 
383 4 213 185 76 609 
384 7 519 406 99 14 270 492 549 
385 7 97 222 315 646 21 525 103 
386 7 70 13 443 597 51 629 142 
387 7 114 3 413 231 64 341 152 
388 7 210 467 254 75 127 437 120 
389 7 352 415 242 106 282 201 581 
390 7 129 361 551 125 619 82 404 
391 7 658 454 414 108 200 561 267 
392 6 623 98 167 400 247 330 
393 7 651 480 434 580 653 76 80 
394 7 438 463 53 321 219 5 614 
395 6 498 235 332 433 39 230 
396 5 537 175 86 163 245 
397 6 458 468 41 370 494 509 
398 7 65 274 90 469 605 85 452 
399 6 194 191 338 252 37 473 
400 7 330 150 167 596 323 350 313 
401 6 633 149 215 521 547 504 
402 7 135 132 340 589 664 466 68 
403 5 93 151 536 661 422 
404 7 82 129 193 390 125 361 591 
405 6 528 236 221 43 576 447 
406 7 99 560 419 384 519 232 270 
407 5 638 362 84 657 294 
408 7 20 350 198 323 247 98 150 
409 7 479 511 375 634 648 102 238 
410 4 44 407 420 638 
411 7 327 78 317 445 201 482 156 
412 7 372 529 329 500 214 205 114 
413 7 341 3 387 152 114 231 64 
414 7 108 200 267 658 391 362 454 
415 7 389 242 352 106 282 201 581 
416 7 143 22 283 113 248 441 477 
417 6 95 263 320 232 126 59 
418 7 371 62 518 303 158 224 659 
419 7 560 232 406 99 655 59 263 
420 7 105 481 140 44 358 410 656 
421 7 72 582 572 15 449 616 64 
422 6 93 157 661 169 610 403 
423 7 505 2 119 269 476 148 182 
424 7 49 440 514 205 559 662 152 
425 7 38 656 481 112 611 305 367 
426 7 358 578 636 60 140 105 420 
427 5 376 163 86 128 175 
428 7 353 490 170 618 566 161 31 
429 7 268 141 83 503 252 338 508 
430 6 472 220 146 121 325 311 
431 5 360 46 171 570 371 
432 7 299 607 450 24 489 208 613 
433 7 39 650 235 345 130 230 253 
434 7 228 69 480 653 393 651 590 
435 7 635 116 649 123 164 46 193 
436 6 605 562 398 65 90 469 
437 7 75 555 264 467 210 127 388 
438 7 394 463 53 321 219 5 614 
439 7 11 326 516 316 32 132 168 
440 7 424 559 49 187 612 514 152 
441 6 206 113 143 477 501 248 
442 6 295 292 81 461 459 531 
443 7 51 296 70 139 386 451 640 
444 7 339 226 10 369 9 379 16 
445 7 78 482 317 491 166 411 201 
446 7 45 273 595 568 88 160 275 
447 5 159 236 599 66 549 
448 5 342 573 657 638 84 
449 7 15 64 231 72 421 486 3 
450 7 607 24 299 432 208 613 91 
451 7 139 462 587 33 51 443 640 
452 7 196 469 577 274 85 65 495 
453 7 67 190 602 471 12 517 195 
454 7 658 391 293 561 414 28 108 
455 7 18 266 567 166 16 308 136 
456 7 624 8 583 125 277 361 532 
457 5 262 550 61 156 378 
458 7 370 397 509 41 468 494 233 
459 4 442 531 291 81 
460 6 42 615 526 351 35 211 
461 7 292 295 81 442 6 381 626 
462 7 451 139 296 563 632 443 523 
463 7 53 394 438 321 219 5 614 
464 5 58 258 354 347 575 
465 7 79 29 297 505 197 423 524 
466 7 68 664 603 402 285 135 132 
467 7 210 388 127 254 437 75 120 
468 7 397 458 494 41 183 370 509 
469 7 452 65 274 196 562 577 398 
470 7 652 124 109 31 618 161 170 
471 7 12 602 190 67 453 179 540 
472 6 430 220 121 325 146 551 
473 7 571 37 575 191 194 399 338 
474 7 357 104 318 229 26 142 478 
475 7 545 314 325 216 121 146 27 
476 7 148 269 505 423 2 52 359 
477 6 248 441 206 143 113 21 
478 7 229 26 585 537 474 489 245 
479 7 409 511 375 634 648 102 238 
480 7 434 228 393 651 69 77 653 
481 7 420 105 140 425 305 579 656 
482 7 445 78 282 491 166 201 317 
483 4 548 246 96 300 
484 6 289 349 145 117 488 606 
485 7 198 343 247 495 98 623 408 
486 7 15 72 449 238 421 634 64 
487 5 553 574 569 373 35 
488 6 55 243 280 244 117 644 
489 7 160 432 299 607 26 24 273 
490 7 566 428 353 23 507 233 170 
491 7 317 131 166 78 445 482 207 
492 7 384 406 519 99 419 560 232 
493 7 209 524 181 176 48 581 136 
494 5 397 468 458 370 41 
495 7 343 485 198 196 237 247 98 
496 5 177 147 494 96 548 
497 7 348 628 223 275 103 533 40 
498 6 395 332 433 235 39 237 
499 4 357 26 474 142 
500 6 74 214 631 412 372 329 
501 6 663 206 69 513 441 113 
502 7 364 363 200 135 589 647 267 
503 7 141 641 252 429 268 338 508 
504 6 604 365 261 36 515 149 
505 7 423 148 476 2 29 269 465 
506 6 530 284 7 234 4 388 
507 7 23 520 566 490 233 509 428 
508 7 555 437 75 264 83 429 268 
509 7 370 41 458 233 397 468 494 
510 7 603 168 664 516 598 32 132 
511 7 634 479 238 375 409 102 648 
512 7 31 470 652 618 124 109 428 
513 5 302 189 307 501 77 
514 7 662 205 424 329 49 440 152 
515 7 365 604 504 366 36 54 92 
516 7 168 439 32 132 11 326 316 
517 1 67 
518 7 62 224 158 418 87 303 371 
519 6 384 14 99 406 270 549 
520 7 507 23 566 490 233 428 509 
521 5 240 217 281 215 149 
522 7 546 596 313 150 323 20 254 
523 7 632 136 181 567 563 34 48 
524 7 197 493 337 176 48 209 181 
525 7 21 646 248 477 85 97 385 
526 7 615 35 460 42 527 543 373 
527 6 322 188 543 35 276 526 
528 7 405 221 43 576 236 133 301 
529 7 372 114 412 387 329 344 231 
530 6 234 4 506 239 284 590 
531 7 301 133 291 81 292 295 442 
532 7 277 155 601 8 374 624 456 
533 7 497 90 348 627 222 103 223 
534 7 312 66 600 381 6 259 599 
535 7 588 134 617 557 639 153 100 
536 5 151 403 291 576 43 
537 5 396 175 86 245 163 
538 7 202 100 535 621 73 346 19 
539 7 101 298 359 645 138 52 183 
540 6 272 47 91 331 368 12 
541 7 279 122 120 241 83 80 264 
542 6 257 593 642 25 110 249 
543 7 111 322 527 355 333 526 164 
544 7 309 587 16 637 33 266 318 
545 7 475 325 121 216 314 146 220 
546 7 522 254 20 127 596 408 467 
547 6 380 401 515 54 365 149 
548 5 483 246 96 300 260 
549 5 270 447 236 599 14 
550 3 156 457 61 
551 7 390 619 361 125 129 82 624 
552 6 660 260 126 186 548 483 
553 5 487 227 180 42 373 
554 7 57 620 154 614 199 53 556 
555 7 264 75 437 508 83 279 210 
556 2 199 57 
557 7 134 617 588 259 639 153 251 
558 7 293 28 561 454 178 391 658 
559 6 187 440 424 612 49 514 
560 7 419 232 406 99 655 59 263 
561 7 28 454 293 391 658 558 30 
562 7 65 605 469 398 436 452 274 
563 7 632 34 523 181 462 287 48 
564 4 633 63 401 215 
565 7 50 278 621 195 346 286 202 
566 7 490 428 507 23 353 520 618 
567 7 136 523 455 632 18 209 482 
568 7 595 102 648 375 634 486 238 
569 6 574 94 265 212 276 373 
570 6 46 193 591 171 360 82 
571 7 473 37 191 194 399 575 338 
572 7 64 231 582 421 3 114 344 
573 6 448 657 342 84 638 612 
574 6 569 629 94 597 212 487 
575 4 37 473 354 571 
576 7 43 221 133 291 301 528 531 
577 7 196 85 452 274 416 22 343 
578 7 140 105 426 358 579 481 347 
579 7 144 305 630 307 189 140 118 
580 7 80 76 185 393 651 122 653 
581 7 119 182 2 352 389 415 106 
582 7 421 616 572 72 173 344 64 
583 6 8 456 303 277 624 171 
584 6 256 333 250 111 355 115 
585 7 379 245 369 10 339 226 444 
586 7 164 355 649 123 116 184 635 
587 7 309 33 544 637 139 451 16 
588 7 134 557 617 639 535 153 259 
589 7 135 402 340 363 174 364 502 
590 7 653 4 228 284 69 434 7 
591 6 193 570 82 46 171 360 
592 7 304 367 611 71 38 40 315 
593 6 257 642 110 313 522 542 
594 7 165 212 310 597 94 629 265 
595 7 568 102 648 375 45 486 634 
596 7 150 323 522 313 400 350 330 
597 7 629 386 70 594 165 443 574 
598 7 510 625 168 32 603 516 438 
599 7 66 159 534 312 259 447 557 
600 7 6 381 626 312 534 654 461 
601 7 155 532 277 374 382 8 324 
602 7 190 453 67 471 12 195 278 
603 7 664 510 466 68 132 402 516 
604 7 365 504 36 515 366 261 92 
605 6 436 562 65 398 90 469 
606 6 192 336 331 47 427 128 
607 7 299 432 450 24 208 613 91 
608 6 19 100 204 271 73 251 
609 5 172 213 118 383 77 
610 7 422 661 93 157 403 169 151 
611 7 367 304 592 38 71 656 112 
612 6 187 657 440 84 559 424 
613 6 91 208 450 368 607 299 
614 7 154 554 57 53 620 463 394 
615 7 526 35 42 460 373 527 543 
616 6 582 344 173 421 572 72 
617 7 639 153 134 557 588 251 259 
618 7 31 170 161 109 353 428 470 
619 7 551 361 390 125 129 624 82 
620 7 554 57 614 154 199 53 556 
621 7 346 50 202 73 565 538 19 
622 7 287 48 176 34 337 181 563 
623 6 392 237 98 247 198 485 
624 7 456 8 125 361 532 619 277 
625 7 598 614 53 438 394 620 554 
626 6 654 6 600 381 461 312 
627 7 85 97 274 90 525 646 21 
628 7 40 103 348 71 222 497 304 
629 7 597 70 386 574 594 443 296 
630 7 144 579 307 118 172 305 609 
631 5 214 500 74 255 412 
632 7 523 136 563 34 567 181 462 
633 6 401 215 63 521 564 149 
634 7 238 375 511 102 486 568 648 
635 7 435 116 649 123 164 586 46 
636 7 60 54 426 178 380 358 515 
637 7 309 318 33 544 587 640 379 
638 5 407 84 362 657 573 
639 7 617 153 134 251 557 588 204 
640 7 51 33 104 139 13 451 637 
641 6 503 141 252 17 429 249 
642 7 110 257 593 249 542 313 127 
643 5 377 290 311 146 430 
644 7 328 244 55 243 9 128 226 
645 7 359 101 138 298 539 269 2 
646 6 21 525 248 97 385 477 
647 7 30 89 285 225 364 5 162 
648 7 102 375 568 595 634 479 511 
649 7 123 635 116 164 435 586 184 
650 6 39 130 230 345 25 167 
651 7 393 480 434 580 76 653 80 
652 7 124 470 109 31 618 161 297 
653 7 590 80 434 228 393 651 69 
654 5 626 6 600 381 461 
655 7 59 259 588 134 599 557 535 
656 7 112 38 425 611 367 304 592 
657 7 84 612 573 187 638 294 407 
658 7 391 454 414 108 200 293 561 
659 4 371 418 62 158 
660 6 552 260 126 548 186 483 
661 6 93 403 422 610 151 536 
662 7 514 329 205 424 49 152 372 
663 7 69 228 4 434 590 480 501 
664 7 603 466 68 402 132 510 135 
DEPOT_SECTION
   1
   -1
EOF
