NAME :  X-n716-kX-w143-c11.cctp
COMMENT : 	Adapted by Maziero, Usberti and Cavellucci from the Uchoa, Pecin, Pessoa, Poggi, Subramanian, and Vidal (2013)
TYPE :  CCTP
DIMENSION :    698
EDGE_WEIGHT_TYPE : 	EUC_2D	
CAPACITY : 	1007
VERTICES_WITHIN_COVERAGE :  11
VERTICES_WITH_DEMAND : 	143
NODE_COORD_SECTION
1 377 105
2 535 93
3 820 625
4 689 745
5 807 568
6 589 169
7 649 756
8 821 693
9 567 240
10 517 211
11 598 141
12 903 670
13 713 679
14 574 89
15 395 116
16 829 560
17 409 30
18 804 653
19 918 527
20 829 641
21 828 559
22 559 118
23 591 816
24 985 650
25 510 71
26 528 66
27 556 132
28 568 115
29 692 731
30 877 663
31 703 728
32 820 568
33 716 754
34 790 391
35 613 71
36 898 518
37 838 501
38 465 142
39 440 163
40 859 635
41 907 620
42 532 157
43 791 140
44 463 11
45 894 947
46 883 591
47 718 559
48 697 747
49 928 495
50 877 488
51 732 699
52 747 648
53 541 167
54 801 767
55 817 673
56 495 114
57 853 634
58 769 733
59 592 630
60 481 157
61 832 750
62 630 650
63 858 405
64 774 793
65 393 33
66 918 650
67 842 625
68 781 709
69 670 731
70 698 682
71 888 510
72 691 227
73 607 583
74 684 755
75 719 538
76 561 258
77 657 827
78 712 85
79 686 764
80 620 4
81 801 588
82 802 595
83 651 724
84 558 156
85 679 745
86 815 769
87 466 111
88 544 45
89 884 664
90 720 830
91 700 661
92 765 754
93 525 725
94 486 50
95 743 668
96 765 682
97 679 662
98 677 739
99 821 657
100 678 742
101 627 767
102 597 221
103 484 73
104 709 772
105 738 931
106 564 124
107 619 81
108 841 603
109 807 381
110 817 571
111 822 587
112 547 622
113 768 501
114 676 748
115 861 546
116 981 603
117 671 700
118 954 787
119 506 265
120 535 190
121 711 647
122 951 510
123 673 817
124 664 807
125 568 712
126 802 650
127 813 632
128 752 771
129 541 571
130 649 901
131 782 710
132 734 199
133 626 25
134 459 77
135 708 753
136 896 709
137 516 250
138 724 727
139 717 623
140 621 24
141 813 655
142 606 693
143 717 802
144 341 76
145 390 94
146 533 205
147 731 603
148 628 35
149 871 644
150 953 650
151 972 653
152 911 704
153 426 136
154 462 6
155 737 617
156 799 558
157 856 548
158 426 177
159 650 737
160 698 750
161 677 68
162 882 489
163 500 9
164 706 709
165 555 389
166 618 687
167 724 495
168 769 171
169 813 596
170 493 12
171 569 840
172 800 914
173 814 628
174 761 651
175 449 703
176 444 124
177 459 88
178 780 712
179 743 689
180 671 749
181 780 634
182 666 798
183 757 743
184 935 662
185 703 732
186 446 133
187 840 701
188 716 790
189 689 226
190 544 125
191 719 724
192 542 166
193 698 689
194 763 420
195 791 644
196 526 115
197 688 744
198 641 803
199 913 536
200 773 597
201 704 820
202 703 717
203 883 666
204 812 727
205 695 972
206 483 119
207 458 155
208 569 802
209 818 695
210 680 669
211 645 788
212 431 259
213 604 723
214 702 777
215 777 847
216 849 641
217 793 567
218 785 663
219 892 555
220 494 71
221 723 547
222 817 501
223 630 116
224 682 664
225 654 801
226 770 590
227 819 644
228 440 119
229 568 904
230 825 582
231 805 573
232 619 286
233 444 89
234 734 438
235 455 238
236 802 575
237 531 665
238 611 583
239 882 653
240 629 743
241 432 156
242 941 611
243 654 19
244 827 604
245 517 50
246 673 241
247 873 575
248 805 702
249 538 133
250 873 905
251 382 39
252 572 101
253 724 757
254 659 792
255 724 720
256 696 688
257 528 89
258 841 589
259 458 136
260 474 156
261 395 137
262 464 23
263 787 798
264 449 182
265 472 104
266 558 0
267 719 534
268 826 574
269 510 126
270 564 190
271 576 211
272 827 635
273 531 155
274 553 135
275 586 5
276 532 92
277 571 678
278 524 221
279 831 657
280 715 782
281 573 132
282 501 712
283 786 9
284 397 88
285 528 185
286 614 113
287 370 164
288 722 24
289 676 561
290 810 607
291 839 712
292 791 642
293 565 17
294 906 703
295 497 60
296 897 655
297 933 544
298 905 584
299 796 690
300 619 848
301 426 263
302 560 205
303 794 660
304 500 633
305 777 677
306 701 755
307 538 23
308 659 216
309 479 165
310 762 652
311 635 649
312 603 716
313 469 60
314 961 442
315 830 674
316 906 771
317 610 158
318 908 677
319 380 165
320 582 14
321 724 774
322 898 676
323 647 742
324 523 98
325 685 113
326 981 544
327 676 692
328 680 745
329 645 758
330 557 68
331 757 755
332 686 747
333 799 670
334 516 261
335 507 53
336 785 686
337 672 53
338 495 73
339 617 30
340 375 182
341 398 104
342 587 644
343 632 164
344 687 765
345 530 37
346 656 509
347 708 738
348 670 841
349 420 201
350 832 651
351 669 756
352 693 707
353 834 40
354 790 543
355 971 447
356 758 803
357 578 210
358 721 751
359 708 762
360 622 645
361 701 683
362 537 199
363 820 588
364 734 650
365 841 717
366 488 202
367 741 780
368 788 773
369 991 514
370 640 746
371 849 646
372 879 660
373 865 695
374 697 803
375 537 90
376 478 251
377 652 757
378 589 6
379 588 132
380 832 604
381 553 791
382 863 485
383 722 716
384 811 641
385 477 61
386 653 665
387 943 769
388 417 157
389 577 15
390 623 524
391 917 694
392 894 565
393 563 48
394 732 557
395 877 596
396 520 80
397 746 900
398 719 547
399 785 617
400 833 635
401 682 720
402 708 619
403 717 744
404 576 805
405 724 645
406 624 678
407 420 66
408 684 762
409 603 661
410 565 102
411 658 696
412 657 772
413 685 550
414 420 118
415 611 73
416 477 191
417 739 646
418 696 742
419 680 629
420 499 127
421 630 1
422 458 130
423 814 606
424 703 731
425 540 79
426 704 774
427 794 695
428 809 734
429 636 81
430 667 716
431 866 744
432 908 653
433 537 119
434 592 805
435 805 793
436 611 127
437 579 90
438 524 75
439 758 738
440 489 114
441 494 94
442 737 606
443 528 65
444 547 656
445 559 88
446 522 61
447 482 815
448 488 816
449 817 608
450 890 512
451 678 165
452 995 478
453 544 195
454 814 524
455 801 670
456 901 581
457 709 580
458 924 348
459 945 660
460 607 77
461 734 731
462 695 744
463 648 914
464 516 34
465 531 66
466 400 777
467 709 609
468 854 545
469 739 759
470 850 405
471 745 749
472 956 623
473 674 735
474 522 149
475 767 665
476 668 719
477 700 119
478 856 825
479 884 343
480 738 650
481 704 884
482 686 655
483 669 715
484 839 634
485 673 770
486 458 198
487 535 155
488 681 673
489 612 153
490 680 186
491 508 183
492 617 696
493 854 424
494 752 788
495 609 792
496 727 873
497 682 693
498 539 196
499 657 736
500 621 216
501 747 614
502 786 784
503 941 669
504 629 62
505 799 640
506 512 85
507 790 810
508 659 773
509 814 655
510 723 624
511 904 688
512 614 81
513 766 472
514 622 737
515 746 775
516 724 690
517 553 87
518 488 46
519 728 755
520 629 541
521 545 91
522 683 771
523 759 838
524 770 472
525 828 706
526 947 526
527 571 297
528 891 583
529 617 861
530 909 572
531 473 73
532 684 261
533 857 723
534 949 759
535 549 106
536 771 552
537 669 741
538 607 102
539 496 70
540 681 708
541 624 784
542 548 78
543 864 673
544 952 875
545 651 752
546 709 747
547 724 748
548 266 39
549 625 743
550 894 666
551 928 560
552 666 620
553 707 731
554 511 817
555 622 699
556 779 670
557 805 653
558 714 810
559 912 739
560 652 689
561 620 693
562 508 130
563 773 560
564 528 154
565 653 486
566 534 55
567 453 106
568 820 653
569 707 784
570 816 606
571 618 298
572 798 672
573 720 862
574 614 45
575 493 26
576 747 740
577 757 655
578 504 689
579 845 653
580 551 125
581 734 628
582 705 719
583 463 8
584 680 929
585 678 618
586 576 77
587 574 577
588 478 93
589 624 110
590 801 601
591 716 610
592 924 825
593 692 799
594 490 168
595 644 822
596 569 6
597 757 397
598 873 635
599 629 137
600 623 728
601 723 618
602 778 727
603 701 727
604 655 71
605 878 620
606 629 757
607 834 753
608 883 622
609 852 520
610 828 545
611 737 691
612 698 610
613 660 626
614 710 688
615 725 765
616 653 735
617 724 719
618 829 553
619 783 886
620 635 6
621 853 652
622 759 729
623 598 56
624 731 454
625 699 762
626 931 436
627 877 690
628 646 849
629 672 660
630 692 743
631 733 600
632 782 574
633 723 64
634 479 75
635 560 127
636 418 158
637 610 838
638 406 120
639 509 118
640 645 98
641 627 101
642 852 709
643 999 816
644 793 527
645 742 669
646 616 172
647 458 301
648 700 223
649 747 764
650 677 767
651 654 102
652 687 680
653 902 705
654 529 653
655 769 686
656 810 979
657 891 663
658 836 883
659 917 552
660 580 241
661 828 605
662 650 340
663 845 598
664 494 195
665 903 617
666 652 236
667 957 745
668 720 631
669 573 182
670 716 702
671 698 762
672 535 124
673 480 176
674 661 559
675 520 195
676 887 583
677 536 133
678 609 48
679 533 641
680 929 673
681 906 679
682 721 79
683 887 598
684 634 37
685 990 612
686 927 659
687 654 624
688 552 100
689 846 570
690 658 676
691 525 68
692 892 591
693 462 157
694 909 770
695 649 951
696 863 795
697 619 603
698 869 503
DEMAND_SECTION
2 47
3 21
4 19
5 37
6 40
7 79
8 60
9 88
10 84
11 75
12 12
13 42
14 21
15 91
16 6
17 57
18 7
19 66
20 7
21 99
22 75
23 4
24 85
25 10
26 29
27 6
28 20
29 7
30 50
31 26
32 29
33 99
34 45
35 57
36 14
37 33
38 2
39 38
40 43
41 64
42 85
43 84
44 46
45 53
46 45
47 48
48 48
49 85
50 60
51 2
52 17
53 12
54 99
55 43
56 40
57 29
58 13
59 29
60 26
61 66
62 45
63 34
64 33
65 6
66 72
67 34
68 16
69 36
70 69
71 10
72 10
73 12
74 97
75 87
76 24
77 57
78 17
79 86
80 76
81 81
82 30
83 10
84 36
85 28
86 41
87 53
88 7
89 40
90 46
91 28
92 28
93 62
94 51
95 30
96 98
97 53
98 5
99 15
100 27
101 37
102 68
103 11
104 14
105 71
106 97
107 49
108 50
109 43
110 65
111 19
112 42
113 88
114 96
115 57
116 65
117 36
118 28
119 50
120 38
121 84
122 8
123 69
124 29
125 86
126 99
127 29
128 78
129 79
130 23
131 68
132 50
133 26
134 26
135 57
136 10
137 84
138 64
139 35
140 27
141 3
142 18
143 63
144 100
COVERAGE_SECTION
2 11 276 375 257 521 324 425 688 517 535 396 542 
3 11 173 127 272 400 449 20 384 227 570 423 290 
4 11 197 332 630 462 48 418 328 85 160 74 100 
5 11 231 236 110 32 156 217 268 81 16 21 230 
6 11 669 317 646 489 11 270 84 379 281 357 343 
7 11 377 329 545 370 323 412 159 351 508 606 616 
8 11 209 525 248 55 187 315 299 291 427 455 365 
9 11 660 76 271 357 102 302 278 146 270 362 453 
10 11 278 675 146 362 498 120 285 664 491 366 453 
11 11 379 489 436 317 281 6 599 286 646 106 28 
12 11 322 318 681 550 657 296 432 511 89 203 66 
13 11 614 361 70 516 193 256 91 670 652 611 51 
14 11 437 252 586 445 410 517 688 28 330 542 521 
15 11 341 638 261 145 414 284 153 228 388 636 176 
16 11 21 618 32 268 610 110 689 230 5 231 111 
17 11 65 251 407 262 44 154 583 284 145 313 134 
18 11 557 126 141 509 303 384 505 195 568 99 227 
19 11 199 36 297 659 526 450 49 71 551 122 219 
20 11 272 400 227 350 484 568 279 3 99 127 384 
21 11 16 618 32 610 268 110 689 5 230 231 111 
22 11 106 28 635 580 27 535 190 410 274 688 281 
23 11 434 404 208 637 495 171 300 381 541 198 529 
24 11 151 150 685 472 459 116 503 184 242 686 680 
25 11 396 506 539 338 438 691 220 446 295 335 26 
26 11 443 465 691 446 438 566 396 425 25 245 257 
27 11 274 635 580 106 22 190 281 249 677 28 672 
28 11 22 106 410 635 252 281 580 27 535 688 274 
29 11 603 31 185 424 418 630 462 4 197 401 553 
30 11 372 89 203 239 657 543 550 149 296 322 621 
31 11 603 424 185 553 582 29 202 347 191 418 462 
32 11 110 268 16 21 5 230 231 618 111 236 363 
33 11 358 135 253 403 546 547 359 519 615 306 160 
34 11 109 597 194 470 63 493 234 524 513 624 479 
35 11 415 460 512 107 504 623 678 429 574 538 641 
36 11 450 71 19 199 162 698 50 219 49 659 297 
37 11 222 609 382 698 454 50 610 162 468 157 71 
38 11 259 422 207 693 260 186 60 309 176 206 87 
39 11 241 158 207 264 636 693 388 153 186 259 38 
40 11 57 216 598 149 371 621 67 484 579 605 400 
41 11 665 608 605 683 66 432 692 242 296 298 598 
42 10 273 487 564 53 192 474 677 249 84 285 
43 11 168 132 477 682 78 633 325 353 451 490 648 
44 11 583 154 262 170 575 163 518 94 313 385 17 
45 8 250 658 656 544 172 592 619 478 
46 11 395 683 676 692 528 247 456 298 392 605 608 
47 11 398 221 394 75 457 267 413 289 631 147 442 
48 11 160 462 418 630 4 197 306 332 546 135 347 
49 11 122 19 526 36 450 71 199 162 297 50 659 
50 11 162 382 698 71 450 36 37 609 49 19 115 
51 11 611 516 179 670 383 255 617 614 13 164 191 
52 11 417 480 577 364 174 310 95 645 405 581 475 
53 11 192 42 487 273 564 84 285 120 474 453 498 
54 11 86 368 502 435 263 428 61 607 64 92 204 
55 11 315 99 455 141 333 509 572 8 568 279 209 
56 11 440 206 420 639 269 441 562 265 588 87 196 
57 11 40 216 371 67 484 621 400 598 149 579 20 
58 11 602 622 439 183 92 576 178 331 131 68 471 
59 11 342 409 360 697 62 112 311 73 238 277 444 
60 11 260 309 594 673 693 38 207 259 416 420 422 
61 11 607 86 428 204 365 54 431 533 291 525 642 
62 11 311 360 386 406 409 687 613 690 166 59 342 
63 11 470 493 109 479 34 626 382 50 162 458 194 
64 11 263 502 356 494 507 368 128 435 515 367 54 
65 11 251 17 407 284 145 144 341 262 44 154 583 
66 11 432 686 184 296 12 680 318 459 550 503 657 
67 11 484 400 57 216 272 40 20 3 108 371 380 
68 11 131 178 602 427 336 299 248 655 58 622 96 
69 11 473 537 98 476 100 499 430 401 483 85 328 
70 11 361 256 193 652 614 13 488 497 91 210 224 
71 11 450 36 698 162 50 19 382 199 609 49 115 
72 11 189 648 246 308 532 666 490 132 451 500 343 
73 11 238 697 587 520 59 674 390 687 342 360 129 
74 11 408 332 79 344 4 85 114 328 197 100 180 
75 11 267 398 221 47 394 413 167 457 289 536 563 
76 11 9 660 527 334 137 271 357 102 278 302 119 
77 11 595 123 348 124 628 225 198 182 254 211 300 
78 11 682 633 477 161 325 337 604 651 288 640 429 
79 11 344 408 522 74 650 671 625 485 306 332 160 
80 11 421 620 140 133 339 378 148 275 684 243 320 
81 11 82 236 590 169 231 363 5 111 290 217 423 
82 11 590 81 169 290 423 570 363 236 449 111 231 
83 11 616 159 499 323 430 476 69 483 370 473 537 
84 11 192 53 274 487 27 42 273 281 635 249 564 
85 11 328 100 114 98 332 180 197 4 74 473 537 
86 11 54 61 607 435 368 502 428 263 204 64 507 
87 11 265 567 206 422 588 440 177 176 259 228 56 
88 11 566 345 393 307 465 26 330 443 245 446 464 
89 11 203 372 30 657 550 239 296 322 12 543 149 
90 11 201 558 143 573 374 188 523 593 496 356 280 
91 11 482 121 224 70 97 13 210 361 488 652 256 
92 11 331 183 439 58 128 471 649 576 469 622 515 
93 11 282 578 125 237 277 381 444 654 175 213 312 
94 11 518 385 295 313 335 220 539 103 338 575 531 
95 11 645 480 577 52 364 179 417 475 611 174 310 
96 11 655 305 475 556 336 179 95 645 218 577 611 
97 11 224 210 629 482 488 652 91 690 386 70 327 
98 11 100 473 85 328 537 114 69 180 197 332 4 
99 11 568 509 141 279 227 350 55 557 18 20 315 
100 11 85 98 328 114 473 332 537 180 197 4 69 
101 11 606 541 329 240 549 7 370 377 211 545 412 
102 11 357 271 500 660 9 302 270 669 76 6 646 
103 11 634 220 338 531 539 385 295 313 588 94 441 
104 11 426 214 359 280 569 625 321 671 615 33 135 
105 10 397 481 584 205 496 172 619 573 656 695 
106 11 635 22 28 27 281 580 274 190 410 535 252 
107 11 512 415 35 460 429 504 641 538 589 640 286 
108 11 663 380 661 244 258 67 111 449 570 230 363 
109 11 34 470 597 63 194 493 479 234 524 513 624 
110 11 32 268 5 231 230 16 21 236 111 363 156 
111 11 363 230 169 268 110 244 32 258 661 380 570 
112 11 679 444 654 59 237 342 304 129 587 277 409 
113 11 513 524 644 167 354 222 454 536 267 563 624 
114 11 85 180 328 100 98 332 537 74 351 4 197 
115 11 157 468 609 689 247 219 610 618 16 21 392 
116 11 685 472 242 24 151 150 326 459 551 184 41 
117 11 327 497 540 411 483 430 476 560 352 401 652 
118 10 387 534 667 592 694 316 643 559 544 696 
119 10 334 137 376 278 10 76 235 647 9 146 
120 11 498 285 362 453 146 675 53 192 10 491 270 
121 11 405 91 668 364 139 482 510 480 402 417 581 
122 11 526 49 19 297 369 326 199 36 452 659 551 
123 11 124 77 182 348 225 593 374 254 595 201 198 
124 11 182 225 123 254 77 198 595 211 593 374 508 
125 10 277 312 213 142 93 492 561 166 555 600 
126 11 18 557 505 141 195 303 384 509 292 227 568 
127 11 173 384 3 227 272 505 20 400 126 557 568 
128 11 515 649 367 331 494 469 92 471 183 321 615 
129 11 587 112 73 679 238 304 59 654 697 444 342 
130 11 463 584 695 529 628 481 300 348 77 637 595 
131 11 68 178 602 427 248 299 336 58 655 622 96 
132 11 648 168 72 189 490 451 246 308 532 43 477 
133 11 140 148 339 684 620 80 574 421 243 678 504 
134 11 177 531 233 313 634 385 103 588 265 567 87 
135 11 546 306 33 359 160 48 358 403 625 671 347 
136 11 653 294 152 511 391 627 681 322 318 373 559 
137 11 334 119 278 376 10 76 146 9 362 675 366 
138 11 191 255 617 383 461 553 403 347 31 424 547 
139 11 510 601 668 402 591 467 581 155 405 612 147 
140 11 133 339 148 684 80 574 620 421 678 243 378 
141 11 509 568 99 557 18 126 227 384 55 279 350 
142 10 492 166 561 555 312 406 213 409 277 600 
143 11 558 188 280 374 569 201 593 90 214 321 104 
144 11 145 251 284 341 15 65 638 407 261 17 548 
145 11 284 341 15 638 414 407 261 144 233 153 228 
146 11 362 498 120 453 675 10 278 285 302 491 270 
147 10 631 442 155 591 601 501 510 467 139 581 
148 11 684 133 339 140 574 678 504 620 243 80 421 
149 11 598 239 40 372 30 621 57 216 371 89 203 
150 11 459 151 184 503 472 686 24 680 66 242 432 
151 11 24 150 459 472 503 184 685 686 680 116 242 
152 10 294 653 391 136 511 681 318 322 12 559 
153 11 414 186 241 176 228 388 636 638 39 261 259 
154 11 583 44 262 170 575 163 518 94 313 385 17 
155 10 501 442 581 601 147 510 631 139 591 668 
156 11 217 5 231 236 354 110 32 632 563 21 536 
157 11 468 115 689 618 609 610 16 21 247 219 268 
158 11 39 636 241 388 264 349 486 207 153 693 186 
159 11 616 323 499 83 370 545 7 537 377 69 240 
160 11 48 306 462 418 630 4 135 546 197 332 625 
161 11 337 604 78 651 429 640 682 325 633 504 684 
162 11 50 382 698 71 450 36 609 37 49 19 199 
163 11 170 575 464 44 583 154 262 518 307 345 94 
164 11 202 582 670 352 383 31 603 191 255 614 617 
165 7 527 662 571 232 76 647 119 
166 10 561 492 406 142 555 409 312 560 62 213 
167 11 267 624 75 113 513 524 221 398 234 394 47 
168 11 43 132 477 648 490 451 72 189 325 78 682 
169 11 423 570 82 290 363 111 449 590 81 244 661 
170 11 163 575 44 583 262 154 464 518 94 335 245 
171 11 23 404 208 637 434 300 381 529 495 554 229 
172 7 619 658 397 105 656 215 250 
173 11 127 3 384 272 227 505 20 400 449 290 423 
174 11 310 577 52 475 417 480 95 181 556 645 218 
175 11 282 578 93 304 466 237 654 679 444 447 125 
176 11 228 186 422 259 567 153 414 87 38 207 241 
177 11 134 233 567 588 265 531 87 634 103 313 385 
178 11 68 131 602 427 58 336 248 299 622 655 96 
179 11 611 51 516 645 95 96 655 670 13 614 383 
180 11 114 351 537 85 100 328 98 74 473 332 4 
181 11 292 195 399 505 174 310 126 218 303 18 557 
182 11 124 254 225 123 211 198 508 593 412 485 77 
183 11 439 576 331 471 92 622 58 649 469 461 602 
184 10 503 686 459 680 66 150 432 318 12 681 
185 11 424 31 553 603 347 29 418 582 462 202 48 
186 11 176 259 422 228 153 38 207 241 567 693 87 
187 11 291 525 642 365 8 209 373 533 315 248 55 
188 11 280 569 143 321 104 214 426 558 374 593 367 
189 11 72 648 246 308 532 666 490 132 451 500 343 
190 10 580 433 672 249 677 274 27 635 22 106 
191 11 138 255 617 383 553 582 31 202 424 461 185 
192 11 53 42 487 273 564 84 285 120 474 453 498 
193 11 256 70 361 614 652 497 13 352 164 327 670 
194 10 597 234 34 624 513 524 109 113 167 470 
195 11 292 505 126 181 18 303 557 218 384 127 141 
196 10 433 672 324 639 269 190 677 249 562 2 
197 11 4 332 630 462 328 418 48 85 100 74 98 
198 11 225 211 595 254 124 182 541 77 495 123 412 
199 11 19 659 297 36 219 551 450 392 526 71 530 
200 9 226 399 632 590 81 82 501 217 236 
201 11 558 374 90 143 593 123 188 569 280 348 124 
202 11 582 164 603 31 352 424 185 553 191 29 383 
203 11 89 30 372 657 550 239 296 322 12 543 149 
204 11 428 248 525 61 291 365 209 131 602 607 8 
205 11 584 695 105 463 130 397 481 496 573 656 172 
206 11 440 56 420 87 265 588 639 422 441 562 269 
207 11 693 38 260 259 39 60 309 186 422 241 264 
208 11 404 381 434 23 171 495 637 541 554 101 300 
209 11 8 248 525 55 187 299 315 427 291 455 572 
210 11 488 224 97 629 652 482 70 91 327 690 497 
211 11 254 198 225 412 508 541 182 124 101 329 7 
212 9 301 235 376 647 349 486 119 264 366 
213 10 312 600 514 549 142 492 555 240 561 125 
214 11 426 104 569 280 625 359 671 188 344 522 79 
215 9 523 507 619 356 263 64 496 90 573 
216 11 371 57 40 484 621 579 67 400 20 350 149 
217 11 156 236 231 632 5 563 81 110 354 32 536 
218 11 303 556 305 333 572 455 475 195 18 126 292 
219 11 392 530 659 199 247 456 528 676 115 298 551 
220 11 338 539 103 295 25 634 385 531 94 335 441 
221 11 398 75 47 394 267 457 413 536 289 167 563 
222 11 37 454 644 609 610 113 382 354 698 618 524 
223 11 589 641 286 599 436 640 538 651 429 107 512 
224 11 97 210 488 482 629 652 91 70 361 690 256 
225 11 254 124 182 198 211 595 123 77 508 412 541 
226 9 200 632 563 81 399 82 217 501 590 
227 11 384 568 20 272 509 99 127 141 350 18 173 
228 11 176 186 567 414 422 153 259 87 233 38 638 
229 11 171 529 300 637 130 463 23 695 628 404 208 
230 11 111 268 363 110 32 258 169 16 231 244 5 
231 11 236 5 110 217 32 81 156 268 363 82 111 
232 11 571 527 660 666 662 76 9 102 246 500 532 
233 11 177 134 567 228 87 265 407 531 588 176 313 
234 10 624 194 513 597 524 167 113 34 109 565 
235 9 376 212 301 486 366 349 416 264 119 
236 11 231 5 217 81 110 156 32 82 632 363 111 
237 11 654 444 679 578 277 304 112 282 93 125 342 
238 11 73 697 587 520 59 674 687 390 360 613 342 
239 11 372 30 89 203 657 149 296 550 598 432 12 
240 10 549 514 370 606 600 323 159 329 7 101 
241 11 39 636 388 153 158 207 186 693 264 259 176 
242 11 472 41 665 116 150 66 298 459 685 456 530 
243 11 620 684 133 421 148 140 80 337 339 574 504 
244 11 661 380 449 570 423 108 169 290 363 111 663 
245 11 335 446 464 345 566 26 443 691 465 25 295 
246 11 189 666 72 532 308 648 490 500 232 132 451 
247 11 676 46 528 395 392 692 683 689 219 456 115 
248 11 427 209 299 8 525 131 68 204 336 178 55 
249 10 677 672 190 433 274 580 27 196 487 273 
250 8 658 45 172 478 544 619 592 656 
251 11 65 17 407 284 144 145 341 15 233 262 638 
252 11 410 14 437 28 445 688 22 106 517 535 586 
253 11 519 358 615 33 547 403 469 135 321 359 546 
254 11 182 225 211 124 508 412 198 485 123 650 522 
255 11 617 383 191 138 461 582 553 670 164 202 31 
256 11 193 70 361 652 614 497 13 352 327 488 164 
257 11 276 2 375 324 396 438 425 506 521 691 26 
258 11 663 108 230 380 111 689 244 268 363 661 169 
259 11 422 38 186 176 207 693 228 87 260 206 567 
260 11 60 309 693 207 38 594 673 259 422 39 416 
261 11 638 15 388 153 414 636 319 341 287 241 145 
262 11 44 583 154 575 170 518 94 313 163 385 295 
263 10 507 64 502 435 368 356 54 494 86 128 
264 11 486 39 158 207 693 416 241 673 309 349 260 
265 11 87 588 206 567 440 177 441 56 134 422 634 
266 10 596 293 389 275 320 307 378 345 88 393 
267 11 75 398 221 47 394 413 167 457 289 536 113 
268 11 32 230 110 16 111 21 363 5 689 231 258 
269 10 562 639 420 56 196 440 672 474 677 206 
270 11 669 302 453 271 357 498 362 120 6 53 192 
271 11 357 302 102 270 669 9 660 453 498 362 146 
272 11 20 400 3 227 484 127 173 350 384 67 568 
273 10 42 564 487 474 53 192 249 677 84 274 
274 11 27 580 635 190 249 106 677 22 281 672 84 
275 10 378 320 389 596 293 266 80 140 339 421 
276 11 2 257 375 324 521 425 396 438 506 542 517 
277 11 444 125 409 142 342 237 166 492 654 312 561 
278 11 10 146 362 675 498 137 120 453 285 302 664 
279 11 350 99 568 579 20 315 509 141 227 55 371 
280 11 188 569 104 321 214 426 143 615 359 367 625 
281 11 106 635 379 27 28 22 274 580 11 84 190 
282 11 578 93 175 237 654 125 444 277 679 304 381 
283 11 353 288 633 682 78 337 161 43 243 477 325 
284 11 145 341 15 407 638 414 233 261 251 228 65 
285 11 120 675 498 362 453 491 146 53 192 10 42 
286 11 589 538 436 223 641 599 11 107 379 512 640 
287 11 319 340 261 388 636 15 158 638 349 153 241 
288 11 633 682 337 78 161 283 243 604 620 684 148 
289 11 413 674 457 47 398 75 221 267 520 612 346 
290 11 423 570 449 169 590 82 244 661 3 81 173 
291 11 365 187 525 642 533 8 209 204 373 248 428 
292 11 195 505 126 181 18 303 557 384 218 127 141 
293 10 389 596 320 266 275 378 307 393 88 345 
294 10 653 152 136 391 511 681 318 322 627 12 
295 11 539 220 335 338 94 25 518 103 385 245 634 
296 11 657 432 550 239 12 89 203 372 322 30 66 
297 11 551 659 199 19 526 530 122 219 36 392 326 
298 11 456 530 528 692 676 392 46 683 395 219 247 
299 11 427 336 248 572 333 455 209 305 68 131 8 
300 11 529 637 628 595 23 77 198 171 348 434 495 
301 9 212 235 647 376 349 486 119 264 158 
302 11 270 271 357 453 498 362 669 146 120 9 285 
303 11 218 333 18 455 126 557 572 195 292 556 141 
304 11 679 654 237 112 444 578 129 282 277 175 342 
305 11 556 336 655 96 218 475 572 299 333 303 427 
306 11 160 135 625 671 48 359 546 462 418 33 630 
307 11 345 88 464 293 266 566 245 393 596 163 389 
308 11 666 246 189 72 490 500 648 532 451 343 102 
309 11 60 260 594 673 693 207 416 38 264 491 664 
310 11 174 577 475 52 417 480 95 181 218 556 645 
311 11 62 360 386 406 687 409 613 690 629 166 552 
312 10 213 142 600 492 555 514 561 166 125 549 
313 11 385 531 634 94 103 134 518 220 295 338 539 
314 11 355 626 452 49 122 369 526 162 19 50 36 
315 11 55 279 99 8 350 568 209 141 509 579 187 
316 11 694 559 387 534 431 696 118 592 667 136 653 
317 11 489 646 11 343 6 599 436 379 669 281 286 
318 11 681 12 322 511 550 391 680 657 432 296 294 
319 11 287 340 261 388 636 158 15 638 241 153 349 
320 10 389 275 378 596 293 266 339 80 393 140 
321 11 615 280 104 253 188 367 519 359 426 569 469 
322 11 12 681 318 550 511 657 89 203 296 30 372 
323 11 159 370 616 545 499 7 329 377 83 240 537 
324 11 257 276 2 375 196 506 396 438 521 639 425 
325 11 477 651 78 640 161 682 451 604 223 429 641 
326 11 369 526 122 297 551 116 659 19 452 199 685 
327 11 497 117 652 540 411 256 488 193 210 352 70 
328 11 85 100 114 332 98 197 4 180 74 473 537 
329 11 7 377 545 370 323 606 412 101 508 159 240 
330 11 542 517 425 445 393 586 88 465 521 566 14 
331 11 92 183 471 649 128 439 469 576 515 58 622 
332 11 4 197 328 85 630 74 100 462 114 48 418 
333 11 455 572 303 218 18 55 557 126 299 556 141 
334 10 119 137 376 278 76 10 9 146 235 362 
335 11 245 295 446 25 518 539 94 464 220 338 691 
336 11 299 305 427 655 556 572 96 333 68 218 455 
337 11 161 604 243 684 504 429 148 78 633 640 651 
338 11 220 539 103 295 25 634 441 506 385 531 335 
339 11 140 133 148 574 684 678 80 620 421 623 504 
340 11 319 287 261 349 388 636 158 241 39 15 153 
341 11 15 145 284 638 414 261 153 407 228 233 176 
342 11 59 409 360 277 444 62 112 311 406 697 142 
343 11 646 317 489 599 11 6 436 451 223 490 500 
344 11 79 408 522 74 650 671 625 485 306 332 160 
345 11 464 88 307 245 566 446 335 443 26 465 691 
346 10 565 390 520 413 674 289 267 75 167 398 
347 11 553 185 424 546 31 403 418 603 48 462 135 
348 11 77 123 628 595 124 201 182 225 374 593 198 
349 9 158 264 486 39 636 388 241 340 235 
350 11 279 20 568 99 579 227 400 272 371 484 509 
351 11 180 114 650 74 85 485 537 328 408 100 377 
352 11 540 164 202 401 582 497 193 256 603 31 117 
353 11 283 43 288 633 682 78 168 477 161 337 325 
354 11 644 156 536 217 563 5 454 632 231 236 610 
355 11 314 452 626 49 122 369 526 19 162 326 36 
356 11 494 64 263 367 515 128 507 502 523 143 649 
357 11 271 302 102 270 669 660 9 453 498 6 362 
358 11 547 33 253 403 519 135 546 615 359 347 306 
359 11 135 625 104 306 671 33 426 546 160 214 253 
360 11 62 311 409 406 59 342 386 687 166 613 697 
361 11 70 193 256 614 13 652 497 91 488 516 670 
362 11 498 146 453 120 285 675 10 302 278 270 53 
363 11 111 230 169 268 110 244 570 81 82 423 661 
364 11 480 417 405 52 95 645 581 121 577 668 174 
365 11 291 642 187 525 533 8 204 209 373 61 428 
366 11 664 416 673 491 10 486 675 594 309 278 285 
367 11 515 128 494 649 321 469 615 280 188 519 253 
368 11 502 54 64 263 435 86 92 128 331 507 494 
369 11 326 452 122 526 297 49 355 19 314 551 199 
370 11 323 240 7 159 329 545 549 377 606 616 499 
371 11 216 621 579 57 40 484 350 400 20 279 67 
372 11 30 89 203 239 657 550 149 296 543 322 12 
373 11 627 642 543 187 533 291 365 30 136 203 89 
374 11 593 201 558 143 569 188 214 123 280 426 182 
375 11 2 276 521 257 425 324 517 542 688 396 438 
376 9 235 119 137 334 212 366 301 647 278 
377 11 7 545 329 323 370 412 351 508 159 180 499 
378 10 275 320 389 596 293 80 266 140 339 421 
379 11 11 281 436 106 28 635 22 27 286 489 317 
380 11 661 244 108 663 449 570 258 423 111 363 169 
381 11 208 404 434 23 554 171 495 448 541 93 637 
382 11 50 162 698 37 71 609 450 36 222 115 468 
383 11 255 617 191 138 670 164 582 202 461 51 553 
384 11 127 227 505 126 173 557 18 141 509 568 272 
385 11 313 531 94 103 634 518 220 295 539 338 134 
386 11 690 629 311 560 97 62 210 224 488 411 406 
387 10 534 118 667 694 316 559 592 152 643 136 
388 11 636 241 158 153 39 261 186 319 414 638 207 
389 10 320 293 596 275 378 266 393 307 339 80 
390 10 520 346 565 674 238 73 289 413 587 697 
391 10 152 294 511 318 653 681 680 136 322 12 
392 11 219 456 530 528 676 298 247 659 692 46 551 
393 10 88 330 566 293 586 542 307 345 389 623 
394 11 221 47 398 75 267 457 536 563 631 147 413 
395 11 46 683 676 692 528 247 605 608 456 298 663 
396 11 438 506 257 25 691 26 276 443 324 465 446 
397 10 105 496 619 481 573 172 215 523 584 90 
398 11 221 75 47 267 394 413 457 289 167 536 631 
399 9 181 200 590 292 290 505 82 195 173 
400 11 272 484 20 67 3 350 216 227 371 57 127 
401 11 540 476 483 29 69 430 352 473 98 603 202 
402 11 139 467 591 612 601 510 668 121 147 581 155 
403 11 358 547 546 33 347 135 253 519 553 138 185 
404 11 208 434 23 381 495 171 637 541 300 101 198 
405 11 364 121 417 480 668 581 510 52 139 601 91 
406 11 166 561 492 555 142 409 62 560 311 386 360 
407 11 284 233 17 134 145 65 341 177 251 313 414 
408 11 79 344 74 522 650 485 671 332 625 114 351 
409 11 342 360 406 62 166 142 59 311 277 561 492 
410 11 252 28 688 445 14 535 22 437 517 106 521 
411 11 560 117 327 690 430 483 497 476 540 83 386 
412 11 508 377 485 7 329 211 254 351 545 650 522 
413 11 289 674 47 398 75 221 267 457 394 346 520 
414 11 638 153 228 15 176 341 186 261 567 145 233 
415 11 35 460 512 107 504 623 678 429 574 538 641 
416 11 673 366 664 486 309 594 264 491 60 260 693 
417 11 480 364 52 405 581 577 95 174 645 310 668 
418 11 462 630 48 4 160 197 332 29 185 347 424 
419 11 585 552 613 612 687 482 402 629 97 224 467 
420 10 562 269 639 56 440 206 196 474 441 60 
421 11 620 80 133 140 243 339 148 684 378 275 574 
422 11 259 186 38 176 87 228 207 567 206 693 265 
423 11 570 290 449 169 244 590 661 82 380 363 3 
424 11 185 31 553 603 347 29 582 418 202 462 630 
425 11 542 375 521 2 276 517 257 438 465 26 443 
426 11 214 104 569 359 625 671 280 306 344 188 321 
427 11 299 248 336 68 131 178 572 209 305 333 455 
428 11 204 61 607 248 602 54 525 86 131 178 365 
429 11 107 640 504 604 512 641 35 415 651 460 589 
430 11 483 476 69 117 401 540 83 473 411 499 616 
431 11 533 607 61 365 642 291 136 559 316 373 187 
432 11 66 296 12 550 657 686 318 322 89 239 681 
433 10 672 190 196 249 677 580 535 22 27 274 
434 11 23 404 495 208 541 637 381 171 198 300 101 
435 10 263 502 507 54 86 368 64 356 607 61 
436 11 286 11 589 599 223 379 538 489 317 641 281 
437 11 14 252 586 410 445 517 28 688 538 330 460 
438 11 396 691 26 443 465 446 25 257 425 506 276 
439 11 183 622 576 58 92 331 471 602 461 469 649 
440 11 56 206 420 265 639 441 87 269 588 562 422 
441 11 588 56 506 338 440 103 220 265 539 634 206 
442 9 147 631 155 501 601 591 581 510 139 
443 11 26 465 691 446 438 566 396 425 25 245 257 
444 11 237 654 679 277 112 342 59 304 578 409 125 
445 11 517 521 688 14 410 542 252 330 437 586 425 
446 11 443 26 691 465 245 566 438 25 335 396 295 
447 10 448 554 381 208 466 171 404 93 282 23 
448 11 447 554 381 208 171 404 466 93 23 282 434 
449 11 570 423 290 244 661 169 380 3 590 82 173 
450 11 71 36 698 162 50 19 199 382 609 49 219 
451 11 490 343 477 325 308 599 189 646 648 72 132 
452 11 369 355 314 122 326 526 49 626 19 297 199 
453 11 498 362 120 146 285 302 270 675 53 192 10 
454 11 644 222 610 354 37 618 156 21 609 16 32 
455 11 333 572 303 55 18 218 557 141 126 509 299 
456 11 298 528 530 692 676 392 46 683 219 395 247 
457 11 47 467 591 631 147 612 394 398 221 289 413 
458 11 479 63 626 470 314 493 355 109 34 49 162 
459 10 184 503 150 686 680 151 66 432 472 24 
460 11 415 35 512 107 623 538 504 429 678 437 586 
461 11 138 255 576 617 191 383 547 403 471 358 439 
462 11 418 630 48 4 160 197 332 29 306 185 347 
463 11 130 584 695 529 481 628 300 205 348 229 637 
464 11 345 245 335 575 307 446 566 88 163 518 170 
465 11 26 443 691 446 438 566 425 396 245 542 25 
466 10 175 447 448 554 282 93 578 381 208 237 
467 11 591 402 612 139 601 510 147 668 631 442 155 
468 11 157 115 609 610 618 689 16 21 247 219 268 
469 11 649 471 519 253 615 515 128 331 547 358 321 
470 11 63 493 109 34 479 382 50 626 194 162 458 
471 11 576 469 183 331 649 439 519 92 461 547 253 
472 11 242 150 116 151 685 459 24 184 686 66 503 
473 11 98 69 100 537 85 328 114 180 197 332 401 
474 10 564 273 42 487 677 249 562 53 192 269 
475 11 556 310 577 174 305 96 218 655 95 645 52 
476 11 430 483 69 401 473 540 83 117 499 98 537 
477 11 325 78 682 651 451 161 640 633 604 223 490 
478 8 696 435 658 507 592 86 263 316 
479 11 458 63 470 109 493 626 34 314 355 597 194 
480 11 364 417 52 405 95 645 577 581 174 310 668 
481 11 496 573 397 584 348 90 105 130 201 463 628 
482 11 97 224 91 210 629 488 652 121 419 70 361 
483 11 430 476 401 540 117 69 83 473 411 327 499 
484 11 400 67 20 216 272 57 371 350 40 579 3 
485 11 650 522 79 408 508 344 351 412 74 180 114 
486 9 264 416 366 673 664 158 349 39 309 
487 10 42 273 564 53 192 474 249 677 84 274 
488 11 210 224 652 97 629 70 482 327 497 256 91 
489 11 317 11 646 343 599 436 6 379 286 223 281 
490 11 451 308 189 72 648 343 246 132 666 500 646 
491 11 675 664 285 594 120 366 10 673 416 146 362 
492 10 561 555 166 142 406 312 213 600 560 409 
493 11 63 470 382 109 50 162 34 626 37 698 222 
494 11 367 515 356 128 64 649 321 469 331 502 615 
495 11 541 434 23 101 198 404 211 606 208 225 595 
496 10 573 481 397 90 523 215 619 201 105 558 
497 11 327 117 652 256 540 193 352 70 488 361 210 
498 11 362 453 120 146 285 675 302 270 10 53 278 
499 11 616 159 323 83 537 69 473 545 180 98 370 
500 11 102 666 308 357 646 271 660 343 6 246 9 
501 9 155 442 147 581 631 601 510 139 200 
502 11 368 263 64 435 54 507 86 356 494 128 92 
503 10 184 459 680 686 150 66 318 151 391 681 
504 11 35 429 107 415 574 512 678 684 148 460 604 
505 11 292 195 126 384 18 557 127 173 181 227 141 
506 11 396 25 257 438 324 441 276 338 691 539 220 
507 10 263 64 435 502 356 368 215 523 54 494 
508 11 412 485 377 254 650 7 351 211 329 545 522 
509 11 141 568 99 557 18 227 126 384 279 55 350 
510 11 139 601 668 581 155 402 591 405 467 147 442 
511 11 681 318 322 391 294 152 653 12 136 550 627 
512 11 107 460 415 35 429 538 504 641 623 589 286 
513 11 524 113 624 234 167 194 222 644 454 354 597 
514 10 549 240 600 370 606 213 323 159 312 101 
515 11 128 367 649 494 469 321 331 615 471 519 92 
516 11 51 611 614 670 13 179 361 164 193 383 70 
517 11 445 521 542 688 425 375 2 330 410 535 14 
518 11 94 295 385 335 575 313 539 220 103 338 245 
519 11 253 358 547 615 33 469 403 471 321 135 359 
520 10 390 674 346 238 73 289 413 565 697 587 
521 11 375 517 2 688 276 425 542 445 535 257 324 
522 11 344 650 79 408 485 74 671 625 214 351 426 
523 10 215 356 90 507 573 64 496 263 494 558 
524 11 513 113 624 234 167 194 222 644 454 37 354 
525 11 187 291 8 209 365 248 642 204 315 428 533 
526 11 122 297 19 199 49 326 551 659 369 36 450 
527 11 76 571 232 9 660 334 119 137 102 271 357 
528 11 676 692 456 46 298 683 392 395 247 530 219 
529 11 300 637 628 595 130 23 77 171 348 434 463 
530 11 456 298 392 528 551 659 219 676 692 46 683 
531 11 634 103 385 313 134 177 220 588 338 539 94 
532 11 246 72 189 648 666 308 232 490 571 500 132 
533 11 642 365 291 431 187 373 525 61 607 627 136 
534 10 387 667 118 694 559 316 152 294 592 391 
535 11 688 22 410 521 433 2 517 580 190 375 28 
536 11 563 354 632 217 156 644 226 5 236 394 231 
537 11 98 180 473 100 69 114 85 328 499 351 616 
538 11 286 589 641 512 107 436 460 223 415 437 35 
539 11 220 338 295 103 25 634 335 385 94 506 531 
540 11 352 401 117 483 497 430 327 476 202 29 69 
541 11 101 495 211 198 606 329 225 412 254 508 7 
542 11 425 517 330 521 445 375 2 276 465 688 26 
543 11 30 203 372 627 89 373 621 239 579 657 149 
544 9 592 643 250 118 45 387 478 694 316 
545 11 7 377 329 323 370 159 499 616 351 180 412 
546 11 135 347 403 33 160 306 48 358 418 462 359 
547 11 358 403 519 253 33 546 135 615 347 469 461 
548 11 144 251 65 145 284 17 341 15 407 261 638 
549 10 240 514 370 600 606 323 101 329 159 7 
550 11 657 12 89 203 296 322 372 30 239 318 681 
551 11 659 297 530 199 298 19 392 456 219 526 528 
552 11 613 585 687 419 612 482 629 311 402 97 467 
553 11 185 424 31 347 603 582 191 29 202 403 418 
554 11 448 447 381 208 171 404 23 434 93 495 637 
555 10 492 561 166 142 406 312 600 213 560 411 
556 11 305 218 475 336 96 303 572 655 333 455 310 
557 11 18 126 141 509 303 384 505 568 99 195 227 
558 11 143 201 374 188 90 593 569 280 214 321 426 
559 11 694 316 136 152 653 294 534 387 391 667 431 
560 11 411 690 117 327 386 406 497 430 483 555 561 
561 10 492 166 555 142 406 312 560 213 600 409 
562 10 269 420 639 56 196 474 440 206 672 677 
563 11 536 632 217 354 156 226 236 5 231 200 644 
564 10 273 42 487 474 53 192 677 249 84 274 
565 9 346 390 520 167 413 674 289 267 75 
566 11 465 443 26 446 88 691 245 345 438 425 330 
567 11 87 228 177 233 265 176 422 186 588 134 259 
568 11 99 509 141 227 279 350 20 384 557 18 126 
569 11 280 214 426 188 104 321 143 374 593 359 625 
570 11 423 449 290 169 244 661 380 590 82 363 3 
571 11 232 527 662 660 76 666 532 9 246 102 500 
572 11 333 455 303 218 299 55 336 556 18 557 126 
573 10 496 481 90 201 397 523 558 348 215 143 
574 11 678 339 148 623 140 684 133 504 35 415 460 
575 11 170 163 518 464 94 262 335 44 245 295 583 
576 11 471 183 439 461 622 331 469 58 92 519 547 
577 11 174 310 52 475 95 417 480 645 364 556 96 
578 11 282 237 93 654 444 304 679 175 125 277 112 
579 11 371 621 216 350 279 20 484 57 400 40 99 
580 11 190 27 635 274 22 106 249 433 672 677 535 
581 11 155 510 668 601 139 417 501 405 364 442 480 
582 11 202 31 603 164 424 553 185 191 352 383 29 
583 11 154 44 262 170 575 163 518 94 313 385 17 
584 11 463 695 130 205 481 105 397 496 573 628 348 
585 11 419 552 613 612 687 402 467 482 139 591 629 
586 11 14 437 445 330 252 517 410 542 623 460 393 
587 11 73 129 238 112 697 59 520 342 390 679 360 
588 11 265 441 634 177 103 531 87 440 134 206 338 
589 11 223 641 286 538 436 640 599 107 429 512 651 
590 11 82 290 81 169 423 570 449 363 399 111 236 
591 11 467 601 402 139 510 147 612 631 442 668 155 
592 9 118 316 544 694 387 478 696 534 643 
593 11 374 569 201 214 143 558 123 182 188 426 124 
594 11 309 673 60 260 491 416 664 693 366 207 38 
595 11 77 198 225 124 628 123 348 182 211 254 300 
596 10 293 389 266 320 275 378 307 393 88 345 
597 10 194 34 234 109 624 513 524 470 63 493 
598 11 149 40 605 608 57 239 216 371 372 621 30 
599 11 223 436 489 343 589 286 317 11 641 646 379 
600 10 514 549 240 213 312 370 83 159 323 555 
601 11 510 139 591 668 155 402 581 147 467 442 631 
602 11 58 178 131 68 622 439 183 92 428 204 576 
603 11 31 424 185 553 582 29 202 347 418 191 462 
604 11 429 161 337 504 640 651 107 684 641 35 512 
605 11 608 598 40 395 683 149 665 41 46 57 692 
606 11 101 240 549 329 370 7 514 323 377 545 541 
607 11 61 86 428 431 204 54 365 533 291 525 642 
608 11 605 598 665 41 683 149 40 395 46 239 57 
609 11 37 698 468 115 157 610 71 382 454 450 222 
610 11 618 21 16 32 454 468 110 157 268 5 689 
611 11 179 51 516 645 95 670 13 614 96 383 617 
612 11 467 402 591 585 139 419 601 510 668 457 147 
613 11 687 552 419 585 311 629 62 482 386 97 612 
614 11 13 361 193 70 256 516 670 164 652 51 352 
615 11 253 321 519 33 358 469 104 359 547 280 135 
616 11 159 499 323 83 69 370 537 545 7 473 377 
617 11 255 383 191 138 461 582 670 164 202 553 51 
618 11 21 16 610 32 268 110 689 468 5 157 230 
619 8 172 215 397 658 523 496 105 573 
620 11 421 80 133 140 243 148 339 684 574 378 275 
621 11 371 579 216 40 57 149 350 279 484 543 20 
622 11 439 58 183 576 602 471 461 92 331 178 68 
623 10 678 574 35 415 460 512 586 339 504 107 
624 10 234 513 167 524 194 113 597 267 565 75 
625 11 671 306 359 160 344 79 135 426 104 48 214 
626 11 314 355 49 162 50 122 452 493 63 382 71 
627 11 373 543 203 322 30 89 136 511 550 653 372 
628 11 77 348 300 595 529 637 123 124 198 225 130 
629 11 97 224 210 482 488 386 690 652 91 327 419 
630 11 462 4 197 418 48 332 160 29 328 85 74 
631 10 147 442 155 501 591 601 467 510 139 581 
632 11 217 563 226 236 156 231 81 200 536 5 82 
633 11 682 78 288 161 337 477 325 604 651 243 283 
634 11 103 531 385 220 338 313 539 588 134 295 177 
635 11 106 27 22 580 274 28 281 190 249 433 535 
636 11 388 241 158 39 153 261 186 264 319 207 414 
637 11 300 529 23 434 595 628 171 495 198 404 77 
638 11 15 414 341 261 153 145 284 228 176 388 636 
639 10 269 562 420 56 196 440 324 206 672 433 
640 11 651 641 429 223 589 604 107 286 512 538 504 
641 11 589 223 286 640 538 107 429 512 651 436 460 
642 11 291 187 365 533 373 525 627 8 209 431 543 
643 10 118 387 544 534 592 667 694 316 559 696 
644 11 354 454 156 536 222 113 563 610 217 5 618 
645 11 95 480 179 364 577 52 417 611 475 96 174 
646 11 317 343 489 6 11 599 500 669 436 379 102 
647 9 212 301 376 119 235 334 137 366 486 
648 11 72 189 246 532 132 308 490 666 451 500 168 
649 11 128 469 515 331 471 367 92 519 615 183 253 
650 11 485 522 79 408 344 74 351 114 180 508 412 
651 11 640 641 223 429 589 604 325 107 161 286 599 
652 11 488 70 256 210 193 361 497 327 224 97 91 
653 11 294 136 152 511 391 681 318 322 627 12 559 
654 11 237 679 444 304 112 578 277 342 282 59 125 
655 11 96 305 336 556 475 68 179 131 299 427 178 
656 8 172 105 45 250 619 658 397 205 
657 11 550 89 203 296 372 239 12 30 322 432 318 
658 7 250 172 619 478 215 45 507 
659 11 551 199 297 530 19 219 392 456 298 36 526 
660 11 9 76 102 271 357 302 500 270 527 453 146 
661 11 244 380 449 570 108 423 169 290 663 111 363 
662 9 571 232 532 527 246 666 165 72 189 
663 11 108 258 380 661 244 111 230 67 363 689 449 
664 11 366 416 491 673 675 594 10 309 285 486 60 
665 11 41 608 605 683 692 46 298 395 598 66 432 
666 11 308 246 500 189 72 532 648 102 490 232 571 
667 10 534 387 118 559 694 316 152 391 294 653 
668 11 510 139 601 581 405 402 121 591 155 364 417 
669 11 270 6 302 357 271 84 453 53 192 498 120 
670 11 164 516 383 614 51 617 202 255 582 191 193 
671 11 625 306 359 344 79 160 135 426 408 48 104 
672 10 433 190 249 677 196 580 274 27 535 22 
673 11 309 594 416 60 260 664 693 366 491 207 486 
674 11 289 413 520 346 390 457 238 47 73 398 552 
675 11 285 10 120 146 362 491 498 453 278 664 366 
676 11 528 46 692 456 683 247 395 298 392 530 219 
677 10 249 672 190 433 274 580 27 196 474 487 
678 11 574 623 339 35 148 504 415 140 684 133 460 
679 11 654 444 112 237 304 277 342 578 59 129 409 
680 10 184 503 686 318 459 391 681 66 12 432 
681 11 318 12 322 511 550 391 657 294 680 152 203 
682 11 78 633 161 477 325 288 337 604 651 640 429 
683 11 46 692 395 676 528 456 298 605 608 665 247 
684 11 148 133 140 339 574 504 243 678 620 80 421 
685 11 116 472 24 151 242 150 459 326 184 503 686 
686 11 184 66 680 503 459 432 12 318 150 681 296 
687 11 613 552 585 419 311 62 360 629 386 697 97 
688 11 535 521 410 517 445 2 375 22 252 28 276 
689 11 16 258 268 21 157 230 618 32 468 247 115 
690 11 386 560 411 629 210 488 327 97 117 224 497 
691 11 26 443 465 438 446 396 25 566 425 245 257 
692 11 528 46 676 683 456 298 395 247 530 392 665 
693 11 207 260 38 60 309 259 39 673 422 264 186 
694 11 316 559 387 534 118 431 696 667 592 136 653 
695 11 463 584 130 205 481 105 229 529 628 300 397 
696 9 478 316 431 607 694 61 86 435 54 
697 11 238 73 59 687 360 613 62 311 552 342 587 
698 11 50 162 382 71 450 609 37 36 115 468 157 
DEPOT_SECTION
   1
   -1
EOF
