NAME :  X-n766-kX-w76-c9.cctp
COMMENT : 	Adapted by Maziero, Usberti and Cavellucci from the Uchoa, Pecin, Pessoa, Poggi, Subramanian, and Vidal (2013)
TYPE :  CCTP
DIMENSION :    431
EDGE_WEIGHT_TYPE : 	EUC_2D	
CAPACITY : 	166
VERTICES_WITHIN_COVERAGE :  9
VERTICES_WITH_DEMAND : 	76
NODE_COORD_SECTION
1 0 0
2 409 418
3 378 220
4 469 585
5 91 695
6 455 648
7 86 403
8 493 292
9 124 630
10 43 202
11 961 668
12 538 143
13 114 523
14 273 287
15 884 865
16 551 791
17 609 232
18 69 625
19 191 484
20 562 650
21 858 506
22 688 951
23 174 158
24 175 404
25 314 484
26 210 517
27 574 158
28 76 499
29 136 195
30 47 593
31 87 897
32 526 650
33 683 60
34 437 962
35 863 428
36 866 335
37 16 391
38 948 422
39 1 945
40 13 299
41 404 889
42 974 290
43 59 281
44 966 52
45 815 145
46 238 897
47 546 414
48 297 370
49 421 143
50 292 86
51 420 958
52 661 796
53 98 757
54 15 722
55 599 669
56 287 134
57 925 251
58 115 179
59 449 945
60 487 960
61 683 779
62 628 855
63 290 322
64 145 109
65 356 887
66 416 654
67 899 981
68 228 187
69 634 10
70 673 503
71 999 237
72 280 64
73 407 977
74 417 841
75 773 52
76 922 376
77 270 503
78 998 123
79 353 527
80 19 697
81 326 401
82 156 557
83 232 556
84 272 248
85 383 472
86 659 930
87 62 513
88 108 723
89 127 359
90 199 264
91 808 393
92 194 803
93 879 138
94 329 531
95 544 840
96 384 143
97 350 231
98 213 582
99 158 64
100 281 153
101 991 305
102 322 68
103 378 996
104 941 397
105 89 16
106 796 357
107 759 988
108 938 366
109 224 487
110 852 200
111 948 17
112 816 580
113 243 75
114 55 873
115 585 640
116 841 326
117 41 67
118 445 424
119 897 432
120 404 444
121 411 117
122 167 197
123 502 596
124 724 799
125 137 619
126 121 457
127 847 277
128 508 997
129 601 692
130 884 98
131 610 664
132 845 965
133 554 127
134 612 861
135 142 905
136 735 77
137 990 120
138 63 415
139 97 810
140 664 488
141 148 748
142 876 902
143 30 706
144 434 176
145 734 742
146 390 613
147 879 972
148 957 393
149 351 361
150 614 200
151 840 412
152 162 699
153 166 217
154 640 833
155 309 407
156 560 636
157 29 716
158 885 881
159 28 821
160 973 213
161 37 615
162 273 325
163 517 434
164 0 537
165 843 863
166 929 542
167 705 899
168 207 798
169 911 610
170 339 859
171 316 810
172 313 107
173 104 662
174 982 715
175 27 603
176 71 270
177 301 17
178 376 970
179 322 295
180 21 95
181 552 836
182 911 695
183 456 521
184 266 379
185 23 325
186 157 140
187 689 733
188 187 599
189 942 581
190 283 191
191 243 947
192 701 533
193 688 457
194 882 105
195 880 403
196 727 763
197 570 595
198 623 916
199 841 842
200 752 33
201 853 91
202 224 467
203 252 39
204 184 424
205 117 489
206 972 425
207 895 182
208 668 858
209 289 178
210 490 992
211 308 253
212 270 351
213 143 955
214 288 575
215 647 818
216 585 134
217 812 27
218 346 184
219 306 312
220 66 672
221 692 808
222 78 96
223 406 574
224 218 533
225 615 657
226 486 290
227 579 792
228 58 395
229 290 79
230 656 508
231 454 572
232 49 808
233 902 700
234 801 148
235 968 613
236 309 508
237 484 528
238 417 871
239 590 883
240 588 906
241 85 837
242 50 718
243 939 795
244 105 219
245 679 87
246 935 858
247 637 841
248 43 674
249 3 542
250 783 185
251 539 977
252 960 56
253 587 221
254 581 900
255 194 248
256 207 151
257 273 573
258 234 860
259 859 230
260 249 328
261 725 828
262 81 319
263 417 151
264 29 337
265 28 797
266 903 544
267 180 278
268 894 511
269 146 870
270 622 795
271 104 80
272 775 9
273 227 95
274 894 959
275 560 381
276 555 699
277 348 195
278 725 18
279 547 135
280 503 150
281 525 398
282 542 437
283 942 842
284 669 79
285 638 718
286 34 333
287 403 892
288 384 624
289 575 146
290 883 410
291 415 834
292 659 480
293 775 47
294 520 443
295 643 534
296 610 14
297 641 50
298 856 433
299 638 485
300 367 202
301 959 121
302 437 871
303 898 946
304 654 71
305 848 841
306 933 277
307 909 533
308 542 759
309 236 287
310 432 394
311 950 392
312 519 148
313 406 224
314 912 370
315 893 908
316 402 173
317 515 391
318 525 148
319 976 323
320 541 414
321 260 372
322 398 168
323 931 992
324 538 113
325 491 269
326 908 293
327 683 466
328 562 673
329 467 137
330 610 675
331 641 54
332 328 389
333 524 908
334 858 6
335 317 132
336 604 158
337 983 457
338 511 585
339 907 343
340 627 247
341 901 332
342 689 533
343 546 156
344 355 930
345 588 246
346 404 127
347 388 924
348 395 917
349 507 405
350 615 262
351 876 977
352 435 108
353 48 799
354 905 895
355 166 836
356 539 424
357 919 958
358 477 915
359 839 150
360 442 171
361 837 336
362 885 892
363 384 474
364 862 505
365 309 275
366 992 289
367 390 123
368 359 186
369 629 740
370 544 788
371 974 260
372 770 156
373 353 228
374 373 696
375 859 428
376 998 458
377 829 360
378 908 981
379 502 274
380 923 363
381 698 99
382 909 979
383 986 411
384 668 73
385 556 420
386 557 187
387 552 849
388 346 216
389 769 505
390 919 370
391 989 314
392 479 893
393 639 494
394 820 824
395 372 659
396 342 391
397 633 204
398 927 980
399 602 251
400 346 250
401 558 601
402 966 113
403 494 697
404 807 418
405 975 299
406 649 646
407 989 457
408 341 236
409 936 356
410 943 386
411 485 338
412 788 498
413 332 64
414 408 844
415 937 404
416 864 155
417 503 291
418 385 875
419 415 607
420 407 837
421 671 15
422 269 160
423 482 896
424 924 466
425 922 957
426 744 71
427 914 314
428 432 103
429 429 662
430 358 858
431 512 303
DEMAND_SECTION
2 85
3 89
4 71
5 68
6 52
7 76
8 57
9 73
10 89
11 100
12 61
13 92
14 99
15 56
16 91
17 71
18 69
19 79
20 93
21 61
22 94
23 63
24 89
25 88
26 100
27 96
28 92
29 75
30 69
31 72
32 86
33 77
34 68
35 81
36 100
37 95
38 68
39 71
40 79
41 55
42 73
43 82
44 67
45 91
46 96
47 62
48 76
49 53
50 78
51 53
52 61
53 100
54 70
55 57
56 99
57 61
58 55
59 66
60 57
61 70
62 73
63 84
64 80
65 84
66 94
67 53
68 99
69 61
70 96
71 80
72 67
73 87
74 91
75 58
76 84
77 96
COVERAGE_SECTION
2 5 120 310 118 85 363 
3 9 300 373 313 97 388 277 368 408 400 
4 8 231 123 338 419 237 223 6 183 
5 9 88 220 173 242 248 53 143 157 152 
6 8 429 66 419 403 4 123 32 146 
7 9 138 228 89 126 37 262 264 286 24 
8 5 226 417 379 431 325 
9 9 125 173 18 188 220 5 152 82 30 
10 9 244 176 58 43 29 40 180 222 262 
11 6 174 235 182 233 169 189 
12 9 279 318 343 312 133 324 280 289 27 
13 9 205 28 87 82 126 19 26 30 125 
14 9 309 162 365 63 84 219 260 211 179 
15 9 158 362 354 142 165 305 315 199 246 
16 5 370 227 308 181 95 
17 7 399 340 253 345 350 150 397 
18 9 161 30 175 220 173 9 248 125 5 
19 9 109 202 26 224 204 205 126 77 82 
20 9 156 328 115 32 55 276 401 131 225 
21 9 364 268 307 266 412 298 424 35 375 
22 5 86 167 198 107 208 
23 9 186 256 122 29 64 153 68 58 273 
24 9 204 89 126 202 19 7 321 184 109 
25 8 236 77 94 79 85 363 155 81 
26 9 224 109 19 83 202 77 98 82 257 
27 8 289 216 343 336 386 279 133 12 
28 9 87 205 13 126 138 164 249 7 30 
29 9 58 122 153 244 23 186 255 256 64 
30 9 175 161 18 249 164 87 220 248 9 
31 9 114 135 241 269 213 139 159 232 39 
32 8 20 156 328 276 403 123 401 115 
33 8 384 284 245 304 331 381 297 421 
34 9 51 59 73 60 210 178 347 348 358 
35 9 375 298 290 151 195 119 404 91 424 
36 8 116 361 341 339 377 427 314 326 
37 9 228 138 264 286 185 7 40 262 89 
38 8 415 206 104 148 311 410 383 337 
39 9 114 31 159 241 213 232 135 265 353 
40 9 185 286 264 43 176 262 37 10 228 
41 9 287 238 418 348 302 347 414 65 74 
42 8 405 366 101 391 371 319 306 71 
43 8 176 262 40 185 286 264 244 10 
44 7 252 111 402 301 137 78 130 
45 7 234 359 372 416 250 93 110 
46 9 258 191 355 135 269 92 168 170 213 
47 9 320 356 385 282 281 163 275 294 317 
48 9 184 212 332 321 155 81 63 396 162 
49 9 263 346 121 322 144 360 316 96 367 
50 9 229 72 172 102 413 56 113 335 203 
51 9 34 73 59 178 347 348 103 60 287 
52 9 215 61 221 270 154 247 208 124 369 
53 9 88 141 139 5 242 353 232 157 241 
54 9 157 143 80 242 248 220 265 5 353 
55 9 131 330 225 129 115 328 20 156 276 
56 9 100 335 422 172 209 50 229 190 72 
57 8 306 326 371 160 42 427 259 405 
58 9 29 244 122 186 23 153 10 64 222 
59 9 34 51 60 358 73 423 392 348 210 
60 9 210 59 128 358 34 251 333 423 51 
61 9 52 221 124 187 196 215 145 270 261 
62 9 134 247 154 208 215 239 270 198 240 
63 9 162 219 212 14 260 179 48 365 321 
64 9 186 99 271 23 222 256 58 273 29 
65 9 430 418 170 344 287 41 347 348 238 
66 7 429 6 288 395 419 146 374 
67 9 378 382 147 274 351 398 357 425 323 
68 9 256 422 190 23 122 209 100 153 255 
69 5 296 421 297 331 304 
70 9 140 230 292 342 393 327 299 192 295 
71 9 371 160 366 42 405 101 57 306 391 
72 9 229 50 203 113 102 177 413 172 273 
73 9 51 178 34 103 59 347 348 344 60 
74 8 291 414 420 238 302 418 41 287 
75 8 293 200 426 272 136 217 278 201 
76 9 390 314 380 108 410 409 104 311 415 
77 9 236 25 109 202 224 26 83 94 257 
78 7 137 402 301 252 44 160 71 
79 6 94 236 25 363 85 223 
80 9 143 157 54 248 242 220 5 161 18 
81 9 332 155 396 48 149 184 321 212 25 
82 9 188 13 98 125 224 26 83 205 9 
83 8 224 98 257 26 214 188 77 109 
84 7 211 14 365 309 190 179 408 
85 5 363 120 2 79 25 
86 8 22 198 167 208 240 62 134 239 
87 9 28 13 205 164 249 30 126 175 138 
88 9 5 53 141 242 152 173 220 157 143 
89 8 7 262 24 228 138 204 267 286 
90 8 255 267 309 153 122 84 14 260 
91 9 404 151 106 377 298 375 361 35 195 
92 8 168 355 258 141 269 139 46 53 
93 8 416 194 130 359 207 201 45 110 
94 7 79 236 25 214 77 257 363 
95 4 181 387 16 370 
96 7 367 346 322 263 316 49 121 
97 7 373 408 388 400 3 300 277 
98 7 188 83 224 257 82 26 214 
99 9 64 271 186 273 105 113 222 23 203 
100 9 422 56 209 190 335 172 68 50 218 
101 6 391 366 405 42 319 371 
102 6 413 229 50 172 72 177 
103 9 178 73 51 34 344 347 348 59 287 
104 9 415 311 410 148 38 76 108 390 380 
105 9 271 117 222 99 180 64 186 273 23 
106 7 377 91 361 116 404 151 36 
107 2 22 132 
108 9 409 380 76 390 410 314 311 104 148 
109 9 202 19 26 224 77 83 204 236 25 
110 6 259 207 416 359 45 93 
111 8 44 252 334 402 130 301 194 137 
112 5 21 412 364 389 266 
113 9 273 203 72 229 50 56 172 102 177 
114 9 31 241 159 232 353 139 265 39 269 
115 8 20 156 55 225 131 328 330 197 
116 9 361 36 377 127 106 341 339 427 91 
117 9 180 222 271 105 64 99 58 10 186 
118 4 310 2 120 349 
119 9 290 35 195 375 298 424 415 38 104 
120 5 2 85 363 118 310 
121 7 346 367 428 352 49 263 96 
122 9 153 29 23 58 186 255 256 68 244 
123 7 338 4 231 401 32 197 6 
124 5 261 221 196 61 145 
125 7 9 173 188 82 18 152 98 
126 9 205 28 7 13 204 138 19 24 87 
127 7 116 259 361 36 326 110 341 
128 8 210 251 60 34 59 358 333 51 
129 7 330 55 131 225 328 285 276 
130 8 194 201 93 416 359 301 45 402 
131 8 225 330 55 129 115 406 328 20 
132 5 351 147 274 67 303 
133 6 279 324 12 289 343 216 
134 9 62 239 247 154 254 240 215 198 208 
135 9 269 213 31 355 241 114 46 258 139 
136 7 426 381 75 200 293 33 245 
137 7 78 402 301 252 44 160 130 
138 9 228 7 37 126 28 89 264 286 205 
139 9 241 232 353 53 159 265 355 114 269 
140 7 292 70 230 299 393 327 193 
141 8 88 53 152 92 168 5 139 355 
142 7 362 315 158 354 15 303 165 
143 9 157 80 54 242 248 220 5 88 53 
144 5 360 263 316 49 322 
145 6 196 187 124 61 221 261 
146 7 288 419 223 66 395 429 6 
147 9 351 274 67 378 382 303 132 357 425 
148 8 311 104 410 415 38 108 383 206 
149 8 396 332 81 48 155 219 63 179 
150 3 397 17 253 
151 9 375 298 35 404 91 195 290 377 119 
152 7 141 88 173 5 9 125 53 
153 8 122 29 255 90 23 244 267 58 
154 9 247 215 62 208 134 270 52 221 61 
155 9 81 332 396 48 184 321 149 212 25 
156 8 20 115 401 32 328 197 55 131 
157 9 143 54 80 242 248 220 5 88 53 
158 9 362 15 142 354 315 165 305 246 199 
159 9 265 232 353 114 241 139 53 31 54 
160 8 71 371 57 306 42 366 207 405 
161 9 175 30 18 248 220 249 173 80 164 
162 9 63 260 212 219 14 321 48 309 184 
163 8 294 356 282 320 349 47 281 385 
164 9 249 87 175 30 28 161 18 13 205 
165 7 199 305 15 394 158 142 362 
166 8 307 266 189 268 169 424 364 21 
167 4 22 86 208 261 
168 6 92 355 258 141 269 46 
169 6 189 235 266 166 11 307 
170 8 430 65 418 171 414 420 41 287 
171 3 170 430 65 
172 8 335 50 229 56 102 413 72 100 
173 9 5 9 220 18 125 88 248 152 242 
174 6 11 182 233 243 235 169 
175 9 161 30 18 249 164 248 220 80 87 
176 8 43 262 244 40 185 286 10 264 
177 7 72 203 102 413 229 50 113 
178 9 103 73 344 51 347 348 34 59 287 
179 6 219 365 63 211 14 400 
180 9 117 222 271 105 10 64 58 99 186 
181 6 95 387 16 370 227 239 
182 4 233 11 174 169 
183 4 237 231 4 223 
184 9 321 212 48 155 162 260 63 332 81 
185 9 264 286 40 43 262 37 176 228 138 
186 9 23 64 256 58 122 29 99 153 271 
187 8 61 145 196 285 369 52 124 221 
188 7 98 82 125 83 9 224 26 
189 7 166 235 169 266 307 268 11 
190 8 209 422 100 68 56 84 218 277 
191 9 46 258 213 135 344 269 65 170 178 
192 6 342 70 230 140 295 292 
193 4 327 292 140 70 
194 8 130 201 93 416 359 45 207 301 
195 9 290 35 375 119 298 151 314 76 390 
196 7 145 124 61 187 221 261 52 
197 5 401 156 115 20 338 
198 8 240 86 254 239 134 62 208 22 
199 6 305 165 394 15 158 362 
200 9 293 75 278 272 426 136 217 33 421 
201 8 130 194 93 359 416 45 217 234 
202 9 109 19 26 77 204 224 24 83 25 
203 9 113 72 177 229 273 50 102 413 172 
204 9 24 202 19 126 109 89 321 205 184 
205 9 126 13 28 87 19 82 7 138 204 
206 8 383 38 337 148 407 311 415 104 
207 7 416 93 110 259 359 57 194 
208 8 247 154 62 215 167 221 134 52 
209 8 190 100 422 56 335 218 277 68 
210 9 128 60 251 34 59 51 358 73 333 
211 7 365 84 408 400 179 97 14 
212 9 321 162 184 260 48 63 219 14 155 
213 9 135 31 269 191 46 114 355 241 258 
214 5 257 83 94 236 77 
215 9 154 247 52 270 62 208 221 61 134 
216 4 289 27 336 133 
217 9 272 293 75 334 200 201 426 278 136 
218 8 277 368 300 388 373 97 3 408 
219 9 63 179 162 365 14 212 48 211 260 
220 9 248 5 173 18 242 143 80 157 161 
221 8 61 52 124 261 215 208 196 154 
222 9 271 117 180 64 105 99 186 58 10 
223 7 419 146 231 288 4 79 183 
224 9 26 83 109 98 19 77 82 202 257 
225 8 131 330 55 115 406 129 20 328 
226 5 8 417 325 379 431 
227 6 16 370 270 308 181 95 
228 9 138 7 37 264 286 89 185 262 126 
229 9 50 72 102 172 413 113 56 203 335 
230 8 70 140 393 292 295 299 342 327 
231 7 4 223 183 419 237 123 338 
232 9 353 265 159 241 139 114 53 242 54 
233 3 182 11 174 
234 5 45 372 359 250 416 
235 7 189 11 169 166 266 307 182 
236 8 25 94 77 79 214 257 85 363 
237 3 183 231 4 
238 9 302 41 287 414 74 418 420 291 348 
239 8 254 240 134 62 198 387 181 95 
240 8 254 239 198 134 333 62 387 86 
241 9 139 232 114 353 159 31 269 265 53 
242 9 157 143 54 80 248 5 220 88 53 
243 5 283 246 15 174 158 
244 8 29 58 153 176 10 122 43 23 
245 5 284 384 381 33 304 
246 4 283 354 15 158 
247 9 154 62 215 134 208 270 52 239 221 
248 9 220 80 143 157 242 5 18 54 161 
249 9 164 87 175 30 161 28 18 13 205 
250 3 372 234 45 
251 8 128 210 60 333 240 254 358 59 
252 8 44 111 402 301 137 78 130 194 
253 6 17 345 150 399 386 340 
254 8 240 239 198 134 333 387 62 95 
255 8 90 267 153 309 122 68 84 29 
256 9 23 68 186 273 122 422 100 64 153 
257 6 214 83 98 224 77 94 
258 9 46 168 92 355 191 269 171 135 170 
259 5 110 127 207 57 416 
260 9 162 212 63 309 321 14 184 219 48 
261 4 124 221 208 61 
262 9 43 286 176 264 185 89 40 228 7 
263 9 49 322 316 346 144 360 96 121 367 
264 9 286 185 40 262 37 43 228 176 138 
265 9 353 159 232 139 241 54 53 114 157 
266 8 307 166 268 189 364 21 169 424 
267 8 90 255 309 153 122 260 14 29 
268 9 307 364 266 21 166 424 119 189 298 
269 9 135 355 31 241 139 92 213 258 114 
270 8 215 52 154 227 247 369 62 61 
271 9 222 64 99 117 105 186 180 58 23 
272 9 200 293 217 75 278 426 136 334 421 
273 9 113 256 72 203 229 50 56 99 422 
274 9 303 147 67 351 357 382 378 425 398 
275 4 47 320 281 385 
276 3 328 129 20 
277 8 218 368 300 388 373 97 3 408 
278 9 200 272 421 426 293 33 75 136 384 
279 8 133 12 343 324 318 289 312 27 
280 5 312 318 12 329 343 
281 9 317 349 320 47 356 163 385 275 282 
282 6 356 385 47 294 320 163 
283 4 246 243 15 354 
284 6 384 245 304 33 381 331 
285 6 369 129 330 187 131 55 
286 9 264 185 40 262 43 37 228 176 7 
287 9 41 238 418 348 347 302 65 414 74 
288 7 146 419 395 66 223 429 374 
289 7 27 216 133 279 336 343 12 
290 9 195 119 35 375 298 151 314 76 390 
291 7 74 420 414 238 302 418 41 
292 7 140 299 393 70 230 327 193 
293 8 75 200 272 426 217 136 278 201 
294 6 163 282 356 320 47 349 
295 4 230 393 70 342 
296 3 69 297 331 
297 6 331 304 384 284 69 33 
298 9 375 35 151 290 195 119 404 91 364 
299 5 393 292 140 230 70 
300 8 368 277 3 388 218 373 97 408 
301 7 402 137 78 252 44 130 194 
302 9 238 74 41 287 414 291 420 392 423 
303 9 274 357 425 147 67 382 378 315 351 
304 6 384 284 331 297 245 33 
305 6 199 165 394 15 158 362 
306 8 57 326 427 42 371 405 366 319 
307 8 266 166 268 364 21 189 424 169 
308 2 370 16 
309 9 14 260 90 84 162 255 267 63 212 
310 3 2 118 120 
311 8 148 410 104 415 108 38 76 390 
312 7 318 280 12 343 279 324 133 
313 4 3 300 316 373 
314 9 390 76 380 108 339 409 410 104 341 
315 8 142 354 362 158 303 15 274 357 
316 8 322 263 144 96 49 360 300 368 
317 7 281 349 320 47 356 163 275 
318 7 312 12 280 343 279 133 324 
319 5 391 101 405 42 366 
320 9 47 356 385 281 282 163 317 349 294 
321 9 184 212 48 260 162 63 155 332 81 
322 8 316 263 96 49 144 346 368 360 
323 5 398 378 382 67 357 
324 4 133 279 12 318 
325 4 379 226 8 417 
326 8 427 306 341 57 339 36 127 42 
327 6 193 292 140 70 299 230 
328 8 20 276 55 156 115 32 129 330 
329 4 280 360 352 49 
330 8 131 55 129 225 115 328 406 285 
331 5 297 304 384 284 33 
332 9 81 396 155 48 149 184 212 321 63 
333 6 423 392 358 254 60 240 
334 9 217 272 201 111 293 130 75 194 200 
335 7 172 56 100 50 209 422 229 
336 3 27 216 289 
337 8 407 376 206 383 38 424 148 415 
338 6 123 4 401 231 197 237 
339 8 341 380 314 390 427 409 76 108 
340 6 350 17 399 345 397 253 
341 8 339 427 36 380 314 326 390 409 
342 6 192 70 230 295 140 292 
343 8 12 279 318 27 312 133 289 386 
344 9 347 348 65 178 287 418 41 73 103 
345 5 399 17 253 350 340 
346 8 121 367 49 96 263 352 428 322 
347 9 348 344 287 41 51 178 65 418 73 
348 9 347 287 41 344 418 51 65 238 178 
349 7 317 281 163 320 356 47 294 
350 5 399 340 17 345 253 
351 9 147 67 274 378 132 382 303 357 425 
352 5 428 121 346 49 329 
353 9 232 265 159 139 241 53 114 242 54 
354 7 315 362 158 142 15 246 303 
355 9 269 92 168 258 135 139 241 141 46 
356 7 320 47 282 385 163 294 281 
357 7 425 382 398 303 274 378 67 
358 8 423 392 59 60 333 302 34 51 
359 8 45 416 234 93 110 201 194 207 
360 5 144 263 49 316 329 
361 9 116 377 36 106 127 91 341 339 151 
362 8 158 142 315 354 15 165 303 246 
363 5 85 120 2 79 25 
364 9 21 268 307 266 298 424 412 35 166 
365 7 211 179 219 14 400 84 408 
366 8 101 42 405 391 371 319 71 306 
367 6 346 96 121 49 263 322 
368 8 218 277 300 388 3 373 322 316 
369 6 285 270 129 187 52 61 
370 5 16 308 227 181 95 
371 9 42 71 366 405 306 160 101 57 391 
372 3 234 250 45 
373 7 97 388 408 400 3 300 277 
374 3 395 66 429 
375 9 35 298 151 290 195 119 404 91 377 
376 7 407 337 206 383 38 424 148 
377 9 361 106 116 91 36 151 404 195 290 
378 9 382 67 398 323 357 274 425 147 351 
379 5 325 417 8 226 431 
380 9 390 76 314 108 409 339 410 104 341 
381 5 245 284 384 33 136 
382 8 378 67 398 357 274 323 425 147 
383 7 206 148 38 311 337 407 104 
384 6 284 304 245 33 331 297 
385 4 47 320 356 282 
386 4 343 27 253 289 
387 5 95 181 239 16 254 
388 7 373 97 277 408 300 3 218 
389 8 412 192 342 21 112 364 193 327 
390 9 76 314 380 108 409 410 339 104 311 
391 5 101 319 405 366 42 
392 5 423 358 302 333 59 
393 5 299 230 292 140 70 
394 4 199 305 165 15 
395 6 288 374 66 146 429 419 
396 8 332 81 149 155 48 2 184 120 
397 2 150 17 
398 6 323 382 378 357 425 67 
399 6 345 350 17 340 253 150 
400 6 408 97 373 388 211 3 
401 6 197 156 115 20 338 123 
402 7 301 137 78 252 44 130 194 
403 1 32 
404 9 91 151 298 375 35 106 377 195 290 
405 7 42 101 366 391 319 371 306 
406 6 225 131 330 55 115 129 
407 7 337 376 206 383 38 424 148 
408 7 97 373 400 388 211 3 277 
409 7 108 380 390 76 314 410 339 
410 9 311 104 148 415 108 76 390 380 409 
411 4 431 8 226 417 
412 8 389 21 364 404 112 192 298 151 
413 5 102 229 50 172 72 
414 9 420 74 291 238 418 302 41 287 430 
415 9 104 311 410 38 148 76 108 390 206 
416 9 93 359 207 110 45 194 130 234 201 
417 5 8 431 226 379 325 
418 9 41 287 65 238 430 414 348 420 74 
419 9 146 223 288 66 231 6 429 4 395 
420 8 414 291 74 238 418 302 41 430 
421 9 69 297 33 331 278 384 304 296 284 
422 9 100 209 56 190 68 335 256 172 50 
423 5 392 358 333 302 59 
424 9 119 38 268 337 206 415 407 290 307 
425 7 357 398 303 382 274 378 67 
426 7 136 75 200 293 381 278 33 
427 7 326 341 339 306 409 380 36 
428 4 352 121 346 49 
429 6 66 6 395 419 288 146 
430 9 170 65 418 414 420 41 287 238 74 
431 6 417 8 226 379 325 411 
DEPOT_SECTION
   1
   -1
EOF
