NAME :  X-n733-kX-w292-c11.cctp
COMMENT : 	Adapted by Maziero, Usberti and Cavellucci from the Uchoa, Pecin, Pessoa, Poggi, Subramanian, and Vidal (2013)
TYPE :  CCTP
DIMENSION :    731
EDGE_WEIGHT_TYPE : 	EUC_2D	
CAPACITY : 	25
VERTICES_WITHIN_COVERAGE :  11
VERTICES_WITH_DEMAND : 	292
NODE_COORD_SECTION
1 500 500
2 143 12
3 206 907
4 895 855
5 640 970
6 865 716
7 993 356
8 618 966
9 963 539
10 50 979
11 241 998
12 32 206
13 288 926
14 299 507
15 336 180
16 589 726
17 665 488
18 36 521
19 112 895
20 814 442
21 843 474
22 17 258
23 360 273
24 814 537
25 775 524
26 825 471
27 321 87
28 773 958
29 119 166
30 368 928
31 193 250
32 452 919
33 736 322
34 386 911
35 624 313
36 694 398
37 186 803
38 948 721
39 216 973
40 915 641
41 238 810
42 946 172
43 23 561
44 613 657
45 359 434
46 604 96
47 56 554
48 862 723
49 222 161
50 974 838
51 775 67
52 815 880
53 204 362
54 435 760
55 593 358
56 203 435
57 882 803
58 194 739
59 380 323
60 836 461
61 537 136
62 789 669
63 956 1000
64 98 295
65 656 410
66 580 959
67 594 64
68 459 43
69 425 559
70 262 31
71 522 339
72 960 74
73 237 910
74 353 828
75 420 281
76 721 524
77 185 679
78 703 303
79 923 491
80 444 792
81 567 476
82 987 930
83 113 210
84 907 45
85 383 799
86 209 192
87 34 820
88 464 717
89 837 536
90 202 94
91 177 341
92 551 3
93 835 467
94 128 655
95 988 937
96 179 369
97 487 765
98 975 406
99 365 411
100 440 41
101 607 487
102 57 898
103 161 707
104 0 517
105 210 88
106 524 195
107 682 409
108 608 55
109 16 909
110 846 379
111 183 242
112 586 182
113 948 682
114 324 44
115 380 573
116 339 188
117 629 32
118 589 805
119 934 907
120 848 633
121 890 973
122 98 787
123 964 391
124 171 837
125 261 409
126 637 133
127 541 313
128 946 388
129 479 636
130 818 503
131 188 602
132 887 643
133 981 839
134 585 570
135 383 325
136 288 219
137 407 596
138 707 525
139 56 193
140 523 502
141 102 374
142 282 573
143 90 56
144 538 143
145 614 30
146 237 435
147 823 405
148 363 560
149 192 314
150 826 849
151 541 870
152 604 432
153 292 364
154 131 65
155 990 723
156 944 209
157 68 210
158 564 354
159 865 378
160 646 604
161 883 273
162 362 499
163 313 888
164 49 95
165 797 864
166 93 297
167 439 445
168 74 429
169 76 683
170 152 66
171 796 886
172 716 113
173 693 324
174 263 134
175 893 184
176 549 927
177 817 770
178 976 350
179 692 957
180 227 408
181 323 894
182 169 573
183 106 959
184 982 365
185 292 960
186 552 181
187 505 588
188 119 372
189 506 122
190 160 569
191 208 381
192 530 266
193 947 928
194 857 644
195 990 518
196 178 652
197 305 811
198 834 331
199 577 316
200 607 398
201 471 599
202 111 69
203 149 735
204 437 140
205 38 10
206 37 315
207 841 876
208 870 781
209 806 151
210 789 38
211 238 478
212 182 984
213 272 20
214 869 228
215 880 423
216 231 683
217 142 8
218 611 385
219 760 234
220 950 575
221 823 394
222 676 27
223 823 573
224 850 625
225 923 848
226 552 189
227 468 743
228 522 560
229 756 931
230 55 920
231 47 187
232 136 376
233 838 595
234 833 785
235 367 992
236 938 833
237 389 681
238 856 363
239 184 380
240 751 956
241 831 424
242 927 752
243 711 219
244 479 537
245 288 947
246 175 63
247 111 514
248 603 634
249 90 763
250 557 925
251 3 914
252 682 68
253 269 277
254 360 979
255 958 203
256 854 930
257 59 285
258 697 384
259 999 813
260 332 70
261 399 474
262 8 315
263 102 310
264 913 612
265 429 919
266 567 461
267 700 906
268 465 439
269 995 588
270 969 530
271 173 949
272 440 702
273 141 839
274 641 740
275 361 430
276 365 318
277 621 920
278 337 330
279 50 481
280 347 468
281 387 470
282 642 51
283 486 875
284 568 101
285 95 19
286 463 673
287 864 522
288 792 430
289 607 489
290 541 477
291 830 978
292 859 434
293 485 690
294 944 765
295 990 934
296 186 358
297 494 823
298 563 350
299 396 727
300 272 211
301 104 980
302 625 64
303 58 830
304 190 270
305 989 645
306 179 252
307 437 360
308 93 576
309 521 190
310 607 277
311 949 574
312 713 437
313 282 382
314 113 15
315 459 368
316 858 925
317 552 873
318 235 360
319 790 779
320 916 377
321 817 710
322 336 721
323 213 486
324 350 900
325 262 829
326 109 521
327 960 308
328 207 862
329 282 555
330 72 702
331 707 705
332 970 106
333 75 217
334 88 275
335 249 910
336 622 92
337 794 539
338 190 261
339 912 562
340 239 9
341 232 154
342 53 42
343 951 789
344 26 748
345 222 65
346 170 643
347 801 788
348 889 86
349 927 290
350 986 224
351 473 21
352 937 197
353 332 363
354 399 590
355 58 719
356 983 139
357 757 833
358 262 684
359 225 375
360 44 366
361 344 764
362 882 90
363 720 250
364 840 219
365 570 238
366 514 534
367 868 870
368 291 431
369 733 850
370 871 381
371 71 526
372 24 626
373 464 212
374 617 137
375 311 775
376 869 818
377 219 453
378 871 952
379 647 941
380 354 911
381 787 715
382 703 108
383 715 611
384 217 201
385 778 655
386 636 539
387 231 139
388 896 875
389 135 951
390 149 310
391 490 146
392 30 507
393 629 789
394 170 132
395 862 16
396 965 567
397 358 377
398 585 856
399 296 401
400 247 913
401 247 435
402 728 971
403 821 717
404 127 290
405 552 702
406 889 108
407 43 645
408 59 842
409 354 427
410 811 541
411 646 634
412 200 595
413 65 882
414 190 682
415 892 397
416 911 972
417 924 847
418 175 582
419 120 413
420 251 281
421 496 123
422 868 438
423 252 427
424 489 227
425 176 25
426 824 82
427 281 949
428 594 400
429 690 884
430 551 492
431 784 755
432 739 785
433 587 545
434 10 280
435 412 385
436 798 253
437 747 872
438 118 205
439 397 649
440 878 239
441 240 664
442 48 117
443 677 390
444 13 41
445 698 192
446 253 630
447 263 759
448 19 187
449 266 971
450 976 790
451 298 612
452 87 602
453 670 316
454 761 466
455 672 776
456 237 724
457 91 189
458 229 296
459 980 970
460 817 9
461 663 691
462 581 178
463 16 299
464 1 430
465 972 560
466 93 782
467 285 764
468 298 972
469 556 678
470 624 36
471 488 752
472 37 137
473 409 568
474 104 641
475 32 545
476 881 445
477 477 892
478 48 558
479 528 812
480 316 928
481 158 954
482 46 518
483 288 114
484 160 636
485 806 196
486 267 514
487 829 404
488 59 134
489 223 704
490 956 308
491 368 523
492 987 3
493 170 703
494 938 925
495 330 705
496 742 338
497 859 58
498 116 155
499 840 71
500 456 252
501 451 777
502 973 57
503 225 138
504 85 372
505 567 505
506 64 454
507 518 310
508 917 341
509 776 30
510 529 433
511 955 382
512 62 317
513 102 781
514 584 849
515 471 40
516 966 476
517 524 326
518 20 822
519 209 361
520 896 507
521 470 876
522 711 235
523 13 312
524 450 114
525 324 779
526 104 241
527 931 251
528 57 522
529 923 27
530 712 427
531 470 964
532 54 752
533 693 963
534 311 479
535 271 194
536 964 724
537 176 808
538 384 936
539 371 981
540 846 857
541 945 504
542 791 719
543 509 607
544 348 704
545 837 32
546 95 639
547 751 372
548 75 958
549 270 637
550 62 898
551 994 91
552 80 955
553 744 327
554 162 587
555 458 595
556 372 168
557 330 379
558 66 190
559 197 229
560 413 716
561 184 835
562 151 81
563 591 356
564 616 852
565 35 1
566 996 23
567 845 854
568 850 475
569 693 951
570 880 672
571 495 614
572 936 622
573 544 21
574 289 72
575 906 45
576 146 971
577 54 319
578 412 160
579 769 573
580 709 340
581 268 211
582 640 263
583 604 137
584 305 190
585 305 835
586 66 597
587 260 693
588 566 121
589 867 589
590 990 771
591 413 711
592 580 374
593 729 641
594 409 283
595 67 679
596 386 329
597 249 424
598 528 22
599 55 599
600 476 8
601 862 134
602 255 769
603 537 489
604 296 575
605 578 236
606 699 693
607 503 884
608 746 832
609 489 958
610 672 855
611 267 330
612 677 724
613 262 795
614 191 708
615 978 896
616 394 834
617 645 6
618 976 593
619 106 659
620 156 888
621 962 119
622 948 243
623 955 217
624 674 251
625 615 425
626 733 282
627 151 182
628 613 431
629 586 480
630 160 725
631 154 682
632 90 574
633 935 608
634 760 475
635 749 859
636 177 967
637 297 396
638 269 829
639 550 370
640 397 539
641 389 199
642 123 973
643 498 893
644 226 358
645 504 637
646 966 481
647 364 615
648 597 134
649 12 93
650 139 824
651 246 744
652 391 718
653 867 221
654 192 857
655 70 999
656 945 599
657 91 436
658 375 330
659 90 117
660 549 410
661 295 420
662 140 382
663 390 352
664 945 422
665 160 621
666 645 42
667 379 971
668 829 47
669 951 753
670 250 732
671 297 758
672 350 340
673 4 293
674 17 762
675 710 511
676 610 493
677 242 988
678 214 834
679 13 547
680 164 342
681 659 346
682 809 539
683 930 196
684 522 862
685 831 144
686 974 862
687 11 303
688 643 667
689 409 926
690 584 675
691 137 732
692 442 514
693 626 494
694 719 243
695 14 859
696 288 802
697 790 425
698 160 720
699 679 76
700 501 66
701 789 555
702 893 652
703 995 293
704 855 486
705 586 489
706 604 475
707 153 435
708 76 380
709 728 97
710 186 15
711 175 942
712 346 707
713 834 13
714 232 991
715 408 267
716 798 568
717 104 139
718 540 509
719 27 383
720 16 704
721 818 141
722 611 568
723 540 277
724 544 996
725 829 952
726 146 558
727 276 452
728 370 965
729 72 268
730 555 758
731 898 424
DEMAND_SECTION
2 5
3 3
4 1
5 1
6 5
7 9
8 9
9 3
10 2
11 3
12 4
13 1
14 2
15 4
16 1
17 10
18 9
19 3
20 3
21 3
22 2
23 3
24 1
25 1
26 4
27 5
28 8
29 4
30 7
31 5
32 10
33 3
34 5
35 1
36 10
37 5
38 2
39 1
40 4
41 5
42 4
43 10
44 6
45 4
46 8
47 3
48 6
49 1
50 2
51 2
52 2
53 1
54 7
55 6
56 5
57 4
58 5
59 2
60 3
61 5
62 1
63 5
64 3
65 3
66 10
67 10
68 1
69 5
70 2
71 6
72 3
73 9
74 6
75 9
76 7
77 2
78 9
79 7
80 8
81 3
82 3
83 5
84 10
85 6
86 4
87 9
88 1
89 2
90 6
91 10
92 8
93 6
94 4
95 1
96 8
97 3
98 8
99 7
100 6
101 4
102 1
103 8
104 3
105 9
106 8
107 7
108 10
109 8
110 2
111 10
112 5
113 2
114 4
115 1
116 9
117 1
118 6
119 6
120 8
121 9
122 8
123 7
124 6
125 1
126 10
127 10
128 1
129 9
130 2
131 3
132 10
133 2
134 3
135 1
136 3
137 3
138 2
139 5
140 7
141 2
142 1
143 7
144 4
145 6
146 5
147 1
148 2
149 5
150 10
151 1
152 3
153 4
154 1
155 3
156 1
157 1
158 6
159 3
160 2
161 7
162 10
163 6
164 3
165 1
166 5
167 8
168 1
169 8
170 8
171 2
172 1
173 7
174 1
175 1
176 4
177 10
178 6
179 2
180 2
181 2
182 1
183 8
184 4
185 3
186 6
187 7
188 4
189 6
190 6
191 6
192 6
193 5
194 4
195 6
196 10
197 3
198 1
199 5
200 3
201 10
202 4
203 6
204 6
205 4
206 9
207 6
208 3
209 2
210 8
211 5
212 2
213 2
214 4
215 1
216 10
217 2
218 3
219 8
220 9
221 9
222 5
223 2
224 3
225 8
226 4
227 1
228 3
229 9
230 7
231 6
232 9
233 5
234 3
235 6
236 4
237 3
238 9
239 7
240 8
241 8
242 1
243 7
244 4
245 7
246 4
247 4
248 8
249 7
250 1
251 5
252 8
253 1
254 10
255 6
256 10
257 3
258 10
259 10
260 5
261 1
262 8
263 3
264 5
265 10
266 5
267 2
268 8
269 8
270 7
271 7
272 6
273 4
274 5
275 9
276 2
277 8
278 7
279 2
280 5
281 6
282 3
283 7
284 4
285 4
286 5
287 1
288 5
289 7
290 2
291 4
292 9
293 10
COVERAGE_SECTION
2 11 217 314 425 710 285 154 170 246 202 143 562 
3 11 73 400 335 328 711 654 271 620 39 481 636 
4 11 388 225 417 367 376 236 540 567 57 207 119 
5 11 8 379 277 533 179 569 66 267 402 250 429 
6 11 48 403 570 321 208 702 177 194 242 542 132 
7 11 184 178 123 511 98 128 327 490 703 508 320 
8 11 5 379 66 277 250 179 533 569 176 724 267 
9 11 270 465 396 195 220 311 541 339 618 646 269 
10 11 655 548 552 301 183 230 642 109 251 102 550 
11 11 677 714 39 449 212 427 468 185 245 636 271 
12 11 448 231 139 157 558 333 22 457 472 729 434 
13 11 245 427 480 185 335 400 163 181 468 449 73 
14 11 534 486 329 727 280 162 142 211 604 491 368 
15 11 116 584 556 641 136 535 300 581 578 483 174 
16 11 405 730 690 274 469 44 393 118 688 461 612 
17 11 693 675 676 138 101 289 386 706 76 312 530 
18 11 482 392 528 475 371 679 104 47 478 43 279 
19 11 620 413 550 102 389 230 273 183 552 548 408 
20 11 241 288 60 697 26 93 147 487 21 292 221 
21 11 568 93 60 704 26 130 20 292 422 476 241 
22 11 434 673 463 687 257 12 523 729 262 206 157 
23 11 276 715 594 59 135 658 75 278 596 672 641 
24 11 410 682 337 89 701 130 716 223 25 287 579 
25 11 337 701 682 410 24 130 579 716 634 76 454 
26 11 93 60 21 568 20 130 704 241 292 288 422 
27 11 260 574 114 483 174 70 213 15 556 345 116 
28 11 240 229 402 725 291 171 533 569 179 256 52 
29 11 498 717 457 627 438 83 659 558 394 157 333 
30 11 538 380 34 324 728 689 667 254 480 539 181 
31 11 338 111 306 304 559 384 458 86 149 420 390 
32 11 265 477 689 521 531 643 609 283 607 34 538 
33 11 553 496 580 78 626 173 547 453 258 363 681 
34 11 30 538 689 380 324 265 728 667 181 32 480 
35 11 310 453 199 681 582 563 55 173 298 158 218 
36 11 258 107 443 530 65 312 580 547 681 173 496 
37 11 537 561 124 678 650 41 654 273 328 58 613 
38 11 536 669 242 113 155 294 590 343 450 6 570 
39 11 714 677 11 212 636 271 449 711 481 73 3 
40 11 702 132 572 264 633 570 656 113 194 120 224 
41 11 613 325 678 638 602 696 37 447 561 328 537 
42 11 352 683 255 156 623 356 175 621 350 332 622 
43 11 679 475 478 47 18 482 104 599 528 392 586 
44 11 248 688 690 411 461 469 160 16 405 274 722 
45 11 275 409 99 280 281 261 397 557 162 534 661 
46 11 336 67 284 302 648 108 583 374 588 126 282 
47 11 478 475 371 528 43 482 18 632 308 586 679 
48 11 6 403 321 570 208 177 234 242 542 381 702 
49 11 341 503 387 86 384 174 535 394 581 90 300 
50 11 133 686 259 236 450 417 225 343 615 590 294 
51 10 210 509 426 709 668 499 545 460 172 713 
52 11 171 165 207 150 540 567 367 316 256 437 635 
53 11 519 296 191 644 359 96 239 318 91 680 149 
54 11 501 80 227 560 299 88 97 471 591 272 652 
55 11 563 592 158 298 218 200 428 199 639 35 681 
56 11 377 146 180 401 597 423 707 323 191 211 239 
57 11 376 208 234 4 225 417 567 236 540 242 367 
58 11 614 630 698 493 203 489 103 456 651 670 414 
59 11 135 596 658 276 663 672 278 594 23 75 397 
60 11 93 21 26 568 20 704 292 241 422 130 476 
61 11 144 588 189 421 186 284 391 226 309 106 648 
62 11 385 381 321 542 403 593 120 194 224 431 6 
63 11 459 416 95 121 193 295 82 494 119 378 615 
64 11 166 263 334 404 729 257 512 577 390 526 206 
65 11 107 443 36 625 628 258 200 218 152 530 312 
66 11 8 250 176 724 277 5 379 317 609 151 398 
67 11 108 302 46 145 336 470 284 117 282 666 588 
68 11 515 100 351 600 700 524 598 421 573 189 204 
69 11 473 640 354 137 115 692 555 244 201 148 491 
70 11 213 340 574 345 114 105 710 260 27 425 90 
71 11 517 507 127 298 639 158 199 723 592 315 563 
72 11 502 332 551 621 84 529 575 566 356 348 492 
73 11 400 335 3 13 328 427 245 39 449 654 711 
74 11 616 85 585 197 525 361 375 696 163 181 324 
75 11 594 715 500 135 59 596 23 276 658 663 307 
76 11 138 675 25 634 17 579 454 337 701 386 312 
77 11 414 196 493 614 631 103 346 489 216 698 484 
78 11 173 453 580 626 33 553 496 363 624 681 694 
79 11 541 520 646 516 270 9 476 287 704 195 339 
80 11 501 54 97 227 297 471 85 616 88 299 560 
81 11 266 629 430 705 290 505 603 706 101 289 718 
82 11 295 95 615 193 459 494 119 686 63 416 133 
83 11 438 457 526 333 29 157 627 558 498 139 231 
84 10 575 529 348 497 362 395 72 406 502 545 
85 11 616 74 361 80 525 54 501 299 375 197 652 
86 11 384 49 559 341 111 503 387 627 31 535 581 
87 11 518 303 408 695 674 413 466 532 122 344 513 
88 11 227 272 293 471 286 560 591 54 97 501 299 
89 11 24 410 682 287 130 223 337 716 701 704 233 
90 11 105 345 246 394 503 562 387 170 341 49 174 
91 11 680 296 96 149 53 519 239 390 191 644 232 
92 11 573 598 145 67 600 108 351 470 700 117 515 
93 11 60 21 26 568 704 20 130 292 241 422 476 
94 11 619 474 484 546 631 346 665 196 169 77 103 
95 11 295 82 459 193 615 494 119 63 686 416 133 
96 11 239 296 53 91 191 519 680 662 232 359 644 
97 11 471 227 501 80 54 88 297 479 730 293 272 
98 11 123 511 128 664 184 7 178 320 516 646 731 
99 11 275 409 45 397 557 435 353 280 281 663 399 
100 11 68 515 351 600 700 524 598 204 421 189 573 
101 11 289 676 706 693 705 629 81 505 266 152 430 
102 11 550 413 230 109 19 251 408 695 552 548 303 
103 11 493 698 630 631 203 614 691 77 414 58 196 
104 11 392 679 18 475 482 43 528 279 478 47 371 
105 11 90 345 246 503 387 394 562 170 174 341 425 
106 11 309 226 186 424 144 462 61 391 373 112 365 
107 11 36 443 65 258 530 312 681 625 628 580 218 
108 11 67 302 470 145 117 282 666 336 46 284 617 
109 11 251 230 102 550 695 413 548 10 552 408 518 
110 11 159 238 370 221 487 147 241 198 415 215 292 
111 11 306 31 559 338 304 384 86 627 458 149 404 
112 11 462 186 226 583 648 374 605 365 144 106 588 
113 11 38 536 40 305 155 572 702 570 669 132 242 
114 11 260 27 574 213 70 483 340 345 174 100 105 
115 11 148 354 473 137 640 647 69 491 162 439 555 
116 11 15 584 556 641 136 535 300 581 578 23 483 
117 11 470 145 666 282 108 617 302 67 222 336 252 
118 11 393 514 398 564 730 479 317 16 151 274 455 
119 11 494 193 615 388 82 225 686 417 95 295 4 
120 11 224 194 233 132 589 702 570 223 40 264 62 
121 11 416 378 256 316 291 725 494 63 193 119 459 
122 11 466 513 249 650 532 303 273 408 691 87 203 
123 11 511 128 98 184 664 178 7 320 508 415 731 
124 11 561 537 654 273 650 37 678 328 620 41 3 
125 11 597 423 401 180 313 146 399 661 368 637 727 
126 11 374 583 648 336 46 302 112 382 699 462 588 
127 11 517 507 71 199 723 298 158 192 639 563 55 
128 11 511 123 320 98 664 184 178 415 508 7 731 
129 11 645 571 201 286 543 555 293 187 272 88 137 
130 11 26 24 682 21 89 410 93 704 337 568 60 
131 11 412 418 554 665 182 190 484 346 196 726 446 
132 11 702 40 194 570 120 264 224 572 589 633 233 
133 11 50 686 259 236 450 615 343 417 225 590 119 
134 11 433 722 386 228 248 505 160 718 366 676 705 
135 11 59 596 658 276 663 672 278 594 23 75 397 
136 11 300 581 535 584 116 253 15 420 384 86 341 
137 11 354 473 115 69 647 555 439 148 640 201 129 
138 11 76 675 17 25 386 634 579 454 383 693 701 
139 11 558 231 157 12 333 457 448 83 472 488 438 
140 11 718 603 430 290 366 505 81 244 228 266 705 
141 11 188 504 708 232 662 419 360 168 657 263 512 
142 11 604 329 451 486 446 549 14 148 412 647 115 
143 11 202 285 342 154 314 164 659 170 562 2 205 
144 11 61 588 189 186 421 226 391 309 284 106 462 
145 11 470 117 108 666 282 302 67 617 222 336 46 
146 11 401 597 423 377 180 56 125 211 727 368 323 
147 11 487 221 241 110 20 697 288 292 159 238 370 
148 11 115 491 640 354 473 647 137 162 69 604 329 
149 11 91 680 458 390 296 304 53 519 338 644 96 
150 11 567 540 207 52 165 367 171 376 234 347 4 
151 11 317 684 607 398 514 643 283 250 176 479 297 
152 11 628 625 200 428 706 266 218 629 101 65 81 
153 11 313 637 399 353 557 611 125 278 661 318 672 
154 11 202 170 562 143 246 314 2 217 285 425 659 
155 11 536 38 590 669 113 294 450 242 343 305 259 
156 11 352 623 255 683 622 42 527 350 175 440 214 
157 11 333 558 139 231 457 12 83 526 438 448 729 
158 11 298 639 592 563 55 199 71 127 517 428 218 
159 11 370 238 110 415 487 221 215 147 320 198 292 
160 11 411 722 248 44 688 386 383 134 433 461 593 
161 11 440 214 349 527 653 364 622 198 508 490 327 
162 11 491 280 281 261 640 534 148 14 45 275 409 
163 11 181 324 480 13 380 585 245 30 335 427 400 
164 11 442 649 488 472 659 342 143 444 202 717 205 
165 11 171 52 150 207 635 540 567 357 437 608 369 
166 11 64 263 334 404 257 729 512 577 390 526 206 
167 11 268 261 281 435 692 275 315 45 99 307 409 
168 11 657 506 419 708 279 504 141 719 360 188 464 
169 11 595 330 619 355 546 407 474 94 720 532 372 
170 11 562 154 246 202 425 2 90 217 710 105 143 
171 11 52 165 207 150 437 635 540 567 229 357 256 
172 11 382 709 699 252 51 126 445 222 336 282 209 
173 11 78 580 453 681 33 496 553 626 258 443 35 
174 11 387 483 341 503 49 535 574 105 584 90 27 
175 11 683 653 352 214 42 156 440 601 364 255 623 
176 11 250 66 317 151 643 607 609 724 684 277 8 
177 11 234 347 319 431 403 208 542 321 381 48 376 
178 11 184 7 511 123 327 490 128 98 508 703 320 
179 11 533 569 402 379 267 5 240 229 429 8 277 
180 11 597 146 423 191 359 125 401 56 377 318 519 
181 11 163 324 380 480 13 30 585 245 34 427 74 
182 11 190 418 554 726 131 412 665 484 346 308 326 
183 11 301 642 552 389 548 576 481 655 10 19 230 
184 11 7 178 123 511 98 128 327 490 320 664 508 
185 11 468 245 427 449 13 480 677 11 400 335 714 
186 11 226 462 106 309 112 144 61 365 605 588 648 
187 11 543 571 228 201 555 645 129 366 244 134 69 
188 11 141 232 662 504 419 708 680 96 263 239 91 
189 11 421 391 61 144 700 524 588 284 309 204 106 
190 11 182 554 726 418 131 412 665 308 484 326 632 
191 11 359 53 519 239 644 96 296 180 318 91 56 
192 11 723 507 127 365 424 605 517 199 106 71 500 
193 11 494 119 82 95 295 615 459 416 686 63 121 
194 11 120 224 132 570 702 233 589 40 264 6 62 
195 11 270 9 646 465 541 516 396 311 220 269 79 
196 11 346 484 77 414 665 631 94 131 493 614 103 
197 11 696 585 375 525 638 613 325 74 467 671 361 
198 11 238 110 159 370 221 487 147 161 508 436 415 
199 11 127 298 158 563 55 35 310 517 723 592 507 
200 11 428 218 625 152 628 592 55 563 65 660 158 
201 11 555 571 187 129 543 645 69 244 137 228 473 
202 11 154 143 170 562 285 659 314 246 342 2 164 
203 11 691 630 698 103 493 58 614 631 249 513 77 
204 11 524 578 391 421 189 556 641 373 309 700 68 
205 11 565 342 444 285 143 314 164 649 202 217 2 
206 11 577 523 512 463 262 687 257 673 434 360 166 
207 11 540 567 52 367 150 165 171 316 388 256 4 
208 11 57 234 376 177 48 242 6 347 294 567 4 
209 10 721 685 485 601 426 364 499 51 175 406 
210 10 509 51 460 668 545 713 426 499 497 395 
211 11 323 377 146 401 486 727 423 56 597 14 180 
212 11 636 39 271 481 576 711 714 389 642 677 11 
213 11 70 340 574 114 345 260 27 710 105 483 425 
214 11 653 440 364 161 175 527 683 485 352 436 156 
215 11 731 422 476 292 415 370 159 241 487 110 60 
216 11 441 489 358 587 414 456 77 614 670 446 549 
217 11 2 314 425 710 285 154 170 246 202 143 562 
218 11 200 428 55 592 563 625 628 152 65 158 298 
219 11 436 694 363 522 243 626 485 445 364 624 78 
220 11 311 396 656 465 618 633 9 339 269 270 572 
221 11 147 487 110 241 159 238 697 288 20 370 292 
222 11 666 617 252 282 117 699 470 145 302 108 336 
223 11 716 233 410 24 682 701 89 337 589 579 224 
224 11 120 194 233 589 132 702 570 223 264 40 62 
225 11 417 236 4 388 50 686 133 367 119 57 376 
226 11 186 106 309 462 112 144 365 605 61 588 648 
227 11 471 88 97 54 501 272 80 293 560 591 286 
228 11 366 187 244 543 718 140 571 134 201 433 505 
229 11 240 28 402 171 437 267 569 179 533 635 725 
230 11 102 550 413 109 548 552 251 10 19 183 695 
231 11 139 558 12 448 157 333 457 472 488 83 442 
232 11 662 188 141 419 96 680 239 504 296 91 708 
233 11 223 589 224 120 716 194 89 410 24 682 701 
234 11 177 347 208 319 376 57 431 150 48 403 567 
235 11 539 254 667 728 538 30 468 689 185 380 480 
236 11 417 225 50 133 343 686 4 450 388 57 259 
237 11 439 652 591 560 299 544 712 272 495 322 647 
238 11 159 110 370 198 221 487 415 147 320 215 508 
239 11 96 296 191 53 519 91 359 680 662 644 232 
240 11 28 229 402 533 569 179 267 725 291 171 437 
241 11 487 147 20 292 221 60 288 422 697 93 26 
242 11 294 669 38 343 536 450 208 590 57 155 48 
243 11 522 694 445 363 624 219 626 78 582 436 485 
244 11 366 692 228 140 187 69 555 201 718 603 543 
245 11 427 185 13 468 449 480 400 335 677 73 163 
246 11 170 562 425 90 105 154 345 710 2 202 217 
247 11 326 371 528 726 632 308 482 47 279 190 18 
248 11 44 411 690 160 688 469 134 722 461 405 433 
249 11 466 513 122 532 355 691 330 203 344 674 303 
250 11 176 66 317 151 277 643 607 684 724 8 398 
251 11 109 230 102 695 550 413 10 548 552 408 518 
252 11 699 222 282 382 666 709 172 302 117 336 470 
253 11 420 458 611 136 300 581 304 31 338 535 149 
254 11 539 235 728 667 538 30 468 480 380 185 689 
255 11 623 156 352 683 42 350 622 527 175 356 621 
256 11 316 378 725 291 121 207 367 52 388 416 171 
257 11 729 334 512 577 166 206 64 463 434 22 263 
258 11 36 443 107 530 580 65 681 312 547 173 496 
259 11 133 450 50 590 343 686 236 294 669 417 225 
260 11 27 114 574 483 213 70 174 556 15 345 340 
261 11 281 162 167 280 45 275 491 692 409 640 99 
262 11 523 687 463 673 206 434 577 512 22 257 360 
263 11 64 166 404 334 512 390 577 257 729 141 188 
264 11 633 572 40 656 132 702 339 589 220 311 194 
265 11 689 32 34 538 477 521 531 30 283 609 667 
266 11 81 629 290 705 430 706 603 505 152 510 101 
267 11 429 569 179 533 437 610 229 379 369 635 240 
268 11 167 510 315 261 435 692 281 307 290 140 603 
269 11 618 465 396 220 311 656 305 9 633 270 572 
270 11 9 195 465 541 396 311 220 646 516 79 618 
271 11 711 481 636 576 212 389 39 3 642 620 183 
272 11 88 591 560 286 293 227 299 652 237 54 439 
273 11 650 124 561 537 620 654 37 19 122 328 513 
274 11 612 455 393 16 461 688 331 606 118 690 44 
275 11 45 409 99 280 281 397 261 557 661 435 162 
276 11 59 658 135 596 672 278 663 23 353 594 397 
277 11 379 8 5 66 250 564 176 398 429 569 179 
278 11 672 276 353 658 59 135 557 596 397 153 663 
279 11 506 392 482 18 528 371 168 657 104 475 247 
280 11 162 45 534 275 281 409 261 491 99 14 368 
281 11 261 162 280 45 275 409 491 167 99 640 692 
282 11 666 302 117 470 108 145 222 252 617 699 336 
283 11 521 477 607 643 684 297 151 32 317 265 479 
284 11 588 46 648 67 61 583 144 336 108 374 189 
285 11 314 143 217 342 2 202 154 205 565 170 425 
286 11 293 272 129 88 645 591 560 571 227 439 201 
287 11 89 520 704 568 130 21 24 410 682 93 339 
288 11 697 20 241 147 487 221 454 26 60 634 93 
289 11 101 676 706 693 705 629 81 505 266 430 152 
290 11 603 430 81 140 266 718 505 629 510 705 366 
291 11 725 378 256 28 121 316 416 240 229 171 52 
292 11 422 215 476 241 60 731 93 487 568 21 20 
293 11 286 88 272 129 227 645 471 405 469 97 591 
294 11 669 242 343 450 38 536 590 155 236 57 259 
295 11 95 82 459 615 193 494 119 63 686 416 133 
296 11 96 53 91 239 519 680 191 644 359 149 318 
297 11 479 684 283 97 521 80 607 501 151 643 471 
298 11 158 639 563 592 55 199 71 127 517 218 428 
299 11 652 560 591 237 54 272 544 712 322 361 88 
300 11 581 535 136 584 384 86 253 341 15 49 116 
301 11 642 183 552 548 655 389 576 10 481 636 271 
302 11 108 282 336 470 666 67 117 145 46 699 252 
303 11 408 87 518 413 695 122 466 513 102 550 249 
304 11 338 31 306 111 559 149 458 390 420 404 91 
305 11 618 113 269 572 656 633 40 155 220 311 396 
306 11 111 31 338 304 559 149 384 404 390 86 458 
307 11 315 435 663 596 135 59 658 75 397 594 276 
308 11 632 452 586 47 599 478 371 726 326 546 247 
309 11 106 226 186 424 144 391 61 373 462 112 365 
310 11 582 35 199 605 365 723 624 453 127 192 563 
311 11 220 396 656 465 618 633 9 339 269 270 572 
312 11 530 107 36 258 454 443 634 65 17 675 547 
313 11 153 637 399 125 661 557 368 318 353 597 423 
314 11 285 2 217 143 154 202 170 425 342 710 205 
315 11 307 435 71 268 663 517 167 507 596 135 59 
316 11 256 378 725 207 367 121 291 52 388 540 416 
317 11 151 684 398 514 607 250 176 643 283 479 564 
318 11 644 359 519 53 191 611 180 296 313 125 239 
319 10 347 431 177 234 432 542 357 381 403 608 
320 11 415 128 508 511 370 123 731 159 664 215 238 
321 11 403 542 381 48 6 62 431 177 385 319 570 
322 11 495 712 544 361 671 652 525 299 375 237 467 
323 11 211 377 56 146 401 486 423 597 727 180 707 
324 11 380 181 30 34 163 480 538 689 13 728 74 
325 11 638 41 613 696 585 197 678 602 328 467 447 
326 11 247 371 528 726 632 308 47 482 190 279 478 
327 11 490 349 703 178 508 7 184 527 622 511 128 
328 11 654 678 561 124 3 73 620 41 537 37 325 
329 11 142 604 486 14 451 446 148 534 549 211 412 
330 11 169 355 595 532 619 720 249 407 344 546 474 
331 10 606 612 461 593 688 274 455 381 542 432 
332 11 621 551 72 356 502 42 406 348 566 84 575 
333 11 157 558 139 457 526 83 231 12 438 729 334 
334 11 729 64 166 257 263 526 404 512 577 333 206 
335 11 400 73 13 3 427 245 449 328 185 163 480 
336 11 46 302 67 108 126 374 282 583 648 284 666 
337 11 682 410 701 24 25 716 579 89 130 223 233 
338 11 304 31 306 111 559 458 149 390 420 384 404 
339 11 311 220 264 656 633 589 396 9 520 465 287 
340 11 70 213 710 345 425 574 105 246 114 90 2 
341 11 49 387 503 174 86 384 535 394 90 581 483 
342 11 205 143 444 565 285 164 202 649 314 442 154 
343 11 294 450 669 590 242 236 50 259 133 417 225 
344 11 674 532 355 720 330 249 87 518 466 595 122 
345 11 105 90 246 70 340 425 710 213 574 170 503 
346 11 196 484 665 77 631 94 414 131 412 554 493 
347 11 319 177 234 431 432 357 150 208 542 608 376 
348 10 362 406 497 575 84 499 601 426 529 72 
349 11 490 327 527 161 622 508 703 440 178 623 156 
350 11 623 255 622 156 352 527 683 42 703 356 327 
351 11 600 515 68 100 700 598 573 92 524 421 189 
352 11 683 156 255 42 623 175 622 527 350 440 356 
353 11 557 672 397 278 153 637 399 313 658 276 99 
354 11 137 473 115 69 647 148 640 439 555 201 491 
355 11 330 532 169 595 344 720 249 674 466 407 513 
356 11 621 332 551 42 72 255 352 683 156 502 623 
357 11 608 635 369 437 165 432 319 347 171 150 52 
358 11 587 441 216 489 456 549 670 446 651 495 414 
359 11 644 191 318 519 53 180 239 296 96 125 597 
360 11 719 708 504 577 206 512 141 262 523 168 687 
361 11 525 375 322 671 85 712 467 544 197 495 299 
362 10 348 406 497 499 601 84 575 426 668 545 
363 11 694 522 243 626 219 624 78 445 33 436 173 
364 11 653 214 485 440 436 175 161 209 685 219 721 
365 11 605 192 723 226 310 112 186 462 106 309 582 
366 11 228 140 244 718 603 187 430 505 290 543 433 
367 11 540 207 388 567 4 150 376 52 316 225 417 
368 11 661 727 399 637 125 423 597 401 313 534 146 
369 11 635 608 437 357 429 610 267 432 165 171 229 
370 11 159 238 110 415 215 320 487 221 731 147 292 
371 11 528 482 47 18 326 478 247 475 392 279 632 
372 11 407 599 586 43 452 595 478 546 169 720 47 
373 11 424 500 309 106 391 578 641 204 715 75 192 
374 11 583 126 648 46 336 588 112 462 284 302 67 
375 11 525 671 467 361 696 197 447 613 602 322 585 
376 11 57 208 567 4 540 234 367 150 225 417 388 
377 11 56 146 211 401 323 423 597 180 727 125 707 
378 11 121 256 316 725 416 291 494 119 193 388 207 
379 11 5 277 8 569 179 533 267 66 429 402 610 
380 11 324 30 34 181 538 480 163 728 689 667 13 
381 10 542 321 403 431 62 385 177 319 347 48 
382 11 172 709 699 252 126 51 282 336 445 222 666 
383 11 593 579 160 411 385 606 138 76 688 701 716 
384 11 86 559 49 341 581 111 535 31 300 306 387 
385 11 62 593 381 542 321 120 403 383 224 194 579 
386 11 722 693 433 676 289 17 101 134 160 705 138 
387 11 503 341 49 174 90 105 86 394 483 384 535 
388 11 4 367 225 417 119 540 207 567 236 316 376 
389 11 481 576 642 183 271 711 301 636 552 212 548 
390 11 404 680 91 149 263 64 166 304 296 338 306 
391 11 421 189 61 144 524 204 309 106 186 373 226 
392 11 18 482 528 104 279 475 679 371 43 47 478 
393 11 118 455 274 564 16 514 610 398 730 612 461 
394 11 90 627 562 503 105 498 49 29 387 341 717 
395 10 713 545 497 668 460 575 84 499 529 348 
396 11 465 220 311 9 618 269 270 656 633 339 195 
397 11 557 353 99 672 663 409 658 278 275 435 596 
398 11 514 564 317 151 118 684 479 277 250 176 393 
399 11 637 661 313 368 125 153 557 423 353 597 727 
400 11 335 73 3 13 427 245 449 185 328 39 163 
401 11 423 146 597 125 377 180 727 56 211 368 661 
402 11 240 533 179 569 28 229 267 379 5 429 437 
403 11 321 542 381 48 6 177 431 62 234 319 347 
404 11 64 390 263 166 334 526 729 306 680 304 257 
405 11 469 690 16 730 293 44 471 645 248 88 97 
406 10 362 348 601 497 499 575 84 685 426 621 
407 11 372 595 599 169 546 586 474 452 330 619 720 
408 11 303 87 413 518 695 102 550 122 466 19 513 
409 11 275 45 99 280 397 281 557 661 368 399 261 
410 11 682 24 337 89 701 716 223 130 25 579 287 
411 11 160 688 44 248 461 383 690 722 606 593 134 
412 11 131 418 182 554 190 665 346 484 196 446 726 
413 11 550 102 230 408 19 303 109 695 87 251 518 
414 11 77 614 493 196 631 103 489 216 346 698 630 
415 11 370 731 215 320 159 422 110 476 238 292 128 
416 11 121 378 63 494 193 119 459 256 316 291 725 
417 11 225 236 4 388 50 686 133 57 119 367 376 
418 11 182 554 190 131 412 726 665 484 346 196 308 
419 11 657 662 232 707 188 141 168 504 708 506 239 
420 11 253 458 611 304 338 31 149 136 581 300 559 
421 11 189 391 61 144 524 700 204 588 309 284 106 
422 11 292 476 215 731 60 241 568 21 93 415 704 
423 11 597 401 146 125 180 727 368 377 661 56 399 
424 11 373 500 106 309 192 723 226 186 391 365 75 
425 11 710 2 217 246 170 154 345 562 314 340 105 
426 10 499 668 497 51 545 210 362 721 685 601 
427 11 245 185 13 449 468 480 335 400 677 73 11 
428 11 200 218 592 625 152 628 55 563 660 639 158 
429 11 267 610 369 437 635 569 379 179 608 277 533 
430 11 603 290 718 505 81 140 266 705 629 101 289 
431 10 319 177 347 542 381 403 432 321 234 357 
432 10 608 319 357 431 347 369 455 635 177 542 
433 11 134 722 505 386 705 676 289 718 101 430 693 
434 11 673 463 22 687 523 262 206 257 577 729 512 
435 11 307 663 315 99 397 596 167 658 135 275 59 
436 11 219 364 485 626 214 653 363 694 440 198 161 
437 11 635 369 357 608 165 171 267 429 229 52 610 
438 11 83 457 29 526 627 333 157 498 558 139 717 
439 11 237 647 137 354 591 272 560 652 286 544 712 
440 11 214 653 161 364 527 175 683 622 349 156 352 
441 11 216 358 587 446 549 489 414 77 456 196 614 
442 11 488 164 472 659 649 717 231 143 342 558 139 
443 11 36 107 258 65 681 530 312 580 218 173 200 
444 11 205 342 565 649 164 143 442 285 472 202 314 
445 11 243 522 694 363 624 219 172 382 126 582 626 
446 11 549 441 451 358 216 587 142 412 604 131 196 
447 11 602 467 651 670 671 613 456 696 375 41 525 
448 11 12 231 139 558 472 157 333 488 22 457 442 
449 11 427 185 677 468 245 11 714 13 39 400 335 
450 11 590 343 259 294 669 50 133 236 242 536 155 
451 11 604 549 142 446 329 647 441 358 148 587 115 
452 11 586 308 632 599 546 474 47 478 619 407 94 
453 11 173 681 78 35 580 582 624 33 626 258 310 
454 11 634 288 697 312 20 25 530 26 130 675 76 
455 10 393 274 612 432 331 610 461 606 118 608 
456 11 670 651 489 587 216 447 58 358 602 614 441 
457 11 558 83 157 438 333 139 29 498 231 717 526 
458 11 420 149 253 304 611 338 31 644 318 306 519 
459 11 95 295 63 82 193 494 416 615 119 121 686 
460 10 713 545 210 668 395 509 497 499 51 426 
461 11 688 606 612 331 274 411 44 690 16 248 593 
462 11 112 186 226 583 648 144 374 605 106 588 61 
463 11 687 523 673 262 434 206 22 577 257 512 729 
464 11 719 506 279 168 360 392 104 657 708 18 482 
465 11 396 9 220 311 270 618 269 195 656 339 633 
466 11 122 513 249 532 303 650 691 408 87 355 203 
467 11 671 447 375 602 696 613 525 651 670 197 361 
468 11 185 245 427 449 13 480 677 254 11 714 235 
469 11 405 690 16 44 248 645 293 730 543 129 571 
470 11 117 145 666 282 108 302 617 67 222 336 46 
471 11 97 227 88 501 54 80 293 730 272 297 479 
472 11 488 442 164 231 649 448 659 139 558 717 12 
473 11 69 354 137 115 640 148 555 491 692 647 201 
474 11 546 619 94 452 169 595 484 586 665 407 599 
475 11 43 679 478 18 47 482 528 392 104 371 599 
476 11 422 215 292 731 568 21 60 415 704 93 241 
477 11 521 283 643 607 32 684 265 609 151 297 531 
478 11 47 475 43 528 679 18 371 482 599 586 632 
479 11 297 684 151 730 118 97 317 514 398 471 283 
480 11 13 245 181 163 185 427 380 324 468 30 728 
481 11 271 576 711 389 636 212 642 183 301 39 620 
482 11 18 528 392 371 475 47 279 478 679 104 43 
483 11 174 574 27 260 387 503 341 584 114 49 15 
484 11 346 665 196 94 131 631 554 77 414 418 474 
485 11 364 209 721 436 685 219 653 214 440 601 175 
486 11 14 329 211 534 142 323 727 604 377 401 146 
487 11 147 221 241 110 20 292 159 697 288 370 238 
488 11 442 472 659 164 717 231 558 139 498 649 457 
489 11 216 456 614 587 670 414 441 358 58 77 651 
490 11 327 349 703 178 508 7 527 184 622 511 320 
491 11 162 640 148 115 281 261 280 473 69 14 534 
492 11 566 502 529 72 551 84 575 332 621 395 348 
493 11 103 698 614 630 631 77 414 203 58 691 196 
494 11 193 119 82 615 95 295 416 459 388 121 378 
495 11 712 322 544 361 652 671 237 299 358 587 375 
496 11 553 33 580 547 173 78 626 258 453 36 443 
497 10 499 668 545 362 348 395 426 575 84 713 
498 11 29 717 457 627 659 438 83 394 488 558 139 
499 10 426 497 668 545 362 348 713 395 210 406 
500 11 373 424 75 715 594 192 507 641 723 106 309 
501 11 80 54 97 227 471 88 297 85 560 299 272 
502 11 72 551 566 332 492 529 621 84 575 356 348 
503 11 387 341 49 174 90 105 394 86 384 483 535 
504 11 708 141 188 360 232 419 662 168 719 512 577 
505 11 430 705 718 81 629 603 290 289 101 140 266 
506 11 168 279 657 392 482 464 528 419 371 18 708 
507 11 517 127 71 723 192 199 298 158 639 315 500 
508 11 320 490 349 327 128 511 178 370 415 159 238 
509 10 210 51 460 668 713 545 426 499 709 395 
510 11 660 290 266 81 603 430 268 639 140 428 629 
511 11 128 123 98 184 178 320 664 7 508 415 731 
512 11 577 206 257 166 263 64 334 463 523 729 360 
513 11 122 466 249 532 650 691 203 303 273 408 355 
514 11 398 564 317 118 151 684 479 393 277 250 176 
515 11 68 351 100 600 700 598 573 524 421 92 189 
516 11 646 541 79 195 270 664 9 98 520 465 123 
517 11 71 507 127 298 158 639 723 199 192 563 592 
518 11 87 695 303 408 674 344 413 532 466 102 122 
519 11 53 644 191 359 296 318 96 239 91 680 149 
520 11 79 287 704 541 568 339 21 476 89 93 9 
521 11 283 477 643 607 32 684 297 265 151 689 317 
522 11 694 243 363 624 445 219 626 78 582 436 33 
523 11 262 687 463 673 206 434 577 512 257 22 360 
524 11 204 421 391 189 578 700 68 100 515 61 144 
525 11 375 361 671 197 467 696 74 322 585 85 447 
526 11 83 333 334 438 729 157 64 404 457 166 257 
527 11 622 349 623 156 161 352 440 255 683 350 490 
528 11 482 371 18 392 47 475 478 279 679 43 326 
529 10 84 575 502 72 395 348 492 497 566 362 
530 11 312 36 107 258 443 65 454 547 634 17 697 
531 11 609 32 265 477 689 643 724 176 607 521 283 
532 11 344 355 249 674 466 330 122 513 720 87 169 
533 11 179 569 402 379 5 267 240 229 8 429 28 
534 11 14 280 727 368 162 486 661 45 409 275 491 
535 11 300 581 136 584 384 341 49 174 86 15 116 
536 11 38 155 669 113 242 294 590 343 450 305 40 
537 11 37 561 124 650 678 273 654 41 328 58 203 
538 11 30 34 689 728 667 380 539 265 254 324 235 
539 11 254 235 667 728 538 30 689 34 380 468 480 
540 11 567 207 150 367 52 376 4 165 388 171 57 
541 11 79 646 270 516 9 195 520 465 396 339 311 
542 10 381 321 403 431 62 177 319 385 347 48 
543 11 571 187 645 201 129 228 555 366 244 286 134 
544 11 712 495 322 652 237 299 361 591 560 439 671 
545 10 668 713 395 460 497 499 210 426 509 575 
546 11 474 619 94 452 169 595 586 407 599 308 484 
547 11 496 553 33 580 258 36 697 530 288 173 221 
548 11 552 183 10 301 655 230 642 389 550 102 576 
549 11 446 451 441 358 587 216 142 604 412 489 329 
550 11 102 413 230 109 19 408 552 251 548 695 303 
551 11 332 72 502 621 356 566 492 42 529 84 575 
552 11 548 183 301 10 230 655 642 389 550 102 19 
553 11 33 496 580 547 626 78 173 258 453 363 36 
554 11 418 182 190 131 726 665 412 484 346 196 308 
555 11 201 571 129 187 69 137 543 473 354 244 645 
556 11 641 15 116 578 204 584 524 27 136 483 373 
557 11 353 397 637 399 153 672 99 313 278 409 661 
558 11 139 231 157 457 333 12 448 83 438 488 29 
559 11 111 31 306 338 384 86 304 627 49 581 458 
560 11 591 299 652 272 237 54 88 227 286 544 712 
561 11 124 654 537 678 37 328 273 650 41 620 3 
562 11 170 154 246 202 90 394 105 425 143 2 659 
563 11 55 592 158 298 218 199 639 428 200 35 127 
564 11 398 514 118 610 393 317 277 151 429 250 379 
565 11 205 342 444 285 143 314 164 649 202 217 2 
566 11 492 502 72 551 529 332 84 575 621 356 348 
567 11 540 150 207 367 52 376 165 4 388 171 57 
568 11 21 704 93 60 26 422 292 130 476 20 287 
569 11 179 533 402 267 379 5 240 229 429 8 277 
570 11 702 132 194 6 40 120 48 224 264 113 321 
571 11 543 645 129 187 201 555 228 286 293 244 366 
572 11 633 264 656 40 220 618 311 702 132 305 113 
573 11 598 92 700 67 600 145 351 108 515 470 284 
574 11 27 483 260 114 70 213 174 345 340 105 387 
575 10 84 529 348 497 362 395 72 406 502 545 
576 11 481 389 642 636 271 212 711 183 301 552 39 
577 11 512 206 257 523 463 166 262 687 360 263 64 
578 11 204 556 641 524 373 116 15 391 421 189 424 
579 11 701 716 337 25 682 410 223 24 383 76 233 
580 11 173 33 496 78 553 258 453 681 547 443 36 
581 11 300 535 136 584 384 86 253 341 49 420 559 
582 11 310 624 35 453 605 365 78 522 173 363 694 
583 11 648 374 126 46 588 462 112 336 284 144 61 
584 11 15 116 136 535 300 581 174 556 483 341 641 
585 11 197 638 696 325 74 163 525 613 375 181 41 
586 11 599 452 632 308 478 47 372 546 407 43 474 
587 11 358 216 441 456 489 670 651 549 446 447 414 
588 11 284 61 648 144 583 46 374 462 189 186 336 
589 11 233 224 223 120 264 339 194 132 89 287 702 
590 11 450 259 343 669 294 155 536 38 242 50 133 
591 11 560 299 652 272 237 88 54 286 227 439 544 
592 11 55 563 158 298 428 639 218 200 660 199 625 
593 11 383 385 606 62 331 579 411 461 688 160 381 
594 11 75 715 59 135 23 596 276 500 658 663 307 
595 11 169 330 355 407 619 546 474 720 94 372 532 
596 11 135 59 658 663 276 672 278 594 397 75 307 
597 11 423 401 146 125 180 727 377 368 661 56 399 
598 11 573 92 700 600 351 515 68 67 145 108 284 
599 11 586 452 372 478 632 308 47 407 43 546 475 
600 11 351 515 68 100 598 700 573 92 524 421 189 
601 10 685 406 721 362 348 175 209 426 499 497 
602 11 447 613 651 467 670 671 41 696 456 375 325 
603 11 290 430 140 718 81 505 266 705 629 366 510 
604 11 142 329 451 549 14 486 148 446 647 115 491 
605 11 365 310 226 112 723 192 462 186 106 582 309 
606 10 331 461 612 593 688 274 411 383 455 385 
607 11 643 283 477 684 521 151 317 32 297 176 250 
608 11 357 369 635 437 432 165 319 347 171 429 610 
609 11 531 32 643 477 724 176 265 607 250 283 521 
610 11 429 564 267 369 437 608 635 393 455 277 398 
611 11 153 318 644 458 420 253 313 359 519 278 53 
612 10 331 461 606 274 455 688 393 432 16 44 
613 11 602 696 41 325 638 447 467 197 671 375 651 
614 11 493 414 77 103 58 489 698 630 631 216 456 
615 11 686 82 295 95 119 193 494 133 50 225 417 
616 11 85 74 80 34 324 501 54 361 380 521 525 
617 11 117 666 222 470 145 282 108 302 252 67 699 
618 11 269 396 220 656 311 465 633 572 305 9 270 
619 11 474 94 546 169 595 631 330 484 452 407 346 
620 11 19 654 273 3 124 328 711 561 271 389 481 
621 11 332 356 551 72 42 502 406 348 352 683 255 
622 11 527 623 156 255 350 352 683 349 490 327 703 
623 11 156 255 352 622 350 683 527 42 175 349 440 
624 11 582 522 363 694 243 78 445 453 626 310 173 
625 11 628 152 200 428 218 65 706 266 592 629 101 
626 11 363 78 33 694 553 522 219 496 173 580 243 
627 11 29 438 498 83 394 86 457 717 559 111 384 
628 11 625 152 200 428 706 218 65 266 101 629 289 
629 11 705 81 706 101 289 266 676 505 430 693 290 
630 11 698 203 103 493 691 614 58 631 77 414 489 
631 11 103 493 77 414 94 196 698 346 630 614 484 
632 11 308 452 586 47 599 478 371 326 726 528 247 
633 11 656 572 264 220 311 40 618 339 396 132 465 
634 11 454 25 288 697 312 675 20 76 130 26 530 
635 11 437 369 357 608 165 171 429 267 52 229 432 
636 11 212 271 481 711 576 39 389 642 714 3 677 
637 11 399 313 661 153 368 557 125 353 423 597 727 
638 11 325 696 613 41 585 197 678 602 467 375 328 
639 11 158 298 592 660 71 563 55 517 428 127 199 
640 11 473 491 69 115 148 354 692 162 137 261 281 
641 11 556 578 116 15 715 204 373 23 584 500 594 
642 11 301 183 576 389 481 552 548 636 271 655 212 
643 11 607 477 283 521 684 151 32 317 176 609 250 
644 11 318 359 519 53 191 296 239 96 180 611 91 
645 11 129 571 543 187 201 286 293 555 469 228 405 
646 11 516 541 79 195 270 9 664 520 98 465 396 
647 11 354 115 137 439 148 473 451 237 604 69 640 
648 11 583 374 588 46 126 284 462 112 336 61 144 
649 11 164 442 472 444 488 342 659 143 205 448 565 
650 11 273 124 537 561 37 122 513 466 654 620 19 
651 11 670 456 447 602 467 489 58 587 613 671 358 
652 11 299 560 591 237 544 712 272 322 54 495 361 
653 11 214 440 364 175 161 485 683 527 352 436 156 
654 11 328 561 124 678 620 3 537 37 273 650 41 
655 11 10 301 548 552 183 642 230 389 576 481 550 
656 11 633 220 311 572 618 264 396 465 339 269 40 
657 11 168 506 419 708 279 707 141 504 188 662 232 
658 11 59 135 596 276 663 672 278 397 353 594 23 
659 11 717 488 442 498 164 202 29 472 143 154 562 
660 11 510 639 428 592 266 158 152 200 298 218 290 
661 11 368 399 637 125 727 313 423 597 401 557 153 
662 11 232 188 419 141 96 239 680 296 91 707 504 
663 11 596 658 135 59 435 397 276 672 307 278 353 
664 11 98 128 123 511 731 320 516 415 646 215 184 
665 11 484 346 131 554 196 418 94 412 182 190 474 
666 11 282 117 470 302 145 222 617 108 252 699 336 
667 11 728 539 254 235 538 30 689 34 380 265 480 
668 10 545 499 497 713 426 460 210 395 509 51 
669 11 294 242 38 536 343 590 450 155 113 259 236 
670 11 651 456 447 602 489 587 467 358 216 671 58 
671 11 467 375 447 525 602 696 361 613 651 197 322 
672 11 278 276 658 353 59 135 397 596 663 557 153 
673 11 687 463 434 523 262 22 206 257 577 512 729 
674 11 344 532 720 355 87 518 249 303 466 330 122 
675 11 138 76 17 634 25 454 312 386 530 579 693 
676 11 289 101 693 706 705 629 505 81 386 266 17 
677 11 11 714 449 39 427 185 468 212 245 636 400 
678 11 328 561 654 41 37 124 537 325 638 613 3 
679 11 43 475 104 18 478 392 47 482 528 371 599 
680 11 91 296 96 390 149 239 232 53 662 519 188 
681 11 453 173 35 443 580 258 78 218 36 65 55 
682 11 410 24 337 701 89 716 25 130 223 579 287 
683 11 352 156 42 255 623 175 622 527 350 440 653 
684 11 151 607 317 283 643 297 479 477 521 398 514 
685 10 721 209 601 485 426 406 175 362 499 364 
686 11 50 133 615 236 417 225 259 119 82 193 450 
687 11 463 523 262 673 434 206 22 577 257 512 729 
688 11 461 44 411 248 690 606 160 612 274 331 16 
689 11 265 34 538 30 32 667 728 380 324 539 254 
690 11 469 44 405 248 16 688 411 461 274 730 645 
691 11 203 630 698 103 493 631 249 58 614 513 122 
692 11 244 69 640 261 473 167 281 366 491 268 162 
693 11 676 101 289 706 17 705 629 386 505 81 433 
694 11 363 522 243 626 219 624 445 78 436 33 582 
695 11 518 87 408 109 303 251 413 102 550 230 674 
696 11 197 613 638 375 325 585 467 525 671 602 447 
697 11 288 20 147 241 487 221 454 26 60 634 93 
698 11 630 103 203 493 691 614 631 58 77 414 489 
699 11 252 382 282 666 222 172 709 302 336 117 470 
700 11 515 68 598 351 189 421 573 600 100 524 284 
701 11 716 337 410 682 579 24 25 223 89 130 233 
702 11 132 570 40 194 264 120 224 572 633 113 589 
703 11 327 490 178 7 349 622 350 184 527 623 508 
704 11 568 21 93 60 26 287 130 520 476 422 292 
705 11 629 101 289 81 706 676 505 266 430 693 290 
706 11 101 289 629 676 705 693 81 266 152 628 505 
707 11 419 56 662 232 657 239 377 96 188 191 168 
708 11 504 141 360 188 168 719 419 657 232 662 512 
709 11 172 382 699 252 51 509 210 222 209 426 126 
710 11 425 2 217 246 340 170 345 314 154 562 105 
711 11 271 481 636 389 576 212 3 39 620 642 73 
712 11 544 495 322 652 237 299 361 591 560 671 525 
713 10 460 545 395 668 210 497 499 509 426 575 
714 11 677 11 39 449 212 636 427 185 468 245 271 
715 11 594 75 23 500 59 135 596 276 641 658 373 
716 11 701 223 337 579 410 682 24 233 25 89 130 
717 11 498 659 29 488 457 442 558 627 394 438 472 
718 11 140 430 603 505 290 366 81 705 228 629 266 
719 11 360 708 464 504 168 206 577 262 523 512 141 
720 11 344 355 330 595 674 532 169 407 372 249 619 
721 10 685 209 601 485 426 499 406 364 362 51 
722 11 134 433 386 160 248 411 676 693 505 289 101 
723 11 192 127 507 365 517 199 605 71 310 424 298 
724 11 66 609 176 250 8 531 5 277 643 379 607 
725 11 291 256 316 378 28 121 52 171 229 207 240 
726 11 190 182 554 418 326 247 308 632 131 412 665 
727 11 368 401 423 661 597 146 534 125 211 399 377 
728 11 667 539 254 235 538 30 689 34 380 480 324 
729 11 334 257 166 64 526 512 333 263 577 22 157 
730 11 16 405 118 479 471 97 393 469 227 274 690 
731 11 215 476 415 422 292 664 320 370 159 128 241 
DEPOT_SECTION
   1
   -1
EOF
