NAME :  X-n701-kX-w70-c9.cctp
COMMENT : 	Adapted by Maziero, Usberti and Cavellucci from the Uchoa, Pecin, Pessoa, Poggi, Subramanian, and Vidal (2013)
TYPE :  CCTP
DIMENSION :    402
EDGE_WEIGHT_TYPE : 	EUC_2D	
CAPACITY : 	87
VERTICES_WITHIN_COVERAGE :  9
VERTICES_WITH_DEMAND : 	70
NODE_COORD_SECTION
1 0 0
2 878 606
3 35 593
4 320 125
5 189 244
6 274 784
7 900 310
8 742 640
9 800 448
10 57 755
11 522 327
12 528 268
13 461 328
14 325 726
15 788 496
16 626 660
17 720 744
18 3 417
19 32 306
20 65 233
21 827 442
22 347 566
23 545 389
24 452 670
25 236 564
26 439 425
27 69 17
28 468 416
29 103 137
30 689 261
31 300 603
32 378 187
33 790 584
34 336 860
35 386 199
36 522 461
37 356 214
38 947 18
39 431 1000
40 817 983
41 71 731
42 918 54
43 989 840
44 260 262
45 904 724
46 970 295
47 567 694
48 426 75
49 24 178
50 656 590
51 128 178
52 969 965
53 309 968
54 855 798
55 587 48
56 118 736
57 838 354
58 274 298
59 311 702
60 183 963
61 392 495
62 950 484
63 621 676
64 52 482
65 956 934
66 745 263
67 289 149
68 689 900
69 216 107
70 852 560
71 45 441
72 638 84
73 66 842
74 290 815
75 68 509
76 521 672
77 408 483
78 491 455
79 114 255
80 383 536
81 902 19
82 964 423
83 610 39
84 719 961
85 289 599
86 747 259
87 292 168
88 560 212
89 128 950
90 211 939
91 32 550
92 353 65
93 72 691
94 19 172
95 237 657
96 994 883
97 457 195
98 35 32
99 425 288
100 12 586
101 302 972
102 891 540
103 206 371
104 241 223
105 601 81
106 298 860
107 977 911
108 188 304
109 318 269
110 839 548
111 107 557
112 262 668
113 824 424
114 859 540
115 323 639
116 954 411
117 271 682
118 412 518
119 922 84
120 13 661
121 354 560
122 228 552
123 573 723
124 71 320
125 627 736
126 760 323
127 668 714
128 777 669
129 685 750
130 63 754
131 477 613
132 224 523
133 662 829
134 962 282
135 351 237
136 472 449
137 249 840
138 537 728
139 244 611
140 205 27
141 681 545
142 921 582
143 810 570
144 487 331
145 888 770
146 85 443
147 984 369
148 973 891
149 989 256
150 638 621
151 223 951
152 780 864
153 914 45
154 949 533
155 335 946
156 6 338
157 234 558
158 170 763
159 77 45
160 845 26
161 681 306
162 107 355
163 231 497
164 881 371
165 420 399
166 17 680
167 783 782
168 334 715
169 395 79
170 285 579
171 908 478
172 847 460
173 102 417
174 71 222
175 337 978
176 44 67
177 849 533
178 984 810
179 738 919
180 918 985
181 14 972
182 560 291
183 32 686
184 35 244
185 280 871
186 940 401
187 452 680
188 790 271
189 832 824
190 594 601
191 114 661
192 702 726
193 649 586
194 433 966
195 499 695
196 159 291
197 46 465
198 108 11
199 898 637
200 46 379
201 133 485
202 182 943
203 23 384
204 426 116
205 36 988
206 945 828
207 560 676
208 975 826
209 836 379
210 295 92
211 137 226
212 256 630
213 235 922
214 292 81
215 136 84
216 713 592
217 697 981
218 165 188
219 326 480
220 836 453
221 386 481
222 705 190
223 203 945
224 816 604
225 975 849
226 47 84
227 438 468
228 937 42
229 209 270
230 61 456
231 906 841
232 662 907
233 673 555
234 296 837
235 253 75
236 829 599
237 138 159
238 37 564
239 974 967
240 759 756
241 260 64
242 847 81
243 207 27
244 912 418
245 859 340
246 375 325
247 114 18
248 923 49
249 84 327
250 378 164
251 22 470
252 952 3
253 105 215
254 80 581
255 823 527
256 854 377
257 500 240
258 560 23
259 138 966
260 909 990
261 447 664
262 187 283
263 435 345
264 325 901
265 362 602
266 19 676
267 678 820
268 451 76
269 497 468
270 910 712
271 513 457
272 768 472
273 846 788
274 343 784
275 422 91
276 881 418
277 665 647
278 574 373
279 318 951
280 381 57
281 529 432
282 711 692
283 531 377
284 319 988
285 886 630
286 263 731
287 339 995
288 548 384
289 530 491
290 892 599
291 857 656
292 910 765
293 764 542
294 746 566
295 788 471
296 517 665
297 471 427
298 314 942
299 449 692
300 705 286
301 861 753
302 253 757
303 859 725
304 930 746
305 194 998
306 697 596
307 800 653
308 388 283
309 610 597
310 406 480
311 960 884
312 891 715
313 375 465
314 881 810
315 314 80
316 372 452
317 796 503
318 980 890
319 821 409
320 528 455
321 436 399
322 677 307
323 979 797
324 691 762
325 322 213
326 600 75
327 368 879
328 782 605
329 553 57
330 779 427
331 538 432
332 423 126
333 649 580
334 561 303
335 316 878
336 426 613
337 319 189
338 696 579
339 561 392
340 549 403
341 498 309
342 697 697
343 509 466
344 276 695
345 383 737
346 854 859
347 855 780
348 534 381
349 782 608
350 911 584
351 794 421
352 930 603
353 465 430
354 925 589
355 903 700
356 86 841
357 447 81
358 839 490
359 313 985
360 760 439
361 552 70
362 851 771
363 897 704
364 929 716
365 542 495
366 261 63
367 434 996
368 788 856
369 302 731
370 534 722
371 548 215
372 352 885
373 415 527
374 896 713
375 540 259
376 839 438
377 365 542
378 502 470
379 319 886
380 439 0
381 927 975
382 864 824
383 550 29
384 542 469
385 667 751
386 364 868
387 320 938
388 389 659
389 333 868
390 762 894
391 834 595
392 430 114
393 812 478
394 540 734
395 520 472
396 632 71
397 864 521
398 878 724
399 669 545
400 803 761
401 889 884
402 517 469
DEMAND_SECTION
2 2
3 8
4 7
5 5
6 3
7 7
8 6
9 3
10 10
11 2
12 1
13 8
14 8
15 8
16 8
17 4
18 9
19 7
20 9
21 4
22 10
23 4
24 1
25 2
26 1
27 9
28 4
29 4
30 5
31 8
32 2
33 9
34 3
35 1
36 8
37 2
38 8
39 3
40 3
41 2
42 4
43 3
44 2
45 7
46 7
47 9
48 1
49 5
50 7
51 10
52 5
53 9
54 7
55 7
56 1
57 3
58 5
59 9
60 5
61 4
62 5
63 9
64 4
65 4
66 7
67 8
68 1
69 8
70 7
71 2
COVERAGE_SECTION
2 8 290 285 199 350 391 142 236 354 
3 9 100 238 91 254 120 111 266 166 75 
4 8 67 210 315 87 214 337 92 250 
5 9 229 262 211 104 196 108 218 44 79 
6 8 302 74 286 234 369 137 274 14 
7 9 245 164 134 46 57 256 209 186 147 
8 7 128 349 328 216 307 282 306 
9 9 295 21 351 330 393 113 220 272 376 
10 9 130 41 56 93 183 166 73 266 356 
11 8 341 144 334 283 182 348 12 13 
12 8 375 182 257 334 341 371 11 88 
13 9 144 263 341 99 11 321 165 283 246 
14 8 168 369 59 344 345 274 286 117 
15 8 317 295 393 272 255 9 358 293 
16 9 63 150 277 309 190 47 127 207 50 
17 9 192 324 129 240 342 282 385 127 167 
18 9 203 71 251 200 197 230 156 64 146 
19 9 124 156 249 184 200 203 20 162 174 
20 9 174 184 253 79 49 211 94 19 51 
21 9 376 220 113 172 9 319 351 393 295 
22 9 121 377 265 80 31 170 85 115 373 
23 8 288 348 340 339 283 278 331 281 
24 8 261 187 299 195 131 336 388 296 
25 9 157 122 132 139 170 85 163 212 31 
26 8 321 353 28 165 297 136 227 78 
27 9 159 98 198 247 176 226 215 29 140 
28 8 297 353 26 136 321 78 165 227 
29 9 237 51 215 226 253 218 49 94 174 
30 6 300 161 322 66 86 222 
31 9 85 170 115 212 139 22 265 121 25 
32 9 35 250 37 135 337 325 332 97 4 
33 9 328 143 349 224 236 391 294 293 110 
34 8 389 335 386 372 379 327 106 264 
35 9 32 37 250 135 325 337 97 332 308 
36 9 320 402 271 395 343 378 384 269 281 
37 9 135 35 325 32 337 250 109 308 87 
38 9 252 228 248 153 81 42 119 160 242 
39 2 367 194 
40 9 260 84 180 179 390 381 217 401 152 
41 9 130 10 93 56 183 166 266 191 120 
42 9 248 153 228 119 81 38 252 242 160 
43 9 225 208 178 96 323 206 318 148 311 
44 9 58 104 229 109 5 262 325 108 135 
45 8 270 374 312 363 355 364 398 304 
46 9 134 149 7 147 186 116 164 245 82 
47 7 207 123 370 138 394 76 63 
48 6 275 357 268 169 392 204 
49 9 94 174 184 20 29 253 226 51 176 
50 9 193 333 150 233 306 338 309 399 141 
51 9 237 218 253 29 211 174 79 20 5 
52 9 239 65 381 107 180 260 148 318 311 
53 9 101 359 279 284 298 175 387 155 287 
54 9 273 347 362 382 314 189 145 301 346 
55 9 83 326 329 105 258 361 383 396 72 
56 7 41 130 158 10 93 191 183 
57 8 209 245 256 164 319 113 7 276 
58 9 44 109 229 104 108 262 135 325 103 
59 9 168 14 369 344 117 286 112 115 302 
60 8 202 223 90 305 151 259 89 213 
61 8 221 77 310 118 313 373 80 316 
62 9 171 154 82 116 244 102 186 397 276 
63 9 16 277 47 150 125 127 207 123 342 
64 9 197 230 75 251 71 146 91 18 201 
65 9 107 52 239 148 311 318 381 96 180 
66 7 86 188 300 30 126 161 322 
67 9 87 4 337 210 214 325 315 235 69 
68 7 232 179 84 390 133 217 267 
69 9 235 241 366 210 214 140 243 215 67 
70 9 110 114 177 391 397 143 102 255 236 
71 9 230 197 251 146 64 18 203 173 200 
72 5 396 105 326 83 55 
73 3 356 10 130 
74 8 234 6 106 137 185 274 34 335 
75 9 64 197 230 91 251 111 238 146 201 
76 9 296 195 207 47 370 138 394 24 187 
77 7 310 61 221 227 118 313 373 
78 8 269 378 136 343 271 402 36 297 
79 9 211 253 20 174 196 5 51 124 249 
80 8 377 373 118 121 61 22 221 77 
81 9 153 248 42 228 38 252 160 119 242 
82 9 116 186 244 147 62 171 276 164 154 
83 9 55 326 396 105 258 72 329 383 361 
84 8 217 179 68 232 390 40 152 368 
85 9 31 170 212 139 115 25 22 157 265 
86 7 66 188 300 30 126 161 222 
87 9 67 337 4 325 104 210 37 250 214 
88 5 371 375 12 257 182 
89 7 259 202 60 223 305 90 151 
90 7 223 151 202 213 60 305 259 
91 9 238 100 3 75 254 64 111 251 197 
92 8 280 315 169 214 210 4 48 275 
93 9 41 183 191 266 166 56 130 10 120 
94 9 49 174 184 20 29 226 253 176 51 
95 9 112 212 117 139 344 85 286 31 59 
96 9 318 148 107 311 225 43 208 65 178 
97 7 257 35 332 32 204 250 392 
98 9 176 27 159 226 198 247 215 29 94 
99 9 308 13 263 246 144 341 257 135 35 
100 9 3 238 91 254 120 266 166 75 111 
101 9 53 359 284 279 298 175 387 155 287 
102 9 114 397 177 70 350 142 110 154 290 
103 6 108 262 196 58 162 229 
104 9 44 5 229 87 262 58 325 218 337 
105 6 326 396 55 72 83 361 
106 8 185 234 335 379 389 34 74 264 
107 9 148 318 65 311 96 52 239 225 43 
108 9 262 196 229 5 103 44 58 79 211 
109 9 135 58 325 44 37 308 246 337 104 
110 9 70 177 114 255 143 397 391 236 102 
111 8 254 75 238 91 201 3 64 100 
112 9 117 95 344 212 59 139 286 115 85 
113 9 319 21 376 351 220 9 172 330 209 
114 9 177 397 70 110 102 255 358 143 391 
115 9 31 85 265 59 117 112 212 388 170 
116 9 82 186 244 147 62 276 171 164 256 
117 9 344 112 95 59 286 212 369 115 14 
118 6 373 61 80 77 310 221 
119 8 42 248 153 228 81 38 242 252 
120 9 266 166 183 93 3 100 41 238 191 
121 9 22 377 80 265 31 373 118 170 61 
122 9 157 25 132 163 139 170 85 212 31 
123 6 47 394 138 370 207 125 
124 8 249 19 162 200 156 79 203 184 
125 6 385 127 123 63 129 324 
126 3 188 66 86 
127 9 342 192 385 129 125 282 324 17 63 
128 6 307 8 349 328 282 224 
129 9 324 385 192 17 127 342 125 282 267 
130 9 10 41 56 93 183 166 73 266 356 
131 6 336 261 24 296 187 76 
132 7 163 122 157 25 170 139 201 
133 4 267 324 68 232 
134 9 46 149 7 147 245 164 186 116 82 
135 9 37 325 109 35 32 337 308 250 99 
136 8 78 353 297 269 28 378 227 26 
137 6 185 234 74 106 6 335 
138 5 370 394 123 47 195 
139 9 212 85 95 25 170 157 31 112 122 
140 8 243 241 366 235 69 215 247 198 
141 5 399 233 338 333 50 
142 9 354 350 352 290 2 102 154 285 199 
143 9 33 224 236 391 110 70 255 328 349 
144 9 341 13 11 263 283 348 12 99 334 
145 8 292 301 347 362 314 54 273 398 
146 9 230 173 71 197 64 201 75 251 200 
147 9 116 186 82 46 244 134 7 164 149 
148 9 318 311 107 96 225 65 43 208 206 
149 9 134 46 7 147 186 245 164 116 82 
150 9 50 193 277 309 16 333 190 63 306 
151 8 90 223 213 60 202 305 101 259 
152 9 368 390 189 179 346 167 382 68 54 
153 9 42 248 228 81 119 38 252 160 242 
154 8 62 142 102 354 350 171 352 397 
155 5 387 279 298 175 53 
156 9 19 203 200 124 18 249 184 162 71 
157 9 25 122 132 139 170 163 85 212 31 
158 6 56 302 286 41 6 130 
159 9 27 176 98 198 247 226 215 29 140 
160 5 242 81 153 42 248 
161 3 322 300 30 
162 8 249 124 173 200 196 203 19 146 
163 7 132 122 157 25 219 170 201 
164 9 256 245 57 209 276 244 7 186 319 
165 9 321 26 28 353 263 297 227 136 316 
166 9 266 183 120 93 41 10 130 3 100 
167 8 400 240 273 189 362 347 17 54 
168 8 14 59 369 345 344 274 117 286 
169 9 280 275 48 92 204 392 357 332 268 
170 9 85 31 25 139 157 212 22 122 115 
171 9 62 244 397 102 172 276 154 358 220 
172 9 220 376 21 358 393 113 9 276 319 
173 7 146 230 71 162 200 197 201 
174 9 20 253 184 79 49 211 51 94 29 
175 6 287 284 359 53 155 279 
176 9 226 98 159 27 198 247 29 215 94 
177 9 114 110 397 70 255 102 358 143 317 
178 5 323 208 43 225 206 
179 9 390 84 68 152 217 232 368 40 267 
180 9 260 381 52 239 65 107 40 401 148 
181 6 205 89 259 73 356 60 
182 5 334 375 12 11 341 
183 9 166 266 120 93 41 10 130 191 3 
184 9 20 174 19 49 94 253 79 124 249 
185 8 106 335 234 379 137 389 264 34 
186 9 116 82 244 147 276 164 171 62 256 
187 7 24 299 261 195 388 296 76 
188 7 86 66 126 300 57 245 30 
189 9 382 54 273 346 347 314 368 362 167 
190 6 309 150 193 333 50 16 
191 9 93 56 41 183 254 266 166 120 3 
192 9 17 129 342 282 127 324 385 240 125 
193 8 333 50 150 233 309 399 338 306 
194 2 367 39 
195 8 76 296 370 187 138 299 24 394 
196 8 262 108 229 5 79 211 162 249 
197 9 230 64 71 251 146 75 18 173 203 
198 9 247 27 159 98 215 176 226 140 243 
199 3 285 2 290 
200 9 203 18 156 71 124 249 162 173 19 
201 8 146 75 173 111 230 64 197 71 
202 8 60 223 90 151 259 89 305 213 
203 9 200 18 156 71 19 124 230 249 197 
204 7 392 332 275 48 357 268 169 
205 6 181 89 259 60 73 202 
206 6 208 225 231 178 43 323 
207 9 47 76 296 123 370 138 63 394 195 
208 6 178 43 225 323 206 96 
209 9 256 57 319 245 164 113 351 376 276 
210 8 214 315 4 235 241 366 67 92 
211 9 253 79 218 51 5 174 237 196 20 
212 9 139 95 112 85 31 117 170 115 344 
213 7 90 151 223 202 60 185 298 
214 8 210 315 241 366 235 4 92 67 
215 9 29 247 159 237 198 69 140 226 243 
216 7 306 338 294 233 8 50 141 
217 6 84 179 68 232 390 40 
218 9 51 237 211 5 253 29 79 104 229 
219 8 313 316 221 61 377 80 310 77 
220 9 172 21 376 113 393 9 358 319 295 
221 9 61 313 310 77 316 118 227 373 80 
222 2 30 86 
223 8 90 151 202 60 213 305 259 89 
224 8 236 391 33 328 349 143 307 70 
225 9 43 208 206 311 96 178 318 148 323 
226 9 176 159 98 27 29 215 94 247 198 
227 5 77 310 136 26 353 
228 9 248 42 153 38 81 252 119 160 242 
229 9 262 5 108 44 196 104 58 211 218 
230 9 197 71 146 64 251 75 173 18 200 
231 6 314 206 382 401 346 54 
232 4 68 179 133 84 
233 6 399 141 338 333 50 193 
234 8 74 106 185 34 335 137 389 379 
235 7 241 366 214 210 69 315 243 
236 9 391 224 143 33 70 328 349 2 110 
237 9 51 218 29 253 211 215 174 69 5 
238 9 91 3 100 254 75 111 64 251 197 
239 9 52 65 381 107 180 260 148 318 311 
240 7 167 17 400 192 324 129 282 
241 7 366 235 214 210 315 69 243 
242 4 160 119 42 153 
243 8 140 241 366 235 69 215 247 198 
244 9 276 186 116 82 164 171 256 62 376 
245 9 57 256 164 209 7 319 276 113 244 
246 9 308 99 263 109 13 165 135 321 58 
247 9 198 27 159 215 98 176 140 243 226 
248 9 42 153 228 119 81 38 252 160 242 
249 8 124 162 19 200 79 156 196 203 
250 9 32 35 37 332 337 204 4 392 325 
251 9 197 64 71 230 18 75 146 91 203 
252 9 38 228 81 248 153 42 119 160 242 
253 9 211 174 79 20 51 237 218 184 29 
254 9 111 238 3 91 100 75 191 64 120 
255 9 110 177 317 114 358 397 70 143 15 
256 9 209 57 164 245 319 276 113 376 21 
257 7 12 375 371 97 88 341 182 
258 7 383 329 55 361 83 326 105 
259 7 89 60 202 305 223 90 151 
260 9 180 381 52 239 65 40 107 401 148 
261 8 24 187 299 336 388 131 195 296 
262 9 108 229 196 5 44 211 79 104 58 
263 9 13 144 321 165 99 246 341 28 308 
264 8 379 335 372 389 387 34 298 155 
265 9 22 121 115 377 31 388 336 80 85 
266 9 166 120 183 93 41 3 10 100 130 
267 5 133 324 129 385 68 
268 3 357 48 275 
269 7 378 343 78 271 402 395 36 
270 7 45 355 374 363 312 364 398 
271 8 36 343 402 320 378 395 269 78 
272 6 295 15 360 9 317 393 
273 9 347 54 362 301 189 382 314 145 400 
274 4 14 74 345 369 
275 7 48 392 204 357 169 268 332 
276 9 244 164 376 256 172 113 220 21 209 
277 9 150 16 63 50 342 306 193 282 127 
278 5 339 288 23 340 348 
279 8 298 387 155 53 101 175 359 284 
280 8 169 92 48 275 357 315 268 204 
281 8 331 320 36 271 340 343 384 402 
282 9 342 192 127 17 8 129 277 128 324 
283 9 348 23 288 340 339 278 11 281 331 
284 7 359 175 287 53 101 279 155 
285 4 199 2 290 291 
286 9 302 344 369 117 6 59 14 112 168 
287 6 175 284 359 53 101 155 
288 7 23 348 339 283 340 278 331 
289 7 365 395 384 402 36 343 378 
290 8 2 350 285 142 354 199 352 70 
291 4 285 199 2 307 
292 6 145 304 45 301 398 270 
293 5 294 33 317 15 143 
294 5 293 216 33 338 328 
295 8 272 15 393 9 317 360 330 21 
296 9 76 195 207 47 370 24 131 138 187 
297 8 353 28 136 26 78 321 269 271 
298 7 387 279 155 53 101 264 175 
299 7 187 24 261 195 388 296 76 
300 6 30 161 322 66 86 126 
301 9 362 303 347 145 398 273 54 312 292 
302 9 286 6 369 344 74 117 14 59 137 
303 7 398 301 312 374 363 45 362 
304 4 292 364 45 270 
305 9 60 223 151 202 90 259 89 213 101 
306 8 216 338 50 233 193 333 141 294 
307 7 128 349 328 224 291 8 236 
308 9 99 246 135 109 37 263 35 13 325 
309 5 190 150 193 333 50 
310 7 77 221 61 227 313 118 316 
311 8 148 318 107 96 225 65 43 206 
312 8 374 363 45 398 270 355 303 364 
313 9 316 221 61 310 77 219 227 118 80 
314 8 382 54 231 347 145 273 362 189 
315 8 210 214 92 4 241 366 235 280 
316 9 313 221 310 61 77 219 227 26 165 
317 9 15 393 295 255 272 358 293 9 177 
318 9 148 96 107 311 225 65 43 208 206 
319 9 113 351 21 209 376 9 220 256 330 
320 9 36 271 402 395 384 343 281 331 378 
321 9 165 26 28 353 297 263 136 227 13 
322 3 161 300 30 
323 4 178 208 43 206 
324 9 129 385 17 192 127 267 342 240 125 
325 9 337 37 135 87 109 32 35 67 250 
326 6 105 55 396 83 72 361 
327 4 386 372 34 389 
328 9 349 33 224 143 236 307 8 294 391 
329 6 361 383 55 258 326 105 
330 5 351 360 9 113 295 
331 6 281 320 340 36 271 384 
332 7 204 392 275 48 357 169 268 
333 8 193 50 233 399 150 309 141 338 
334 5 182 11 12 375 341 
335 9 379 389 106 264 34 185 372 234 386 
336 8 131 261 388 24 265 187 299 373 
337 9 325 87 37 67 135 32 4 250 35 
338 8 306 216 233 141 50 399 333 193 
339 6 288 23 340 278 348 283 
340 8 23 339 288 348 331 283 281 278 
341 9 144 11 13 12 334 182 375 257 263 
342 9 282 192 127 17 129 277 385 324 8 
343 8 378 402 271 269 395 36 78 320 
344 9 117 112 59 286 369 95 14 168 302 
345 2 168 14 
346 8 382 189 401 231 314 54 368 273 
347 9 362 273 54 301 145 314 382 189 303 
348 8 283 23 288 340 339 278 281 331 
349 8 328 33 224 143 236 307 8 391 
350 8 142 354 290 352 2 102 285 199 
351 7 330 9 113 319 360 21 376 
352 7 354 142 350 290 199 2 285 
353 8 297 28 136 26 78 321 227 269 
354 7 142 350 352 290 2 199 285 
355 6 363 270 374 312 45 364 
356 3 73 130 10 
357 4 268 48 275 392 
358 9 393 172 220 255 397 177 317 21 15 
359 8 284 53 101 175 287 279 298 155 
360 4 330 272 351 9 
361 6 329 55 383 258 326 105 
362 9 347 273 301 54 145 303 314 400 398 
363 7 355 374 312 270 45 398 364 
364 5 270 45 304 355 374 
365 6 289 384 395 402 36 320 
366 7 241 235 214 210 315 69 243 
367 2 39 194 
368 9 152 390 189 346 167 179 382 54 273 
369 9 14 59 168 286 344 302 117 6 274 
370 6 138 394 123 47 195 76 
371 5 88 375 257 12 182 
372 6 327 386 389 34 264 379 
373 5 118 80 61 77 310 
374 8 312 363 45 270 355 398 364 303 
375 8 12 182 257 371 334 88 341 11 
376 9 21 220 113 172 319 9 276 351 393 
377 9 80 121 22 373 118 61 265 221 77 
378 7 269 343 402 271 395 78 36 
379 9 335 264 389 34 106 372 185 386 327 
380 4 48 268 280 357 
381 9 180 260 52 239 65 107 148 311 401 
382 8 314 54 189 346 273 231 347 362 
383 6 258 329 361 55 83 326 
384 8 320 36 395 289 402 365 271 343 
385 8 129 324 127 125 192 17 342 267 
386 4 327 372 34 389 
387 6 298 279 155 53 264 101 
388 8 261 336 265 24 187 299 115 168 
389 8 34 335 379 372 386 264 106 327 
390 9 152 179 368 68 84 346 189 232 40 
391 9 236 224 143 70 2 33 110 328 349 
392 7 204 332 275 357 48 268 169 
393 9 295 15 317 358 9 220 21 172 272 
394 5 138 370 123 47 195 
395 9 402 36 343 271 378 320 289 384 269 
396 5 72 326 105 83 55 
397 9 177 114 102 110 358 70 255 171 172 
398 8 312 303 374 45 363 270 301 355 
399 6 233 141 333 338 193 50 
400 7 167 240 362 273 347 301 54 
401 8 346 231 382 311 314 206 189 65 
402 9 395 36 343 271 378 320 269 384 289 
DEPOT_SECTION
   1
   -1
EOF
