NAME :  X-n783-kX-w312-c7.cctp
COMMENT : 	Adapted by Maziero, Usberti and Cavellucci from the Uchoa, Pecin, Pessoa, Poggi, Subramanian, and Vidal (2013)
TYPE :  CCTP
DIMENSION :    768
EDGE_WEIGHT_TYPE : 	EUC_2D	
CAPACITY : 	832
VERTICES_WITHIN_COVERAGE :  7
VERTICES_WITH_DEMAND : 	312
NODE_COORD_SECTION
1 909 919
2 878 721
3 969 85
4 591 195
5 955 148
6 587 903
7 994 792
8 625 129
9 544 703
10 461 167
11 37 644
12 615 22
13 773 788
14 384 364
15 51 291
16 109 732
17 570 124
18 692 985
19 62 150
20 358 5
21 188 450
22 674 658
23 676 904
24 815 984
25 710 16
26 74 658
27 576 1000
28 636 695
29 547 92
30 587 397
31 26 150
32 182 561
33 938 462
34 362 928
35 366 835
36 516 892
37 448 923
38 501 445
39 513 799
40 905 388
41 474 791
42 560 782
43 465 552
44 315 645
45 738 396
46 45 915
47 797 871
48 922 643
49 793 586
50 921 458
51 160 295
52 598 257
53 516 221
54 99 169
55 788 634
56 425 751
57 616 680
58 949 444
59 987 459
60 182 279
61 127 354
62 791 822
63 645 609
64 857 386
65 917 154
66 398 480
67 729 688
68 134 510
69 172 2
70 499 737
71 780 565
72 908 477
73 917 341
74 272 553
75 421 876
76 770 2
77 497 623
78 853 27
79 853 521
80 519 196
81 90 822
82 827 901
83 350 168
84 656 56
85 199 924
86 732 55
87 772 748
88 884 973
89 158 430
90 563 13
91 50 959
92 609 223
93 628 860
94 264 436
95 699 764
96 441 479
97 95 246
98 236 627
99 307 893
100 695 302
101 378 639
102 830 30
103 44 339
104 885 644
105 122 603
106 850 732
107 155 865
108 230 346
109 300 719
110 55 954
111 467 494
112 153 641
113 713 82
114 659 564
115 881 18
116 781 654
117 490 806
118 823 569
119 878 496
120 441 898
121 589 516
122 165 614
123 17 749
124 164 778
125 296 858
126 258 488
127 437 866
128 187 88
129 725 988
130 125 619
131 352 701
132 447 517
133 316 80
134 743 575
135 555 373
136 84 140
137 341 827
138 541 567
139 919 768
140 945 924
141 397 932
142 905 944
143 892 37
144 74 227
145 911 617
146 668 697
147 1 96
148 223 299
149 637 118
150 622 958
151 356 127
152 347 777
153 157 190
154 8 497
155 138 78
156 100 192
157 384 598
158 23 228
159 110 163
160 345 464
161 53 628
162 316 705
163 112 361
164 642 405
165 235 578
166 489 621
167 563 916
168 759 215
169 822 262
170 597 310
171 960 837
172 164 988
173 37 513
174 648 247
175 375 402
176 531 205
177 935 676
178 103 549
179 964 651
180 233 241
181 891 112
182 378 472
183 457 893
184 852 861
185 113 701
186 340 913
187 662 198
188 667 718
189 140 332
190 809 908
191 968 908
192 163 857
193 333 418
194 59 136
195 839 123
196 529 215
197 385 380
198 319 417
199 318 216
200 156 119
201 816 160
202 267 210
203 528 320
204 138 787
205 473 713
206 537 114
207 168 838
208 774 825
209 32 510
210 216 372
211 16 935
212 60 733
213 500 37
214 343 363
215 429 41
216 205 398
217 708 298
218 411 109
219 840 359
220 112 603
221 816 310
222 865 775
223 259 348
224 893 516
225 814 607
226 605 162
227 781 239
228 359 199
229 16 739
230 482 214
231 70 526
232 528 103
233 572 770
234 802 517
235 876 469
236 118 571
237 952 781
238 823 795
239 522 595
240 52 336
241 456 367
242 255 413
243 410 194
244 956 21
245 717 142
246 766 880
247 524 825
248 657 640
249 189 232
250 471 339
251 920 809
252 688 98
253 660 781
254 441 81
255 236 735
256 784 692
257 743 446
258 201 32
259 188 957
260 381 605
261 380 904
262 227 263
263 69 94
264 123 416
265 341 341
266 450 482
267 251 533
268 352 591
269 724 967
270 753 539
271 684 924
272 617 989
273 455 500
274 472 926
275 395 683
276 167 357
277 789 678
278 897 272
279 991 492
280 457 837
281 809 754
282 770 852
283 153 799
284 643 455
285 924 995
286 788 75
287 147 318
288 85 634
289 373 184
290 99 998
291 312 527
292 846 684
293 725 123
294 806 813
295 566 172
296 191 307
297 373 125
298 463 353
299 906 762
300 91 96
301 40 521
302 579 597
303 907 73
304 718 33
305 279 156
306 114 156
307 220 648
308 948 992
309 969 895
310 986 791
311 78 292
312 857 236
313 816 111
314 559 896
315 791 579
316 228 922
317 856 201
318 155 8
319 243 347
320 48 593
321 954 72
322 549 308
323 401 200
324 2 686
325 301 649
326 467 112
327 810 8
328 984 28
329 918 370
330 89 382
331 88 406
332 586 337
333 151 693
334 550 217
335 438 295
336 606 719
337 178 588
338 434 358
339 136 341
340 544 174
341 504 41
342 282 685
343 39 476
344 104 90
345 460 557
346 86 722
347 80 399
348 694 749
349 707 652
350 794 129
351 774 72
352 922 819
353 735 359
354 801 212
355 707 226
356 102 861
357 358 730
358 462 414
359 49 853
360 750 829
361 224 328
362 581 819
363 49 715
364 84 563
365 305 734
366 917 652
367 530 838
368 529 296
369 403 43
370 681 779
371 393 11
372 208 154
373 646 369
374 37 206
375 122 294
376 451 649
377 604 580
378 274 509
379 289 185
380 728 595
381 952 690
382 989 745
383 104 963
384 478 854
385 394 459
386 147 617
387 39 967
388 537 957
389 740 958
390 544 247
391 186 913
392 38 939
393 839 23
394 754 893
395 930 149
396 430 951
397 739 15
398 202 774
399 104 669
400 241 910
401 189 181
402 645 128
403 500 603
404 577 997
405 146 161
406 662 708
407 360 721
408 622 159
409 264 483
410 166 281
411 881 938
412 137 613
413 403 69
414 897 132
415 710 807
416 965 334
417 127 729
418 918 559
419 450 19
420 522 569
421 202 666
422 127 378
423 156 913
424 306 328
425 97 971
426 747 419
427 838 961
428 391 886
429 484 126
430 828 28
431 954 279
432 930 285
433 739 507
434 750 567
435 921 125
436 654 832
437 440 878
438 720 914
439 606 394
440 372 600
441 869 892
442 831 124
443 471 928
444 511 594
445 778 117
446 867 996
447 417 918
448 554 923
449 920 808
450 944 824
451 389 203
452 222 972
453 741 70
454 101 132
455 110 652
456 533 564
457 891 336
458 661 893
459 15 879
460 527 56
461 481 860
462 709 388
463 105 381
464 210 937
465 550 23
466 603 51
467 582 48
468 415 206
469 591 850
470 776 80
471 354 660
472 301 884
473 50 500
474 530 386
475 859 502
476 826 779
477 86 854
478 923 289
479 403 612
480 771 629
481 550 820
482 80 276
483 189 636
484 676 601
485 129 319
486 363 577
487 340 524
488 490 220
489 584 523
490 553 110
491 935 660
492 830 469
493 539 52
494 278 487
495 637 548
496 674 905
497 823 923
498 999 837
499 565 337
500 82 851
501 969 38
502 498 300
503 791 314
504 693 895
505 710 695
506 390 537
507 837 407
508 220 391
509 484 78
510 618 221
511 180 686
512 959 960
513 934 765
514 951 543
515 752 859
516 402 222
517 487 708
518 434 776
519 129 119
520 438 308
521 153 438
522 564 929
523 541 777
524 290 772
525 202 468
526 432 949
527 117 642
528 413 752
529 719 52
530 779 106
531 543 161
532 963 277
533 112 459
534 301 817
535 80 48
536 300 770
537 622 470
538 148 130
539 70 782
540 488 540
541 814 887
542 423 243
543 431 107
544 792 289
545 84 21
546 679 989
547 159 535
548 180 610
549 155 207
550 424 341
551 829 839
552 828 485
553 579 290
554 621 918
555 92 563
556 609 789
557 233 130
558 184 475
559 182 513
560 601 785
561 828 106
562 482 409
563 587 627
564 396 611
565 833 257
566 653 648
567 552 862
568 804 553
569 12 198
570 887 275
571 183 925
572 242 857
573 749 551
574 651 13
575 373 643
576 731 963
577 219 275
578 568 499
579 714 734
580 617 325
581 560 470
582 837 631
583 4 304
584 79 917
585 355 877
586 735 76
587 745 354
588 621 723
589 145 377
590 119 768
591 638 271
592 574 247
593 924 493
594 924 402
595 91 336
596 599 6
597 635 887
598 660 944
599 716 219
600 186 35
601 679 861
602 919 121
603 822 482
604 151 384
605 407 860
606 869 930
607 928 75
608 139 615
609 625 969
610 756 128
611 252 842
612 123 311
613 90 412
614 404 744
615 216 14
616 906 567
617 15 55
618 719 567
619 948 717
620 614 496
621 564 906
622 179 656
623 774 462
624 207 724
625 355 609
626 344 833
627 726 657
628 971 896
629 958 954
630 351 186
631 39 94
632 18 167
633 396 368
634 416 570
635 653 463
636 792 716
637 649 420
638 332 103
639 561 229
640 144 320
641 971 672
642 44 186
643 924 415
644 267 418
645 782 427
646 306 493
647 853 704
648 293 285
649 468 127
650 464 700
651 692 310
652 610 428
653 257 608
654 980 789
655 25 7
656 918 803
657 740 837
658 762 527
659 50 710
660 978 624
661 775 736
662 551 199
663 416 970
664 630 871
665 926 116
666 413 103
667 724 481
668 293 786
669 959 178
670 244 56
671 28 579
672 465 381
673 342 15
674 267 887
675 339 737
676 219 933
677 750 110
678 533 943
679 116 72
680 708 481
681 556 836
682 421 584
683 777 841
684 664 334
685 340 957
686 138 690
687 185 939
688 895 564
689 384 127
690 221 151
691 164 405
692 788 509
693 171 394
694 33 379
695 987 917
696 810 274
697 892 692
698 881 293
699 1 227
700 935 348
701 441 344
702 527 995
703 487 506
704 395 580
705 405 978
706 557 620
707 966 509
708 571 996
709 835 166
710 214 405
711 462 92
712 734 399
713 69 747
714 589 624
715 272 760
716 936 678
717 84 652
718 525 364
719 908 779
720 600 19
721 548 288
722 33 90
723 479 319
724 717 960
725 360 458
726 204 29
727 799 441
728 602 46
729 372 106
730 707 678
731 884 598
732 401 345
733 889 818
734 288 295
735 453 130
736 587 936
737 169 316
738 271 407
739 428 772
740 461 415
741 926 968
742 61 305
743 435 146
744 653 395
745 820 279
746 637 547
747 302 267
748 620 2
749 973 397
750 561 40
751 147 381
752 452 610
753 963 618
754 948 761
755 850 189
756 785 845
757 900 613
758 668 101
759 445 170
760 660 387
761 57 176
762 373 307
763 365 297
764 117 1000
765 765 916
766 62 12
767 428 75
768 387 877
DEMAND_SECTION
2 85
3 34
4 47
5 49
6 75
7 87
8 13
9 92
10 85
11 3
12 18
13 87
14 96
15 72
16 38
17 5
18 59
19 75
20 81
21 68
22 99
23 66
24 67
25 33
26 30
27 73
28 61
29 18
30 37
31 81
32 36
33 17
34 31
35 25
36 85
37 12
38 44
39 60
40 5
41 23
42 58
43 29
44 9
45 13
46 1
47 100
48 88
49 53
50 30
51 66
52 47
53 35
54 55
55 83
56 20
57 84
58 36
59 50
60 76
61 70
62 80
63 79
64 44
65 26
66 60
67 80
68 40
69 60
70 46
71 62
72 50
73 32
74 18
75 3
76 16
77 30
78 4
79 68
80 6
81 34
82 93
83 58
84 10
85 45
86 27
87 90
88 77
89 98
90 40
91 41
92 30
93 58
94 63
95 78
96 67
97 51
98 32
99 25
100 26
101 25
102 25
103 67
104 99
105 41
106 66
107 47
108 86
109 18
110 19
111 85
112 23
113 14
114 79
115 48
116 93
117 9
118 80
119 34
120 19
121 79
122 21
123 20
124 44
125 24
126 60
127 14
128 87
129 88
130 23
131 29
132 12
133 61
134 90
135 12
136 84
137 20
138 85
139 68
140 60
141 21
142 53
143 29
144 67
145 84
146 86
147 86
148 60
149 2
150 64
151 77
152 10
153 85
154 81
155 92
156 93
157 12
158 63
159 79
160 97
161 41
162 50
163 70
164 39
165 21
166 40
167 99
168 29
169 21
170 46
171 96
172 38
173 48
174 24
175 89
176 12
177 96
178 41
179 62
180 57
181 5
182 60
183 5
184 72
185 35
186 6
187 6
188 51
189 52
190 77
191 59
192 17
193 78
194 60
195 23
196 24
197 92
198 60
199 99
200 79
201 37
202 66
203 1
204 44
205 29
206 2
207 38
208 65
209 11
210 72
211 50
212 46
213 7
214 96
215 79
216 78
217 17
218 53
219 21
220 30
221 47
222 62
223 62
224 59
225 81
226 25
227 20
228 55
229 19
230 54
231 28
232 12
233 61
234 100
235 46
236 41
237 96
238 58
239 56
240 71
241 51
242 78
243 72
244 18
245 7
246 79
247 90
248 74
249 82
250 85
251 100
252 29
253 98
254 99
255 5
256 72
257 9
258 92
259 48
260 2
261 27
262 57
263 54
264 96
265 70
266 64
267 27
268 14
269 95
270 55
271 89
272 86
273 36
274 18
275 7
276 91
277 66
278 20
279 49
280 11
281 57
282 100
283 33
284 31
285 65
286 33
287 80
288 27
289 77
290 49
291 46
292 86
293 28
294 51
295 32
296 66
297 94
298 80
299 60
300 62
301 17
302 86
303 33
304 16
305 94
306 54
307 21
308 55
309 53
310 85
311 93
312 32
313 24
COVERAGE_SECTION
2 7 106 647 697 292 299 222 139 
3 7 321 607 501 665 328 435 602 
4 7 92 295 226 510 662 639 334 
5 7 395 669 65 435 665 602 414 
6 7 621 167 314 736 522 554 448 
7 7 310 654 237 498 382 754 171 
8 7 149 402 408 226 758 17 252 
9 7 70 517 336 205 233 523 57 
10 7 759 743 735 649 429 230 326 
11 7 161 26 717 288 320 324 671 
12 7 720 748 596 728 466 574 467 
13 7 208 62 87 294 360 238 281 
14 7 633 197 732 175 214 550 265 
15 7 742 311 482 240 103 583 595 
16 7 417 346 185 590 713 212 686 
17 7 490 206 29 531 232 295 226 
18 7 546 129 724 269 576 598 389 
19 7 194 136 761 31 642 54 454 
20 7 673 371 369 413 215 133 419 
21 7 525 558 89 521 691 710 216 
22 7 566 248 349 146 730 406 505 
23 7 496 458 504 271 598 601 597 
24 7 427 446 497 88 190 606 389 
25 7 304 397 529 86 574 76 453 
26 7 717 288 399 455 161 11 527 
27 7 404 708 272 702 388 609 150 
28 7 57 406 146 588 336 188 566 
29 7 490 232 206 17 460 493 750 
30 7 439 652 135 164 474 332 499 
31 7 632 19 194 642 761 569 374 
32 7 337 547 559 548 122 165 236 
33 7 50 58 72 593 59 643 707 
34 7 186 261 141 685 428 585 447 
35 7 626 137 585 768 605 428 152 
36 7 314 461 567 448 621 167 384 
37 7 274 443 120 183 447 526 396 
38 7 562 358 740 111 266 703 581 
39 7 117 247 523 41 367 481 42 
40 7 329 594 643 64 73 700 457 
41 7 117 39 518 280 739 70 247 
42 7 233 523 481 560 362 556 39 
43 7 345 540 132 703 634 273 682 
44 7 325 471 342 625 575 162 101 
45 7 712 426 462 353 587 257 645 
46 7 392 584 211 110 91 459 387 
47 7 541 756 246 282 683 190 82 
48 7 366 491 145 177 104 757 716 
49 7 315 71 225 118 568 434 55 
50 7 33 72 58 593 643 235 594 
51 7 410 737 287 60 640 296 375 
52 7 592 92 553 510 591 639 174 
53 7 196 176 80 488 334 230 390 
54 7 159 306 156 136 454 19 761 
55 7 480 116 225 277 49 582 315 
56 7 528 739 614 518 205 41 650 
57 7 28 336 588 566 406 146 248 
58 7 33 50 643 59 594 72 749 
59 7 279 58 33 707 749 50 593 
60 7 410 51 296 577 737 148 249 
61 7 339 163 422 189 589 751 463 
62 7 208 294 683 756 282 13 238 
63 7 484 248 566 114 377 22 714 
64 7 507 219 40 457 329 594 643 
65 7 395 435 414 602 5 665 669 
66 7 385 182 96 725 266 160 506 
67 7 505 730 627 349 579 256 277 
68 7 547 559 178 533 558 236 231 
69 7 318 600 258 726 615 155 128 
70 7 517 205 650 9 523 41 39 
71 7 315 49 568 434 573 270 134 
72 7 50 593 235 33 119 224 58 
73 7 700 457 329 40 416 478 432 
74 7 267 378 165 291 653 126 494 
75 7 127 437 605 120 428 768 183 
76 7 397 327 304 25 430 86 102 
77 7 166 403 444 239 752 376 420 
78 7 393 102 430 115 143 327 303 
79 7 475 119 224 552 603 234 118 
80 7 176 196 53 662 340 334 488 
81 7 500 477 356 539 359 204 590 
82 7 190 541 497 47 441 184 606 
83 7 630 289 228 151 297 451 689 
84 7 574 758 12 252 466 728 113 
85 7 571 391 464 687 676 316 259 
86 7 529 453 586 304 113 397 25 
87 7 661 281 636 13 256 579 476 
88 7 446 411 142 741 285 606 427 
89 7 521 691 21 264 693 604 751 
90 7 465 750 596 720 467 493 728 
91 7 110 387 392 211 46 425 584 
92 7 510 4 52 592 174 639 591 
93 7 664 597 436 469 458 601 554 
94 7 644 242 738 409 126 494 198 
95 7 348 370 579 253 415 188 406 
96 7 266 273 111 132 66 385 703 
97 7 144 482 311 156 375 15 742 
98 7 307 653 483 165 421 548 622 
99 7 472 125 186 674 585 34 400 
100 7 651 217 684 591 353 174 587 
101 7 575 471 564 260 479 625 440 
102 7 430 393 78 327 115 143 286 
103 6 240 742 694 595 15 583 
104 7 366 757 48 145 731 697 582 
105 7 220 130 412 608 386 236 527 
106 7 647 2 222 281 292 476 697 
107 7 192 207 423 356 391 283 571 
108 7 319 361 223 210 508 148 296 
109 7 365 162 342 675 715 536 524 
110 7 91 387 392 46 211 584 425 
111 7 273 266 703 96 132 540 43 
112 7 386 122 608 622 412 130 483 
113 7 586 252 453 529 86 293 677 
114 7 495 746 484 63 377 618 248 
115 7 143 78 393 102 430 303 327 
116 7 55 277 480 256 627 225 582 
117 7 41 39 247 280 384 367 461 
118 7 568 49 315 225 71 234 79 
119 7 475 224 235 79 72 593 552 
120 7 183 437 37 75 447 127 274 
121 7 489 578 620 581 537 746 495 
122 7 548 386 608 412 337 112 483 
123 7 229 212 363 659 713 539 324 
124 7 283 204 398 590 207 417 624 
125 7 472 99 534 674 611 572 626 
126 7 409 494 378 267 646 94 525 
127 7 437 75 605 120 183 280 384 
128 7 200 155 600 538 258 726 557 
129 7 269 576 724 18 389 546 438 
130 7 412 608 105 220 386 527 112 
131 7 407 357 162 675 471 275 109 
132 7 273 111 266 96 43 703 345 
133 7 638 151 729 673 297 670 689 
134 7 434 380 573 618 270 71 315 
135 7 474 718 499 30 332 439 203 
136 7 454 19 194 54 306 159 300 
137 7 626 35 534 152 585 125 668 
138 7 456 420 239 444 302 403 706 
139 7 299 513 719 754 237 656 449 
140 7 191 629 309 628 512 695 142 
141 7 447 261 34 396 526 663 428 
142 7 411 741 88 606 140 285 629 
143 7 115 303 78 607 393 102 430 
144 7 97 374 156 482 158 642 761 
145 7 757 48 731 366 104 491 616 
146 7 406 188 28 22 505 730 566 
147 7 722 631 617 31 263 194 632 
148 7 577 361 296 262 60 108 319 
149 7 402 8 758 408 226 252 84 
150 7 609 272 554 598 736 404 27 
151 7 297 729 689 638 83 218 289 
152 7 675 357 536 137 668 626 407 
153 7 549 405 401 249 159 306 156 
154 6 209 173 343 301 473 231 
155 7 679 344 519 200 128 300 538 
156 7 54 159 306 144 761 97 136 
157 7 260 440 564 704 479 486 625 
158 7 699 374 569 642 144 632 761 
159 7 306 54 156 454 136 405 519 
160 7 725 182 193 385 646 198 66 
161 7 11 288 320 26 717 671 455 
162 7 109 365 131 342 675 407 357 
163 7 61 463 422 330 339 595 589 
164 7 744 637 760 373 439 652 284 
165 7 653 74 267 98 32 337 548 
166 7 77 403 444 752 239 376 420 
167 7 621 448 522 314 6 736 678 
168 7 227 354 599 355 696 169 201 
169 7 565 696 745 544 312 227 221 
170 7 580 553 332 499 322 52 721 
171 7 450 498 352 251 449 654 310 
172 7 259 764 687 452 383 290 571 
173 6 209 301 473 154 231 343 
174 7 591 510 92 52 187 355 100 
175 7 197 14 633 193 214 198 725 
176 7 196 80 662 53 334 340 639 
177 7 716 491 381 366 48 641 179 
178 7 555 364 236 231 68 220 105 
179 7 641 491 660 753 177 716 381 
180 7 262 577 249 202 148 60 401 
181 7 414 602 435 665 303 65 607 
182 7 385 66 725 160 96 487 506 
183 7 120 437 37 127 274 443 75 
184 7 551 441 541 82 47 733 190 
185 7 686 16 417 399 346 333 455 
186 7 34 99 585 261 685 472 428 
187 7 510 174 355 408 599 92 226 
188 7 406 146 28 348 588 505 579 
189 7 339 640 287 485 61 612 737 
190 7 82 497 541 47 765 246 394 
191 7 628 309 695 140 629 512 171 
192 7 107 207 423 283 356 391 571 
193 7 198 175 160 725 214 738 197 
194 7 19 136 31 761 454 263 631 
195 7 442 561 313 709 201 350 181 
196 7 176 53 80 334 662 390 639 
197 7 14 633 175 732 214 338 550 
198 7 193 738 644 160 94 175 725 
199 7 379 228 630 202 747 83 289 
200 7 538 519 405 128 155 306 454 
201 7 709 350 442 195 755 313 354 
202 7 379 180 199 305 262 747 690 
203 7 322 368 502 721 499 718 723 
204 7 283 590 124 81 207 417 16 
205 7 517 650 70 56 376 9 528 
206 7 232 490 29 17 531 429 460 
207 7 192 107 283 204 124 356 398 
208 7 683 62 756 360 282 294 657 
209 6 173 301 473 154 343 231 
210 7 508 216 108 710 319 361 223 
211 7 392 46 387 91 110 459 584 
212 7 713 363 659 346 229 123 16 
213 7 341 460 493 509 465 419 750 
214 7 265 14 197 175 424 633 193 
215 7 369 419 767 413 254 371 711 
216 7 710 508 210 693 691 242 21 
217 7 100 651 684 353 587 355 591 
218 7 666 543 689 767 729 254 297 
219 7 64 507 221 457 503 40 698 
220 7 105 130 412 608 236 386 527 
221 7 503 745 544 696 169 219 565 
222 7 476 299 719 106 238 733 139 
223 7 319 108 361 210 424 508 734 
224 7 119 475 593 79 72 688 235 
225 7 49 582 315 55 118 480 71 
226 7 408 4 8 295 17 402 149 
227 7 168 354 696 169 544 565 745 
228 7 630 289 451 83 323 199 516 
229 7 123 363 212 659 713 324 539 
230 7 488 53 80 196 176 10 759 
231 7 301 473 173 178 364 209 555 
232 7 206 29 490 17 460 429 509 
233 7 42 523 560 556 362 481 336 
234 7 692 568 603 552 658 79 71 
235 7 119 72 475 50 492 224 552 
236 7 178 555 105 220 364 412 130 
237 7 754 513 654 139 310 656 449 
238 7 476 294 62 281 551 222 13 
239 7 444 403 420 456 138 77 166 
240 6 103 742 595 15 694 311 
241 7 298 672 338 701 250 550 358 
242 7 644 738 94 508 710 216 210 
243 7 323 468 451 516 289 759 228 
244 7 501 328 321 607 3 143 303 
245 7 293 610 677 252 113 758 445 
246 7 394 515 282 47 765 756 683 
247 7 367 481 39 681 117 567 523 
248 7 566 22 63 484 349 57 146 
249 7 549 180 60 262 401 577 153 
250 7 298 723 701 241 338 672 520 
251 7 449 656 352 450 719 733 139 
252 7 758 113 293 402 586 84 245 
253 7 370 95 348 436 556 415 560 
254 7 767 711 543 666 326 413 218 
255 7 624 715 398 524 109 342 365 
256 7 277 636 116 661 67 87 55 
257 7 426 623 667 645 712 680 45 
258 7 726 600 615 69 670 318 128 
259 7 687 464 571 85 452 172 676 
260 7 157 440 564 479 625 704 268 
261 7 428 768 34 141 585 447 186 
262 7 577 180 148 60 249 296 410 
263 7 300 631 344 722 194 535 136 
264 7 613 331 521 89 422 463 691 
265 7 214 424 762 14 763 197 732 
266 7 96 273 111 132 703 66 385 
267 7 74 378 126 165 409 494 291 
268 7 486 625 440 260 157 704 564 
269 7 576 724 389 129 18 546 438 
270 7 573 658 434 433 71 134 618 
271 7 496 23 504 598 438 458 724 
272 7 609 150 404 27 708 736 546 
273 7 111 132 266 96 703 540 43 
274 7 443 37 183 120 526 396 36 
275 7 575 101 131 471 407 357 614 
276 7 589 604 751 339 189 693 61 
277 7 256 116 636 55 480 292 661 
278 7 570 698 478 432 312 431 457 
279 6 707 59 33 58 514 593 
280 7 384 461 127 437 117 41 75 
281 7 476 87 661 636 238 106 13 
282 7 683 756 515 208 246 360 47 
283 7 204 124 207 590 398 192 107 
284 7 635 537 637 652 164 620 744 
285 7 308 741 88 512 629 142 446 
286 7 470 351 530 445 313 453 561 
287 7 640 189 485 737 339 612 51 
288 7 717 26 455 161 527 399 220 
289 7 228 630 451 83 323 243 468 
290 7 764 425 383 110 91 172 387 
291 7 487 646 378 74 494 267 409 
292 7 647 697 106 2 582 104 277 
293 7 245 677 610 113 252 586 445 
294 7 62 238 208 551 756 476 683 
295 7 340 531 662 4 226 17 176 
296 7 737 60 51 148 410 361 577 
297 7 689 151 729 218 666 638 83 
298 7 241 250 701 672 338 723 550 
299 7 139 719 513 754 222 656 449 
300 7 344 263 679 454 519 136 535 
301 7 173 209 473 231 154 343 671 
302 7 714 377 563 706 138 239 456 
303 7 607 143 181 321 665 602 435 
304 7 25 529 86 397 453 586 113 
305 7 379 557 202 690 372 83 199 
306 7 159 54 454 405 136 156 519 
307 7 421 98 483 622 653 511 548 
308 7 285 741 512 629 142 88 140 
309 7 628 191 695 140 171 629 498 
310 7 654 7 237 382 498 754 171 
311 7 482 742 15 375 595 97 612 
312 7 565 317 169 755 570 278 745 
313 7 561 442 195 350 530 445 286 
314 7 621 167 448 6 522 567 36 
315 7 49 71 568 118 225 434 134 
316 5 676 400 464 85 391 
317 7 755 312 709 354 201 565 169 
318 7 69 600 258 726 615 155 545 
319 7 108 223 361 210 508 148 216 
320 7 671 161 364 11 555 288 220 
321 7 3 607 501 303 244 665 328 
322 7 721 368 203 499 553 332 170 
323 7 243 451 468 516 289 228 542 
324 7 659 11 229 363 123 212 26 
325 7 44 342 471 162 653 625 98 
326 7 649 711 429 735 543 509 254 
327 7 430 102 393 76 78 286 397 
328 7 501 244 321 3 607 303 143 
329 7 40 700 73 594 457 643 416 
330 6 463 347 331 613 163 422 
331 5 613 347 330 463 264 
332 7 499 170 580 322 135 553 30 
333 7 686 511 185 417 622 112 399 
334 7 639 662 196 176 390 53 80 
335 6 520 550 723 701 542 250 
336 7 588 28 57 406 188 233 9 
337 7 548 32 122 386 608 412 483 
338 7 701 550 241 298 732 633 672 
339 7 189 61 640 485 287 163 612 
340 7 531 295 662 80 176 334 196 
341 7 213 460 493 509 465 750 419 
342 7 109 162 325 44 365 255 131 
343 6 473 209 154 173 301 231 
344 7 300 679 263 155 519 454 535 
345 7 43 540 132 634 682 752 273 
346 7 16 212 713 185 363 659 417 
347 5 331 613 330 463 264 
348 7 95 579 370 188 253 406 505 
349 7 627 730 22 67 505 248 566 
350 7 445 530 313 442 201 610 561 
351 7 470 286 453 530 586 86 445 
352 7 251 449 656 450 733 171 719 
353 7 587 45 462 712 426 651 217 
354 7 227 168 169 201 755 565 317 
355 7 599 168 187 174 217 227 100 
356 7 477 500 81 107 359 192 584 
357 7 407 675 131 152 614 162 365 
358 7 740 562 672 241 38 298 338 
359 7 500 477 459 81 356 46 584 
360 7 657 208 282 515 683 756 62 
361 7 108 319 148 296 223 210 577 
362 7 681 481 469 560 556 42 233 
363 7 659 212 346 713 229 123 324 
364 7 555 178 236 231 320 220 105 
365 7 109 162 675 536 524 715 357 
366 7 48 491 177 716 104 145 757 
367 7 247 681 481 567 39 117 362 
368 7 721 322 203 502 553 390 499 
369 7 215 413 371 767 419 254 20 
370 7 253 95 348 415 579 436 188 
371 7 369 20 215 673 419 413 767 
372 7 690 401 557 153 405 200 538 
373 7 760 744 164 684 439 637 580 
374 7 642 158 569 761 699 144 632 
375 7 612 485 640 287 51 189 311 
376 7 752 166 77 650 479 275 403 
377 7 302 495 714 746 63 563 114 
378 7 494 126 409 267 646 291 74 
379 7 305 202 199 630 83 228 690 
380 7 134 618 434 573 484 480 71 
381 7 716 177 641 619 491 179 366 
382 7 754 654 310 7 619 237 513 
383 7 425 290 764 110 584 91 172 
384 7 461 280 127 183 437 117 36 
385 7 66 182 725 160 96 175 266 
386 7 608 412 122 130 112 105 548 
387 7 91 110 392 211 46 425 584 
388 7 678 448 522 702 167 708 736 
389 7 576 269 724 129 438 765 18 
390 7 639 592 334 196 53 721 176 
391 7 571 85 687 423 464 676 316 
392 7 211 91 110 46 387 584 459 
393 7 102 430 78 327 115 143 76 
394 6 246 765 515 438 282 47 
395 7 65 5 435 602 665 414 669 
396 7 526 663 37 447 705 141 443 
397 7 304 25 76 86 529 453 586 
398 6 124 624 255 283 204 715 
399 7 455 717 527 26 185 288 686 
400 5 316 676 674 464 85 
401 7 153 372 549 690 405 249 538 
402 7 149 8 758 408 226 252 187 
403 7 444 77 166 239 420 752 456 
404 7 27 708 272 702 609 388 150 
405 7 153 538 306 159 200 519 401 
406 7 188 146 28 588 505 22 348 
407 7 357 131 675 162 614 275 152 
408 7 226 8 402 149 4 187 295 
409 7 126 494 378 646 94 267 525 
410 7 51 60 737 296 287 640 375 
411 7 606 142 88 441 427 741 446 
412 7 608 386 130 105 220 122 112 
413 7 369 767 666 215 254 218 543 
414 7 181 435 602 65 665 395 195 
415 6 370 657 95 360 253 348 
416 4 700 73 431 532 
417 7 16 185 590 686 346 333 204 
418 6 616 688 514 224 731 757 
419 7 215 213 369 341 371 767 254 
420 7 456 138 239 444 403 540 43 
421 7 307 622 511 483 98 112 333 
422 7 589 751 463 163 61 604 264 
423 7 391 571 687 85 107 259 192 
424 7 265 734 648 214 223 747 319 
425 7 383 290 764 110 91 584 387 
426 7 712 45 257 645 462 623 727 
427 7 24 497 606 446 88 411 190 
428 7 768 261 605 75 585 447 141 
429 7 649 326 735 711 10 509 232 
430 7 102 393 78 327 115 286 76 
431 5 532 432 478 416 278 
432 6 478 431 532 278 570 698 
433 7 658 667 270 680 573 692 623 
434 7 134 573 270 71 618 380 658 
435 7 602 665 414 395 65 181 5 
436 6 93 601 664 253 597 370 
437 7 127 75 120 183 605 280 384 
438 7 504 271 394 23 765 724 496 
439 7 30 652 164 373 744 637 760 
440 7 260 157 625 268 486 564 704 
441 7 184 606 82 411 497 541 190 
442 7 195 561 313 350 201 709 445 
443 7 274 37 183 120 526 396 447 
444 7 239 403 420 77 166 456 138 
445 7 530 350 610 677 470 313 286 
446 7 88 427 24 285 411 142 741 
447 7 141 37 120 526 396 261 428 
448 7 167 522 621 314 678 736 388 
449 7 251 656 352 450 719 733 139 
450 7 171 352 251 449 656 237 654 
451 7 323 243 516 289 468 228 630 
452 5 259 464 676 316 687 
453 7 586 86 529 113 351 470 677 
454 7 136 306 519 159 54 300 194 
455 7 527 399 717 288 26 130 112 
456 7 138 420 239 444 403 540 302 
457 7 73 329 698 700 40 219 478 
458 7 496 23 597 504 601 664 271 
459 7 359 46 211 392 500 584 477 
460 7 493 341 213 750 465 29 232 
461 7 384 280 183 127 437 36 367 
462 7 712 45 353 426 760 587 744 
463 7 330 163 422 331 347 613 61 
464 6 676 85 316 687 259 571 
465 7 90 750 493 460 467 341 720 
466 7 728 467 12 720 750 596 748 
467 7 728 466 750 720 90 465 12 
468 7 243 323 516 451 542 289 759 
469 7 362 93 681 567 664 481 6 
470 7 351 286 530 453 445 677 586 
471 7 575 101 131 44 275 625 325 
472 7 99 125 674 186 585 400 572 
473 6 173 209 301 343 231 154 
474 7 718 135 562 30 499 672 38 
475 7 79 119 552 224 235 603 492 
476 7 238 281 222 294 106 13 62 
477 7 500 356 81 359 584 107 46 
478 6 432 278 431 570 532 698 
479 7 564 260 157 440 682 704 101 
480 7 55 116 49 225 277 627 315 
481 7 681 247 367 362 42 567 39 
482 7 311 15 97 742 375 144 612 
483 7 622 548 122 307 421 112 386 
484 7 63 114 248 380 566 618 22 
485 7 612 640 189 287 339 375 61 
486 7 268 440 157 704 260 625 564 
487 7 291 646 506 486 160 182 268 
488 7 230 53 80 196 176 10 334 
489 7 121 578 620 581 746 495 377 
490 7 206 29 17 232 531 460 493 
491 7 177 716 366 48 179 381 641 
492 7 603 552 727 475 235 119 234 
493 7 460 750 465 341 29 213 467 
494 7 409 126 378 646 291 94 267 
495 7 746 114 377 620 121 489 63 
496 7 23 458 271 504 598 597 601 
497 7 190 82 541 427 606 441 47 
498 7 171 7 310 654 450 309 628 
499 7 332 322 135 203 170 718 553 
500 7 477 356 81 359 584 539 459 
501 7 328 244 321 3 607 303 143 
502 7 723 368 203 250 721 322 335 
503 7 221 544 696 745 169 587 219 
504 6 23 496 271 458 438 601 
505 7 730 67 579 627 146 349 188 
506 7 634 704 486 487 682 66 132 
507 7 64 219 727 645 492 40 235 
508 7 710 216 210 242 108 693 319 
509 7 711 326 341 254 213 429 460 
510 7 92 4 174 52 187 592 591 
511 7 333 421 622 686 624 483 112 
512 7 629 308 741 140 285 695 191 
513 7 139 754 237 299 719 656 449 
514 6 418 707 616 593 688 224 
515 7 282 246 657 360 683 394 756 
516 6 468 323 451 243 542 289 
517 7 205 650 70 9 376 56 41 
518 7 739 56 528 41 614 117 280 
519 7 538 200 454 344 306 155 300 
520 7 335 550 701 723 250 338 298 
521 7 89 691 21 264 533 558 693 
522 7 448 167 621 736 314 678 6 
523 7 42 233 39 481 247 70 362 
524 6 536 668 715 365 534 109 
525 7 558 21 559 521 89 126 409 
526 7 396 663 37 447 141 705 443 
527 7 455 130 399 288 717 412 608 
528 7 56 614 739 518 357 407 152 
529 7 86 304 453 586 113 25 397 
530 7 445 470 350 677 286 610 351 
531 7 340 295 662 80 17 176 206 
532 5 431 432 478 416 278 
533 6 264 521 613 89 68 331 
534 6 668 125 137 524 626 536 
535 7 545 766 679 263 344 300 631 
536 6 524 668 715 365 534 152 
537 7 284 620 635 652 121 637 578 
538 7 200 519 405 306 454 159 155 
539 7 713 81 212 590 123 346 16 
540 7 43 345 703 420 132 111 456 
541 7 82 190 47 497 184 246 551 
542 6 516 468 323 243 451 335 
543 7 666 218 254 735 767 711 326 
544 7 696 503 745 221 169 227 565 
545 7 766 535 679 655 318 344 263 
546 7 18 129 724 598 269 576 609 
547 7 559 32 68 236 337 178 558 
548 7 122 337 483 386 112 608 412 
549 7 153 249 401 405 156 159 306 
550 7 701 338 732 520 633 241 298 
551 7 184 294 62 238 756 47 541 
552 7 603 492 475 234 79 692 119 
553 7 170 721 322 52 592 332 499 
554 7 597 6 736 150 458 598 664 
555 7 364 178 236 231 220 105 320 
556 7 560 362 233 42 253 436 469 
557 7 690 372 305 128 401 670 200 
558 7 525 21 559 521 89 68 547 
559 7 547 558 32 68 525 21 267 
560 7 556 233 362 42 253 523 481 
561 7 313 442 195 350 530 286 445 
562 7 358 740 672 38 241 474 298 
563 7 714 302 706 377 57 63 566 
564 7 479 260 157 440 704 101 682 
565 7 169 745 696 312 544 227 354 
566 7 248 22 63 57 28 146 484 
567 7 681 367 314 469 481 247 621 
568 7 118 71 315 49 234 692 658 
569 7 374 699 158 632 642 31 761 
570 7 278 698 478 432 312 565 457 
571 7 391 687 85 423 464 259 676 
572 6 611 674 400 125 472 316 
573 7 270 434 134 658 71 618 433 
574 7 748 12 84 720 596 25 728 
575 7 101 471 625 260 564 440 479 
576 7 269 389 724 129 18 438 546 
577 7 262 148 60 180 296 249 361 
578 7 121 489 581 620 537 138 456 
579 7 348 95 505 67 188 370 730 
580 7 170 332 684 553 373 499 591 
581 7 578 121 489 620 537 38 652 
582 7 225 55 104 292 731 116 49 
583 7 15 103 742 240 311 699 158 
584 7 46 110 392 91 383 425 356 
585 7 768 261 428 186 35 626 34 
586 7 453 86 113 529 677 351 470 
587 7 353 45 712 462 503 426 217 
588 7 336 28 57 406 188 146 560 
589 7 751 604 422 61 276 693 691 
590 7 204 16 417 124 283 539 713 
591 7 174 52 510 92 170 580 553 
592 7 639 52 390 334 92 553 721 
593 7 72 33 50 224 707 119 235 
594 7 643 40 329 58 749 700 50 
595 7 163 240 61 612 485 742 339 
596 7 720 748 12 90 728 466 467 
597 7 664 458 93 554 496 23 6 
598 7 271 150 496 23 609 554 546 
599 7 355 168 187 227 174 245 217 
600 7 258 726 69 615 318 128 670 
601 5 458 504 436 23 496 
602 7 435 665 414 181 395 65 5 
603 7 552 492 234 475 692 727 79 
604 7 751 589 693 422 691 276 61 
605 7 75 768 127 428 437 35 120 
606 7 411 441 142 427 88 497 82 
607 7 303 321 665 3 602 435 143 
608 7 412 386 130 105 122 112 220 
609 7 150 272 598 736 554 404 27 
610 7 677 445 293 530 350 245 470 
611 6 572 125 674 534 472 400 
612 7 485 375 640 287 189 339 51 
613 5 331 347 330 264 463 
614 7 528 56 739 518 357 407 275 
615 7 726 258 600 69 670 318 128 
616 6 688 418 731 757 145 514 
617 7 722 147 631 655 766 535 263 
618 7 134 380 434 573 270 484 658 
619 7 381 716 177 754 382 513 641 
620 7 537 121 489 578 284 635 746 
621 7 167 314 448 6 522 736 567 
622 7 483 421 112 511 307 122 333 
623 7 727 257 645 692 426 603 667 
624 7 255 511 398 421 333 124 622 
625 7 268 440 260 157 486 101 575 
626 7 137 35 585 534 125 152 768 
627 7 349 730 67 505 22 480 116 
628 7 309 191 695 140 629 171 498 
629 7 512 140 741 308 191 695 285 
630 7 228 83 289 451 199 323 151 
631 7 722 263 147 617 194 300 31 
632 7 31 569 642 761 374 19 194 
633 7 14 197 732 338 550 175 701 
634 7 682 704 506 157 479 345 564 
635 7 284 537 637 620 652 680 164 
636 7 256 661 87 277 281 106 647 
637 7 164 744 760 284 652 635 439 
638 7 133 151 729 297 689 83 305 
639 7 334 592 390 662 196 176 4 
640 7 287 189 485 339 612 737 51 
641 7 179 381 177 716 491 660 619 
642 7 761 374 632 569 19 31 158 
643 7 594 40 58 50 329 33 749 
644 7 738 242 94 198 508 710 216 
645 7 727 426 623 257 45 712 507 
646 7 494 291 378 409 487 126 160 
647 7 292 106 2 697 636 281 104 
648 7 734 747 424 262 148 223 199 
649 7 326 735 429 711 743 10 543 
650 7 205 517 70 376 56 275 528 
651 7 100 217 684 353 591 587 373 
652 7 439 30 164 637 284 537 744 
653 7 98 165 307 74 325 44 483 
654 7 310 7 237 754 382 450 171 
655 7 766 617 545 535 722 631 147 
656 7 449 251 352 719 450 733 139 
657 5 360 515 282 208 683 
658 7 270 573 433 692 234 71 434 
659 7 363 212 346 713 229 123 324 
660 7 753 179 641 491 48 145 177 
661 7 87 636 281 256 13 277 579 
662 7 334 176 340 196 295 80 639 
663 7 705 396 526 141 447 37 34 
664 7 93 597 458 469 436 554 601 
665 7 602 435 395 414 181 65 607 
666 7 218 543 767 413 254 689 729 
667 7 680 433 257 623 658 270 426 
668 6 524 536 534 715 365 152 
669 7 5 395 65 435 602 665 414 
670 7 726 258 615 600 128 557 133 
671 7 320 161 364 301 11 555 173 
672 7 241 298 358 562 740 338 250 
673 7 20 371 369 133 413 638 215 
674 7 472 400 572 99 125 611 316 
675 7 357 407 365 131 162 152 109 
676 5 464 316 85 400 687 
677 7 610 293 445 530 586 470 453 
678 7 388 448 522 167 621 702 36 
679 7 344 155 300 535 519 263 545 
680 7 667 433 257 635 623 284 658 
681 7 481 367 567 362 247 469 42 
682 7 634 704 479 564 157 752 260 
683 7 756 282 208 62 360 515 47 
684 7 651 373 100 580 760 217 744 
685 5 34 186 141 261 705 
686 7 333 185 399 417 511 455 16 
687 7 571 259 85 464 391 676 423 
688 7 616 418 731 224 757 145 79 
689 7 297 729 151 218 666 543 83 
690 7 372 557 401 305 128 200 153 
691 7 693 604 89 751 589 521 216 
692 7 234 658 603 270 552 568 433 
693 7 691 604 751 589 216 276 89 
694 5 103 240 347 330 331 
695 7 191 628 309 140 629 512 741 
696 7 745 169 544 565 221 503 227 
697 7 2 647 177 716 292 366 104 
698 7 570 278 478 457 432 73 565 
699 7 158 569 374 642 632 144 761 
700 6 73 329 416 457 40 594 
701 7 338 550 298 241 250 520 732 
702 7 388 708 27 404 678 522 448 
703 7 111 273 540 132 266 43 96 
704 7 157 634 682 260 440 564 486 
705 7 663 396 526 141 447 34 685 
706 7 563 302 714 239 444 138 403 
707 6 279 514 593 59 33 72 
708 7 27 404 702 272 388 609 736 
709 7 201 755 317 442 195 350 354 
710 7 216 508 210 242 693 691 21 
711 7 326 254 509 543 649 767 735 
712 7 45 426 462 353 587 257 645 
713 7 212 346 539 363 659 16 123 
714 7 563 302 706 377 63 57 566 
715 6 524 536 668 365 255 109 
716 7 177 491 381 366 641 48 179 
717 7 26 288 399 455 527 161 11 
718 7 474 135 203 499 250 322 562 
719 7 139 299 656 513 449 251 352 
720 7 596 12 748 728 466 467 90 
721 7 322 368 553 203 390 592 502 
722 7 631 147 263 617 194 300 31 
723 7 250 502 298 520 701 335 203 
724 7 269 576 389 129 18 438 546 
725 7 160 182 385 66 193 175 198 
726 7 258 600 615 69 670 318 128 
727 7 645 623 492 603 507 552 257 
728 7 466 467 12 720 596 750 748 
729 7 297 689 151 218 638 666 413 
730 7 505 67 349 627 22 146 406 
731 7 757 145 688 616 104 418 582 
732 7 550 633 14 338 197 701 762 
733 7 251 352 449 656 719 222 450 
734 7 648 747 424 223 148 262 319 
735 7 649 326 743 429 543 10 711 
736 7 522 167 6 448 554 621 150 
737 7 287 51 296 640 189 410 60 
738 7 644 242 94 198 508 710 223 
739 7 518 56 528 614 41 117 280 
740 7 358 562 672 241 38 298 338 
741 7 285 142 308 512 629 88 140 
742 7 15 311 240 482 103 595 583 
743 7 735 759 10 649 543 218 326 
744 7 760 164 637 373 439 652 462 
745 7 696 169 565 544 221 503 227 
746 7 495 114 377 620 121 489 63 
747 7 648 734 199 424 202 763 180 
748 7 12 596 720 574 728 466 90 
749 6 594 643 58 329 700 59 
750 7 465 467 493 90 460 728 466 
751 7 589 604 422 693 691 276 61 
752 7 166 376 682 77 403 479 345 
753 7 660 179 48 491 145 641 366 
754 7 513 237 139 299 654 382 619 
755 7 317 709 201 312 354 195 442 
756 7 683 282 208 62 47 515 294 
757 7 145 731 104 48 366 616 688 
758 7 252 149 402 84 113 8 293 
759 7 10 743 735 243 468 649 323 
760 7 744 373 164 637 462 684 439 
761 7 642 19 374 31 194 632 54 
762 6 763 265 732 14 550 214 
763 6 762 265 732 424 14 214 
764 7 290 425 383 172 110 91 259 
765 7 394 246 190 438 389 47 541 
766 7 545 655 535 617 679 263 722 
767 7 254 413 543 666 215 218 711 
768 7 428 605 261 585 75 35 127 
DEPOT_SECTION
   1
   -1
EOF
