NAME :  X-n766-kX-w76-c7.cctp
COMMENT : 	Adapted by Maziero, Usberti and Cavellucci from the Uchoa, Pecin, Pessoa, Poggi, Subramanian, and Vidal (2013)
TYPE :  CCTP
DIMENSION :    386
EDGE_WEIGHT_TYPE : 	EUC_2D	
CAPACITY : 	166
VERTICES_WITHIN_COVERAGE :  7
VERTICES_WITH_DEMAND : 	76
NODE_COORD_SECTION
1 0 0
2 409 418
3 378 220
4 469 585
5 91 695
6 455 648
7 86 403
8 493 292
9 124 630
10 43 202
11 961 668
12 538 143
13 114 523
14 273 287
15 884 865
16 551 791
17 609 232
18 69 625
19 191 484
20 562 650
21 858 506
22 688 951
23 174 158
24 175 404
25 314 484
26 210 517
27 574 158
28 76 499
29 136 195
30 47 593
31 87 897
32 526 650
33 683 60
34 437 962
35 863 428
36 866 335
37 16 391
38 948 422
39 1 945
40 13 299
41 404 889
42 974 290
43 59 281
44 966 52
45 815 145
46 238 897
47 546 414
48 297 370
49 421 143
50 292 86
51 420 958
52 661 796
53 98 757
54 15 722
55 599 669
56 287 134
57 925 251
58 115 179
59 449 945
60 487 960
61 683 779
62 628 855
63 290 322
64 145 109
65 356 887
66 416 654
67 899 981
68 228 187
69 634 10
70 673 503
71 999 237
72 280 64
73 407 977
74 417 841
75 773 52
76 922 376
77 270 503
78 998 123
79 353 527
80 19 697
81 326 401
82 156 557
83 232 556
84 272 248
85 383 472
86 659 930
87 62 513
88 108 723
89 127 359
90 329 531
91 544 840
92 384 143
93 350 231
94 158 64
95 281 153
96 991 305
97 322 68
98 378 996
99 941 397
100 89 16
101 759 988
102 938 366
103 224 487
104 948 17
105 816 580
106 243 75
107 55 873
108 585 640
109 841 326
110 41 67
111 445 424
112 897 432
113 404 444
114 411 117
115 167 197
116 502 596
117 724 799
118 137 619
119 121 457
120 847 277
121 508 997
122 601 692
123 610 664
124 845 965
125 554 127
126 612 861
127 142 905
128 735 77
129 990 120
130 63 415
131 97 810
132 664 488
133 148 748
134 876 902
135 30 706
136 434 176
137 734 742
138 390 613
139 879 972
140 957 393
141 351 361
142 614 200
143 840 412
144 162 699
145 166 217
146 640 833
147 309 407
148 560 636
149 29 716
150 885 881
151 28 821
152 973 213
153 37 615
154 273 325
155 517 434
156 0 537
157 843 863
158 705 899
159 911 610
160 339 859
161 313 107
162 104 662
163 982 715
164 27 603
165 71 270
166 301 17
167 376 970
168 322 295
169 21 95
170 552 836
171 911 695
172 456 521
173 266 379
174 23 325
175 157 140
176 689 733
177 187 599
178 283 191
179 243 947
180 701 533
181 688 457
182 882 105
183 880 403
184 727 763
185 623 916
186 841 842
187 752 33
188 853 91
189 224 467
190 252 39
191 184 424
192 117 489
193 972 425
194 895 182
195 668 858
196 289 178
197 490 992
198 270 351
199 143 955
200 647 818
201 585 134
202 812 27
203 306 312
204 66 672
205 692 808
206 78 96
207 406 574
208 218 533
209 615 657
210 486 290
211 579 792
212 58 395
213 290 79
214 656 508
215 454 572
216 49 808
217 902 700
218 801 148
219 968 613
220 309 508
221 484 528
222 417 871
223 590 883
224 588 906
225 85 837
226 50 718
227 939 795
228 105 219
229 679 87
230 637 841
231 43 674
232 3 542
233 783 185
234 539 977
235 960 56
236 587 221
237 194 248
238 207 151
239 234 860
240 859 230
241 249 328
242 81 319
243 417 151
244 29 337
245 28 797
246 903 544
247 894 511
248 146 870
249 622 795
250 104 80
251 775 9
252 227 95
253 894 959
254 560 381
255 348 195
256 725 18
257 547 135
258 503 150
259 525 398
260 542 437
261 942 842
262 669 79
263 34 333
264 403 892
265 384 624
266 575 146
267 883 410
268 415 834
269 659 480
270 775 47
271 520 443
272 643 534
273 610 14
274 856 433
275 367 202
276 959 121
277 437 871
278 898 946
279 848 841
280 933 277
281 909 533
282 542 759
283 236 287
284 432 394
285 950 392
286 519 148
287 406 224
288 912 370
289 893 908
290 402 173
291 515 391
292 525 148
293 976 323
294 541 414
295 260 372
296 398 168
297 931 992
298 538 113
299 491 269
300 908 293
301 683 466
302 562 673
303 610 675
304 328 389
305 858 6
306 317 132
307 604 158
308 983 457
309 511 585
310 627 247
311 901 332
312 689 533
313 546 156
314 355 930
315 588 246
316 404 127
317 388 924
318 395 917
319 615 262
320 876 977
321 48 799
322 905 895
323 539 424
324 919 958
325 477 915
326 839 150
327 442 171
328 837 336
329 885 892
330 384 474
331 862 505
332 309 275
333 992 289
334 390 123
335 359 186
336 544 788
337 974 260
338 770 156
339 353 228
340 859 428
341 998 458
342 829 360
343 908 981
344 502 274
345 923 363
346 698 99
347 909 979
348 986 411
349 668 73
350 556 420
351 557 187
352 552 849
353 769 505
354 919 370
355 989 314
356 479 893
357 639 494
358 372 659
359 342 391
360 602 251
361 558 601
362 966 113
363 807 418
364 975 299
365 649 646
366 989 457
367 936 356
368 943 386
369 485 338
370 788 498
371 332 64
372 408 844
373 937 404
374 864 155
375 503 291
376 385 875
377 415 607
378 407 837
379 671 15
380 269 160
381 482 896
382 924 466
383 744 71
384 429 662
385 358 858
386 512 303
DEMAND_SECTION
2 85
3 89
4 71
5 68
6 52
7 76
8 57
9 73
10 89
11 100
12 61
13 92
14 99
15 56
16 91
17 71
18 69
19 79
20 93
21 61
22 94
23 63
24 89
25 88
26 100
27 96
28 92
29 75
30 69
31 72
32 86
33 77
34 68
35 81
36 100
37 95
38 68
39 71
40 79
41 55
42 73
43 82
44 67
45 91
46 96
47 62
48 76
49 53
50 78
51 53
52 61
53 100
54 70
55 57
56 99
57 61
58 55
59 66
60 57
61 70
62 73
63 84
64 80
65 84
66 94
67 53
68 99
69 61
70 96
71 80
72 67
73 87
74 91
75 58
76 84
77 96
COVERAGE_SECTION
2 5 113 284 111 85 330 
3 6 275 339 287 93 255 335 
4 6 215 116 309 377 221 207 
5 7 88 204 162 226 231 53 135 
6 5 384 66 377 4 116 
7 7 130 212 89 119 37 242 244 
8 5 210 375 344 386 299 
9 7 118 162 18 177 204 5 144 
10 7 228 165 58 43 29 40 169 
11 5 163 219 171 217 159 
12 7 257 292 313 286 125 298 258 
13 7 192 28 87 82 119 19 26 
14 7 283 154 332 63 84 203 241 
15 7 150 329 322 134 157 279 289 
16 5 336 211 282 170 91 
17 6 360 310 236 315 319 142 
18 7 153 30 164 204 162 9 231 
19 7 103 189 26 208 191 192 119 
20 6 148 302 108 32 55 361 
21 7 331 247 281 246 370 274 382 
22 4 86 158 185 101 
23 7 175 238 115 29 64 145 68 
24 7 191 89 119 189 19 7 295 
25 6 220 77 90 79 85 330 
26 6 208 103 19 83 189 77 
27 7 266 201 313 307 351 257 125 
28 7 87 192 13 119 130 156 232 
29 7 58 115 145 228 23 175 237 
30 7 164 153 18 232 156 87 204 
31 7 107 127 225 248 199 131 151 
32 4 20 148 302 116 
33 4 349 262 229 346 
34 7 51 59 73 60 197 167 317 
35 7 340 274 267 143 183 112 363 
36 4 109 328 311 342 
37 7 212 130 244 263 174 7 40 
38 7 373 193 99 140 285 368 348 
39 7 107 31 151 225 199 216 127 
40 7 174 263 244 43 165 242 37 
41 7 264 222 376 318 277 317 372 
42 7 364 333 96 355 337 293 280 
43 7 165 242 40 174 263 244 228 
44 6 235 104 362 276 129 78 
45 5 218 326 338 374 233 
46 4 239 179 127 248 
47 7 294 323 350 260 259 155 254 
48 7 173 198 304 295 147 81 63 
49 7 243 316 114 296 136 327 290 
50 7 213 72 161 97 371 56 106 
51 7 34 73 59 167 317 318 98 
52 7 200 61 205 249 146 230 195 
53 7 88 133 131 5 226 321 216 
54 7 149 135 80 226 231 204 245 
55 7 123 303 209 122 108 302 20 
56 7 95 306 380 161 196 50 213 
57 6 280 300 337 152 42 240 
58 7 29 228 115 175 23 145 10 
59 7 34 51 60 325 73 381 356 
60 6 197 59 121 325 34 234 
61 7 52 205 117 176 184 200 137 
62 7 126 230 146 195 200 223 249 
63 7 154 203 198 14 241 168 48 
64 7 175 94 250 23 206 238 58 
65 7 385 376 160 314 264 41 317 
66 6 384 6 265 358 377 138 
67 6 343 347 139 253 320 324 
68 7 238 380 178 23 115 196 95 
69 2 273 379 
70 6 132 214 269 312 357 301 
71 7 337 152 333 42 364 96 57 
72 7 213 50 190 106 97 166 371 
73 7 51 167 34 98 59 317 318 
74 7 268 372 378 222 277 376 41 
75 7 270 187 383 251 128 202 256 
76 7 354 288 345 102 368 367 99 
77 7 220 25 103 189 208 26 83 
78 5 129 362 276 235 44 
79 5 90 220 25 330 85 
80 7 135 149 54 231 226 204 5 
81 7 304 147 359 48 141 173 295 
82 6 177 13 118 208 26 83 
83 4 208 26 177 77 
84 4 14 332 283 178 
85 4 330 113 2 79 
86 6 22 185 158 195 224 62 
87 7 28 13 192 156 232 30 119 
88 7 5 53 133 226 144 162 204 
89 6 7 242 24 212 130 191 
90 4 79 220 25 77 
91 3 170 352 16 
92 6 334 316 296 243 290 49 
93 2 339 3 
94 7 64 250 175 252 100 106 206 
95 7 380 56 196 178 306 161 68 
96 6 355 333 364 42 293 337 
97 5 371 213 50 161 72 
98 7 167 73 51 34 314 317 318 
99 7 373 285 368 140 38 76 102 
100 7 250 110 206 94 169 64 175 
101 1 22 
102 7 367 345 76 354 368 288 285 
103 7 189 19 26 208 77 83 191 
104 5 44 235 305 362 276 
105 3 21 370 331 
106 7 252 190 72 213 50 56 161 
107 7 31 225 151 216 321 131 245 
108 7 20 148 55 209 123 302 303 
109 5 328 36 342 120 311 
110 7 169 206 250 100 64 94 58 
111 3 284 2 113 
112 7 267 35 183 340 274 382 373 
113 5 2 85 330 111 284 
114 5 316 334 49 243 92 
115 7 145 29 23 58 175 237 238 
116 5 309 4 215 361 32 
117 3 205 184 61 
118 6 9 162 177 82 18 144 
119 7 192 28 7 13 191 130 19 
120 5 109 240 328 36 300 
121 6 197 234 60 34 59 325 
122 5 303 55 123 209 302 
123 7 209 303 55 122 108 365 302 
124 4 320 139 253 67 
125 6 257 298 12 266 313 201 
126 6 62 223 230 146 224 200 
127 6 248 199 31 225 107 46 
128 5 383 346 75 187 270 
129 5 78 362 276 235 44 
130 7 212 7 37 119 28 89 244 
131 6 225 216 321 53 151 245 
132 5 269 70 214 357 301 
133 4 88 53 144 5 
134 6 329 289 150 322 15 278 
135 7 149 80 54 226 231 204 5 
136 4 327 243 290 49 
137 5 184 176 117 61 205 
138 6 265 377 207 66 358 384 
139 7 320 253 67 343 347 278 124 
140 6 285 99 368 373 38 102 
141 6 359 304 81 48 147 203 
142 2 17 236 
143 6 340 274 35 363 183 267 
144 5 133 88 162 5 9 
145 5 115 29 237 23 228 
146 7 230 200 62 195 126 249 52 
147 7 81 304 359 48 173 295 141 
148 6 20 108 361 32 302 55 
149 7 135 54 80 226 231 204 5 
150 7 329 15 134 322 289 157 279 
151 7 245 216 321 107 225 131 53 
152 6 71 337 57 280 42 333 
153 7 164 30 18 231 204 232 162 
154 7 63 241 198 203 14 295 48 
155 6 271 323 260 294 47 259 
156 7 232 87 164 30 28 153 18 
157 4 186 279 15 150 
158 3 22 86 195 
159 3 219 246 11 
160 5 385 65 376 372 378 
161 6 306 50 213 56 97 371 
162 7 5 9 204 18 118 88 231 
163 5 11 171 217 227 219 
164 7 153 30 18 232 156 231 204 
165 7 43 242 228 40 174 263 10 
166 6 72 190 97 371 213 50 
167 7 98 73 314 51 317 318 34 
168 4 203 332 63 14 
169 7 110 206 250 100 10 64 58 
170 5 91 352 16 336 211 
171 3 217 11 163 
172 3 221 215 4 
173 7 295 198 48 147 154 241 63 
174 7 244 263 40 43 242 37 165 
175 7 23 64 238 58 115 29 94 
176 4 61 137 184 52 
177 4 82 118 83 9 
178 6 196 380 95 68 56 84 
179 7 46 239 199 127 314 248 65 
180 4 312 70 214 132 
181 4 301 269 132 70 
182 4 188 374 326 45 
183 7 267 35 340 112 274 143 288 
184 5 137 117 61 176 205 
185 5 224 86 223 126 62 
186 3 279 157 15 
187 7 270 75 256 251 383 128 202 
188 5 182 326 374 45 202 
189 7 103 19 26 77 191 208 24 
190 7 106 72 166 213 252 50 97 
191 7 24 189 19 119 103 89 295 
192 7 119 13 28 87 19 82 7 
193 6 348 38 308 140 366 285 
194 4 374 240 326 57 
195 6 230 146 62 200 158 205 
196 6 178 95 380 56 306 255 
197 7 121 60 234 34 59 51 325 
198 7 295 154 173 241 48 63 203 
199 6 127 31 248 179 46 107 
200 7 146 230 52 249 62 195 205 
201 4 266 27 307 125 
202 7 251 270 75 305 187 188 383 
203 7 63 168 154 332 14 198 48 
204 7 231 5 162 18 226 135 80 
205 5 61 52 117 200 195 
206 7 250 110 169 64 100 94 175 
207 5 377 138 215 265 4 
208 6 26 83 103 19 77 82 
209 7 123 303 55 108 365 122 20 
210 5 8 375 299 344 386 
211 6 16 336 249 282 170 91 
212 7 130 7 37 244 263 89 174 
213 7 50 72 97 161 371 106 56 
214 6 70 132 357 269 272 312 
215 6 4 207 172 377 221 116 
216 7 321 245 151 225 131 107 53 
217 3 171 11 163 
218 5 45 338 326 233 374 
219 3 11 159 246 
220 4 25 90 77 79 
221 3 172 215 4 
222 7 277 41 264 372 74 376 378 
223 5 224 126 62 185 352 
224 4 223 185 126 62 
225 7 131 216 107 321 151 31 248 
226 7 149 135 54 80 231 5 204 
227 2 261 15 
228 7 29 58 145 165 10 115 43 
229 4 262 349 346 33 
230 7 146 62 200 126 195 249 52 
231 7 204 80 135 149 226 5 18 
232 7 156 87 164 30 153 28 18 
233 3 338 218 45 
234 4 121 197 60 224 
235 6 44 104 362 276 129 78 
236 4 17 315 142 360 
237 4 145 283 115 68 
238 7 23 68 175 252 115 380 95 
239 3 46 179 248 
240 3 120 194 57 
241 7 154 198 63 283 295 14 173 
242 7 43 263 165 244 174 89 40 
243 7 49 296 290 316 136 327 92 
244 7 263 174 40 242 37 43 212 
245 7 321 151 216 131 225 54 53 
246 5 281 247 331 21 159 
247 6 281 331 246 21 382 112 
248 5 127 31 225 131 199 
249 5 200 52 146 211 230 
250 7 206 64 94 110 100 175 169 
251 7 187 270 202 75 256 383 128 
252 7 106 238 72 190 213 50 56 
253 7 278 139 67 320 324 347 343 
254 2 47 294 
255 5 335 275 339 93 3 
256 7 187 251 379 383 270 33 75 
257 7 125 12 313 298 292 266 286 
258 3 286 292 12 
259 6 291 294 47 323 155 350 
260 5 323 350 47 271 294 
261 2 227 15 
262 4 349 229 33 346 
263 7 244 174 40 242 43 37 212 
264 7 41 222 376 318 317 277 65 
265 6 138 377 358 66 207 384 
266 6 27 201 125 257 307 313 
267 7 183 112 35 340 274 143 288 
268 6 74 378 372 222 277 376 
269 5 132 357 70 214 301 
270 7 75 187 251 383 202 128 256 
271 5 155 260 323 294 47 
272 3 214 357 70 
273 1 69 
274 7 340 35 143 267 183 112 363 
275 5 335 255 3 339 93 
276 5 362 129 78 235 44 
277 7 222 74 41 264 372 268 378 
278 6 253 324 139 67 347 343 
279 4 186 157 15 150 
280 5 57 300 42 337 364 
281 5 246 247 331 21 382 
282 2 336 16 
283 5 14 241 84 154 237 
284 2 2 111 
285 7 140 368 99 373 102 38 76 
286 5 292 258 12 313 257 
287 2 3 275 
288 6 354 76 345 102 367 368 
289 6 134 322 329 150 278 15 
290 6 296 243 136 92 49 327 
291 5 259 294 47 323 155 
292 6 286 12 258 313 257 125 
293 5 355 96 364 42 333 
294 7 47 323 350 259 260 155 291 
295 7 173 198 48 241 154 63 147 
296 6 290 243 92 49 136 316 
297 3 343 347 67 
298 4 125 257 12 292 
299 4 344 210 8 375 
300 4 280 311 57 36 
301 4 181 269 132 70 
302 5 20 55 148 108 32 
303 7 123 55 122 209 108 302 365 
304 7 81 359 147 48 141 173 198 
305 6 202 251 188 104 270 75 
306 5 161 56 95 50 196 
307 3 27 201 266 
308 6 366 341 193 348 38 382 
309 4 116 4 361 215 
310 4 319 17 360 315 
311 4 36 345 288 300 
312 5 180 70 214 272 132 
313 6 12 257 292 27 286 125 
314 7 317 318 65 167 264 376 41 
315 5 360 17 236 319 310 
316 5 114 334 49 92 243 
317 7 318 314 264 41 51 167 65 
318 7 317 264 41 314 376 51 65 
319 5 360 310 17 315 236 
320 7 139 67 253 343 124 347 278 
321 7 216 245 151 131 225 53 107 
322 5 289 329 150 134 15 
323 7 294 47 260 350 155 271 259 
324 5 347 278 253 343 67 
325 5 381 356 59 60 277 
326 4 45 374 218 188 
327 3 136 243 49 
328 5 109 342 36 120 311 
329 7 150 134 289 322 15 157 278 
330 4 85 113 2 79 
331 7 21 247 281 246 274 382 370 
332 3 168 203 14 
333 7 96 42 364 355 337 293 71 
334 5 316 92 114 49 243 
335 4 255 275 3 339 
336 4 16 282 211 170 
337 7 42 71 333 364 280 152 96 
338 3 218 233 45 
339 3 93 3 275 
340 7 35 274 143 267 183 112 363 
341 5 366 308 193 348 38 
342 5 328 109 36 143 363 
343 5 347 67 297 324 253 
344 5 299 375 8 210 386 
345 6 354 76 288 102 367 368 
346 5 229 262 349 33 128 
347 5 343 67 324 253 297 
348 5 193 140 38 285 308 
349 3 262 229 33 
350 4 47 294 323 260 
351 2 313 27 
352 4 91 170 223 16 
353 6 370 180 312 21 105 331 
354 6 76 288 345 102 367 368 
355 5 96 293 364 333 42 
356 4 381 325 277 59 
357 4 214 269 132 70 
358 3 265 66 138 
359 6 304 81 141 147 48 2 
360 5 315 319 17 310 236 
361 3 148 108 20 
362 5 276 129 78 235 44 
363 5 143 274 340 35 342 
364 6 42 96 333 355 293 337 
365 4 209 123 303 55 
366 6 308 341 193 348 38 382 
367 6 102 345 354 76 288 368 
368 7 285 99 140 373 102 76 354 
369 3 386 8 210 
370 7 353 21 331 363 105 180 274 
371 4 97 213 50 161 
372 7 378 74 268 222 376 277 41 
373 7 99 285 368 38 140 76 102 
374 4 326 194 45 182 
375 5 8 386 210 344 299 
376 7 41 264 65 222 385 372 318 
377 7 138 207 265 66 215 6 384 
378 6 372 268 74 222 376 277 
379 4 69 33 256 349 
380 7 95 196 56 178 68 306 238 
381 4 356 325 277 59 
382 7 112 38 247 308 193 373 366 
383 6 128 75 187 270 346 256 
384 5 66 6 358 377 265 
385 7 160 65 376 372 378 41 264 
386 5 375 8 210 344 299 
DEPOT_SECTION
   1
   -1
EOF
