NAME :  X-n716-kX-w71-c7.cctp
COMMENT : 	Adapted by Maziero, Usberti and Cavellucci from the Uchoa, Pecin, Pessoa, Poggi, Subramanian, and Vidal (2013)
TYPE :  CCTP
DIMENSION :    434
EDGE_WEIGHT_TYPE : 	EUC_2D	
CAPACITY : 	1007
VERTICES_WITHIN_COVERAGE :  7
VERTICES_WITH_DEMAND : 	71
NODE_COORD_SECTION
1 377 105
2 535 93
3 820 625
4 689 745
5 807 568
6 589 169
7 649 756
8 821 693
9 567 240
10 517 211
11 598 141
12 903 670
13 713 679
14 574 89
15 395 116
16 829 560
17 409 30
18 804 653
19 918 527
20 829 641
21 828 559
22 559 118
23 591 816
24 985 650
25 510 71
26 528 66
27 556 132
28 568 115
29 692 731
30 877 663
31 703 728
32 820 568
33 716 754
34 790 391
35 613 71
36 898 518
37 838 501
38 465 142
39 440 163
40 859 635
41 907 620
42 532 157
43 791 140
44 463 11
45 894 947
46 883 591
47 718 559
48 697 747
49 928 495
50 877 488
51 732 699
52 747 648
53 541 167
54 801 767
55 817 673
56 495 114
57 853 634
58 769 733
59 592 630
60 481 157
61 832 750
62 630 650
63 858 405
64 774 793
65 393 33
66 918 650
67 842 625
68 781 709
69 670 731
70 698 682
71 888 510
72 691 227
73 607 583
74 684 755
75 719 538
76 561 258
77 801 588
78 651 724
79 558 156
80 815 769
81 544 45
82 884 664
83 700 661
84 765 754
85 743 668
86 677 739
87 821 657
88 627 767
89 597 221
90 564 124
91 619 81
92 841 603
93 807 381
94 817 571
95 822 587
96 547 622
97 981 603
98 506 265
99 535 190
100 951 510
101 802 650
102 813 632
103 541 571
104 782 710
105 734 199
106 708 753
107 516 250
108 813 655
109 341 76
110 390 94
111 533 205
112 871 644
113 953 650
114 972 653
115 462 6
116 799 558
117 856 548
118 426 177
119 650 737
120 698 750
121 882 489
122 500 9
123 706 709
124 769 171
125 493 12
126 569 840
127 814 628
128 761 651
129 780 712
130 743 689
131 757 743
132 935 662
133 703 732
134 446 133
135 840 701
136 689 226
137 544 125
138 719 724
139 542 166
140 698 689
141 763 420
142 791 644
143 688 744
144 913 536
145 703 717
146 883 666
147 812 727
148 483 119
149 458 155
150 569 802
151 818 695
152 680 669
153 849 641
154 793 567
155 494 71
156 723 547
157 817 501
158 819 644
159 568 904
160 825 582
161 805 573
162 619 286
163 802 575
164 611 583
165 882 653
166 432 156
167 941 611
168 517 50
169 673 241
170 873 575
171 805 702
172 873 905
173 382 39
174 572 101
175 724 757
176 696 688
177 528 89
178 458 136
179 474 156
180 395 137
181 464 23
182 787 798
183 449 182
184 719 534
185 826 574
186 510 126
187 576 211
188 827 635
189 531 155
190 553 135
191 532 92
192 524 221
193 831 657
194 573 132
195 397 88
196 614 113
197 370 164
198 676 561
199 839 712
200 791 642
201 497 60
202 897 655
203 933 544
204 905 584
205 619 848
206 794 660
207 701 755
208 659 216
209 479 165
210 762 652
211 635 649
212 961 442
213 830 674
214 610 158
215 908 677
216 380 165
217 898 676
218 647 742
219 523 98
220 680 745
221 645 758
222 686 747
223 799 670
224 516 261
225 507 53
226 495 73
227 398 104
228 587 644
229 632 164
230 708 738
231 420 201
232 832 651
233 834 40
234 790 543
235 971 447
236 758 803
237 578 210
238 721 751
239 708 762
240 622 645
241 701 683
242 537 199
243 734 650
244 841 717
245 488 202
246 788 773
247 991 514
248 640 746
249 849 646
250 879 660
251 537 90
252 652 757
253 588 132
254 553 791
255 863 485
256 811 641
257 653 665
258 417 157
259 732 557
260 877 596
261 520 80
262 719 547
263 833 635
264 682 720
265 717 744
266 576 805
267 624 678
268 420 66
269 603 661
270 565 102
271 657 772
272 685 550
273 420 118
274 611 73
275 739 646
276 696 742
277 499 127
278 458 130
279 703 731
280 540 79
281 794 695
282 809 734
283 636 81
284 667 716
285 866 744
286 908 653
287 592 805
288 805 793
289 611 127
290 579 90
291 524 75
292 758 738
293 489 114
294 494 94
295 528 65
296 547 656
297 559 88
298 522 61
299 890 512
300 995 478
301 814 524
302 801 670
303 901 581
304 709 580
305 924 348
306 945 660
307 607 77
308 695 744
309 531 66
310 854 545
311 850 405
312 956 623
313 674 735
314 522 149
315 668 719
316 884 343
317 738 650
318 669 715
319 839 634
320 535 155
321 681 673
322 612 153
323 680 186
324 508 183
325 854 424
326 752 788
327 609 792
328 657 736
329 786 784
330 941 669
331 629 62
332 799 640
333 512 85
334 790 810
335 659 773
336 814 655
337 614 81
338 724 690
339 553 87
340 728 755
341 545 91
342 759 838
343 828 706
344 947 526
345 571 297
346 891 583
347 617 861
348 684 261
349 549 106
350 669 741
351 496 70
352 548 78
353 864 673
354 952 875
355 651 752
356 709 747
357 724 748
358 266 39
359 894 666
360 928 560
361 707 731
362 511 817
363 805 653
364 508 130
365 528 154
366 534 55
367 820 653
368 798 672
369 757 655
370 845 653
371 551 125
372 705 719
373 463 8
374 576 77
375 574 577
376 490 168
377 757 397
378 873 635
379 778 727
380 701 727
381 878 620
382 629 757
383 834 753
384 883 622
385 852 520
386 828 545
387 737 691
388 660 626
389 710 688
390 725 765
391 653 735
392 829 553
393 853 652
394 759 729
395 598 56
396 931 436
397 877 690
398 692 743
399 560 127
400 418 158
401 610 838
402 406 120
403 509 118
404 742 669
405 616 172
406 700 223
407 687 680
408 769 686
409 810 979
410 891 663
411 917 552
412 580 241
413 494 195
414 903 617
415 652 236
416 573 182
417 716 702
418 480 176
419 520 195
420 887 583
421 609 48
422 906 679
423 887 598
424 990 612
425 927 659
426 654 624
427 552 100
428 846 570
429 525 68
430 892 591
431 462 157
432 863 795
433 619 603
434 869 503
DEMAND_SECTION
2 47
3 21
4 19
5 37
6 40
7 79
8 60
9 88
10 84
11 75
12 12
13 42
14 21
15 91
16 6
17 57
18 7
19 66
20 7
21 99
22 75
23 4
24 85
25 10
26 29
27 6
28 20
29 7
30 50
31 26
32 29
33 99
34 45
35 57
36 14
37 33
38 2
39 38
40 43
41 64
42 85
43 84
44 46
45 53
46 45
47 48
48 48
49 85
50 60
51 2
52 17
53 12
54 99
55 43
56 40
57 29
58 13
59 29
60 26
61 66
62 45
63 34
64 33
65 6
66 72
67 34
68 16
69 36
70 69
71 10
72 10
COVERAGE_SECTION
2 7 191 251 177 341 219 280 427 
3 6 127 102 188 263 20 256 
4 7 143 222 398 308 48 276 220 
5 7 161 163 94 32 116 154 185 
6 6 416 214 405 322 11 79 
7 7 252 221 355 248 218 271 119 
8 6 151 343 171 55 135 213 
9 6 412 76 187 237 89 192 
10 5 192 419 111 242 99 
11 6 253 322 289 214 194 6 
12 7 217 215 422 359 410 202 286 
13 7 389 241 70 338 140 176 83 
14 7 290 174 374 297 270 339 427 
15 6 227 402 180 110 273 195 
16 7 21 392 32 185 386 94 428 
17 7 65 173 268 181 44 115 373 
18 7 363 101 108 336 206 256 332 
19 7 144 36 203 411 344 299 49 
20 7 188 263 158 232 319 367 193 
21 7 16 392 32 386 185 94 428 
22 7 90 28 399 371 27 349 137 
23 7 287 266 150 401 327 126 205 
24 7 114 113 424 312 306 97 330 
25 7 261 333 351 226 291 429 155 
26 7 295 309 429 298 291 366 261 
27 7 190 399 371 90 22 137 194 
28 7 22 90 270 399 174 194 371 
29 7 380 31 133 279 276 398 308 
30 7 250 82 146 165 410 353 359 
31 7 380 279 133 361 372 29 145 
32 7 94 185 16 21 5 160 161 
33 7 238 106 175 265 356 357 239 
34 6 93 377 141 311 63 325 
35 7 274 307 337 91 331 395 421 
36 7 299 71 19 144 121 434 50 
37 7 157 385 255 434 301 50 386 
38 7 178 278 149 431 179 134 60 
39 7 166 118 149 183 400 431 258 
40 7 57 153 378 112 249 393 67 
41 7 414 384 381 423 66 286 430 
42 6 189 320 365 53 139 314 
43 2 124 105 
44 5 373 115 181 125 122 
45 3 172 409 354 
46 7 260 423 420 430 346 170 303 
47 7 262 156 259 75 304 184 272 
48 7 120 308 276 398 4 143 207 
49 7 100 19 344 36 299 71 144 
50 7 121 255 434 71 299 36 37 
51 4 387 338 130 417 
52 7 275 317 369 243 128 210 85 
53 6 139 42 320 189 365 79 
54 7 80 246 329 288 182 282 61 
55 7 213 87 302 108 223 336 368 
56 7 293 148 277 403 186 294 364 
57 7 40 153 249 67 319 393 263 
58 6 379 394 292 131 84 129 
59 7 228 269 240 433 62 96 211 
60 7 179 209 376 418 431 38 149 
61 7 383 80 282 147 244 54 285 
62 7 211 240 257 267 269 426 388 
63 7 311 325 93 316 34 396 255 
64 6 182 329 236 326 334 246 
65 7 173 17 268 195 110 109 227 
66 6 286 425 132 202 12 215 
67 7 319 263 57 153 188 40 20 
68 5 104 129 379 281 171 
69 6 313 350 86 315 328 284 
70 7 241 176 140 407 389 13 321 
71 7 299 36 434 121 50 19 255 
72 7 136 406 169 208 348 415 323 
73 4 164 433 375 59 
74 2 222 4 
75 6 184 262 156 47 259 272 
76 7 9 412 345 224 107 187 237 
77 3 163 161 5 
78 7 391 119 328 218 284 315 69 
79 7 139 53 190 320 27 42 189 
80 7 54 61 383 288 246 329 282 
81 3 366 309 26 
82 7 146 250 30 410 359 165 202 
83 3 70 13 152 
84 3 131 292 58 
85 7 404 317 369 52 243 130 275 
86 4 313 220 350 69 
87 7 367 336 108 193 158 232 55 
88 4 382 221 7 248 
89 4 237 187 412 9 
90 7 399 22 28 27 194 371 190 
91 6 337 274 35 307 283 331 
92 2 67 95 
93 7 34 311 377 63 141 325 316 
94 7 32 185 5 161 160 16 21 
95 4 160 185 94 32 
96 3 296 59 228 
97 6 424 312 167 24 114 113 
98 5 224 107 192 10 76 
99 4 242 111 419 53 
100 6 344 49 19 203 247 144 
101 7 18 363 332 108 142 206 256 
102 7 127 256 3 158 188 332 20 
103 5 375 96 73 164 59 
104 5 68 129 379 281 171 
105 6 406 124 72 136 323 169 
106 7 356 207 33 239 120 48 238 
107 6 224 98 192 10 76 111 
108 7 336 367 87 363 18 101 158 
109 7 110 173 195 227 15 65 402 
110 7 195 227 15 402 273 268 180 
111 5 242 99 419 10 192 
112 7 378 165 40 250 30 393 57 
113 7 306 114 132 330 312 425 24 
114 7 24 113 306 312 330 132 424 
115 5 373 44 181 125 122 
116 7 154 5 161 163 234 94 32 
117 6 310 428 392 385 386 16 
118 6 39 400 166 258 183 231 
119 7 391 218 328 78 248 355 7 
120 7 48 207 308 276 398 4 106 
121 7 50 255 434 71 299 36 385 
122 5 125 44 373 115 181 
123 5 145 372 417 31 380 
124 5 43 105 406 323 72 
125 5 122 44 373 181 115 
126 7 23 266 150 401 287 205 254 
127 7 102 3 256 188 158 332 20 
128 6 210 369 52 275 317 85 
129 6 68 104 379 281 58 171 
130 6 387 51 338 404 85 408 
131 4 292 84 394 58 
132 6 330 425 306 66 113 286 
133 7 279 31 361 380 230 29 276 
134 4 178 278 38 149 
135 5 199 343 244 8 151 
136 7 72 406 169 208 348 415 323 
137 3 371 190 27 
138 3 361 372 31 
139 6 53 42 320 189 365 79 
140 6 176 70 241 389 407 13 
141 3 377 34 93 
142 6 200 332 101 18 206 363 
143 7 4 222 398 308 220 276 48 
144 6 19 411 203 36 360 299 
145 6 372 123 380 31 279 133 
146 7 82 30 250 410 359 165 202 
147 7 282 171 343 61 199 244 151 
148 4 293 56 277 403 
149 7 431 38 179 178 39 60 209 
150 7 266 254 287 23 126 327 401 
151 6 8 171 343 55 135 213 
152 3 321 407 70 
153 7 249 57 40 319 393 370 67 
154 5 116 163 161 5 77 
155 4 226 351 201 25 
156 7 262 75 47 259 184 304 272 
157 5 37 301 385 386 255 
158 7 256 367 20 188 336 87 102 
159 5 126 347 205 401 23 
160 4 95 185 94 32 
161 7 163 5 94 154 32 77 116 
162 5 345 412 415 76 9 
163 7 161 5 154 77 94 116 32 
164 5 73 433 375 59 426 
165 7 250 30 82 146 410 112 202 
166 6 39 400 258 118 149 134 
167 7 312 41 414 97 113 66 204 
168 5 225 298 366 26 295 
169 7 136 415 72 348 208 406 323 
170 6 420 46 346 260 430 423 
171 6 281 151 8 343 104 68 
172 2 45 354 
173 7 65 17 268 195 109 110 227 
174 7 270 14 290 28 297 427 22 
175 6 340 238 390 33 357 265 
176 6 140 70 241 407 389 13 
177 7 191 2 251 219 261 291 280 
178 5 278 38 134 149 431 
179 7 60 209 431 149 38 376 418 
180 6 402 15 258 273 400 216 
181 4 44 373 115 125 
182 7 334 64 329 288 246 236 54 
183 5 39 118 149 431 166 
184 6 75 262 156 47 259 272 
185 6 32 160 94 16 95 21 
186 5 364 403 277 56 293 
187 5 237 89 416 9 412 
188 7 20 263 3 158 319 102 127 
189 6 42 365 320 314 53 139 
190 5 27 371 399 137 90 
191 7 2 177 251 219 341 280 261 
192 6 10 111 242 419 107 99 
193 7 232 87 367 370 20 213 336 
194 7 90 399 253 27 28 22 190 
195 6 110 227 15 268 402 273 
196 2 289 11 
197 6 216 180 258 400 15 118 
198 6 272 304 47 262 75 156 
199 5 244 135 343 8 151 
200 6 142 332 101 18 206 363 
201 5 351 155 225 226 25 
202 7 410 286 359 165 12 82 146 
203 6 360 411 144 19 344 100 
204 5 303 346 430 420 46 
205 3 347 401 23 
206 6 223 18 302 101 363 368 
207 5 120 106 48 239 356 
208 6 415 169 136 72 323 406 
209 6 60 179 376 418 431 149 
210 6 128 369 52 275 317 85 
211 7 62 240 257 267 426 269 388 
212 7 235 396 300 49 100 247 344 
213 7 55 193 87 8 232 367 151 
214 6 322 405 11 229 6 289 
215 4 422 12 217 359 
216 6 197 180 258 400 118 15 
217 6 12 422 215 359 410 82 
218 7 119 248 391 355 328 7 221 
219 6 177 191 2 251 333 261 
220 4 222 86 143 4 
221 7 7 252 355 248 218 382 271 
222 5 4 143 220 398 74 
223 6 302 368 206 18 55 363 
224 6 98 107 192 76 10 9 
225 5 168 201 298 25 351 
226 5 155 351 201 25 294 
227 6 15 110 195 402 273 180 
228 6 59 269 240 296 62 96 
229 6 405 214 322 11 6 289 
230 7 361 133 279 356 31 265 276 
231 5 118 183 39 400 258 
232 7 193 20 367 87 370 158 263 
233 2 43 124 
234 4 116 154 5 301 
235 7 212 300 396 49 100 247 344 
236 4 326 64 182 334 
237 5 187 89 416 412 9 
238 7 357 33 175 265 340 106 356 
239 3 106 207 33 
240 7 62 211 269 267 59 228 257 
241 6 70 140 176 389 13 407 
242 4 111 99 419 10 
243 5 317 275 52 85 404 
244 5 199 135 343 8 147 
245 5 413 418 324 10 419 
246 7 329 54 64 182 288 80 84 
247 6 300 100 344 203 49 235 
248 5 218 7 119 221 355 
249 7 153 393 370 57 40 319 232 
250 7 30 82 146 165 410 359 112 
251 7 2 191 341 177 280 219 339 
252 6 7 355 221 218 248 271 
253 7 11 194 289 90 28 399 22 
254 7 150 266 287 23 362 126 327 
255 7 50 121 434 37 71 385 299 
256 7 102 158 332 101 127 363 18 
257 3 211 62 152 
258 6 400 166 118 39 180 134 
259 6 156 47 262 75 184 304 
260 7 46 423 420 430 346 170 381 
261 7 291 333 177 25 429 26 191 
262 7 156 75 47 184 259 272 304 
263 7 188 319 20 67 3 232 153 
264 5 315 318 29 69 284 
265 7 238 357 356 33 230 106 175 
266 7 150 287 23 254 327 126 401 
267 2 269 62 
268 5 195 17 110 65 227 
269 5 228 240 267 62 59 
270 7 174 28 427 297 14 349 22 
271 4 335 252 7 221 
272 6 198 47 262 75 156 184 
273 4 402 15 227 134 
274 7 35 307 337 91 331 395 421 
275 5 317 243 52 369 85 
276 7 308 398 48 4 120 143 222 
277 6 364 186 403 56 293 148 
278 4 178 134 38 149 
279 7 133 31 361 380 230 29 372 
280 7 352 251 341 2 191 339 177 
281 5 171 68 104 129 368 
282 7 147 61 383 171 379 54 343 
283 4 91 331 337 35 
284 5 318 315 69 264 78 
285 4 383 61 244 199 
286 7 66 202 12 359 410 425 215 
287 6 23 266 327 150 401 254 
288 7 182 329 334 54 80 246 64 
289 3 196 11 253 
290 7 14 174 374 270 297 339 28 
291 7 261 429 26 295 309 298 25 
292 4 131 394 58 84 
293 5 56 148 277 403 294 
294 5 56 333 226 293 155 
295 7 26 309 429 298 291 366 261 
296 3 96 228 59 
297 7 339 341 427 14 270 352 174 
298 7 295 26 429 309 168 366 291 
299 7 71 36 434 121 50 19 144 
300 6 247 235 212 100 344 49 
301 6 157 386 234 37 392 116 
302 6 223 368 206 55 18 363 
303 5 204 346 430 420 46 
304 2 47 259 
305 7 316 63 396 311 212 325 235 
306 6 132 330 113 425 114 66 
307 6 274 35 337 91 395 331 
308 7 276 398 48 4 120 143 222 
309 7 26 295 429 298 291 366 280 
310 6 117 385 386 392 428 16 
311 7 63 325 93 34 316 255 50 
312 7 167 113 97 114 424 306 24 
313 4 86 69 350 220 
314 4 365 189 42 320 
315 6 284 318 69 264 313 78 
316 7 305 63 311 93 325 396 34 
317 6 243 275 52 85 404 369 
318 5 284 315 264 69 78 
319 7 263 67 20 153 188 57 249 
320 6 42 189 365 53 139 314 
321 3 152 407 70 
322 6 214 11 405 229 289 6 
323 6 208 136 72 406 229 169 
324 6 419 413 376 99 245 10 
325 7 63 311 255 93 50 121 34 
326 2 236 64 
327 4 287 23 88 266 
328 7 391 119 218 78 350 69 313 
329 7 246 182 64 288 54 334 80 
330 5 132 306 425 113 66 
331 6 35 283 91 274 337 421 
332 7 200 142 101 256 18 363 102 
333 7 261 25 177 291 219 294 191 
334 6 182 64 288 329 236 246 
335 3 271 252 7 
336 7 108 367 87 363 18 158 101 
337 6 91 307 274 35 283 331 
338 7 51 387 389 417 13 130 241 
339 7 297 341 352 427 280 251 2 
340 6 175 238 357 390 33 265 
341 7 251 339 2 427 191 280 352 
342 3 236 334 64 
343 6 135 199 8 151 244 171 
344 6 100 203 19 144 49 360 
345 6 76 162 9 412 224 98 
346 6 420 430 303 46 204 423 
347 3 205 401 23 
348 7 169 72 136 406 415 208 162 
349 6 427 22 270 341 2 339 
350 3 86 313 69 
351 5 155 226 201 25 225 
352 6 280 339 341 297 251 2 
353 6 30 146 250 397 82 393 
354 2 172 45 
355 7 7 252 221 218 248 119 328 
356 7 106 230 265 33 120 207 48 
357 7 238 265 340 175 33 356 106 
358 7 109 173 65 110 195 17 227 
359 7 410 12 82 146 202 217 250 
360 5 411 203 144 204 19 
361 7 133 279 31 230 380 372 138 
362 5 254 150 126 266 23 
363 7 18 101 108 336 206 256 332 
364 5 186 277 403 56 314 
365 6 189 42 320 314 53 139 
366 7 309 295 26 298 81 429 168 
367 7 87 336 108 158 193 232 20 
368 4 223 302 206 55 
369 6 128 210 52 85 275 317 
370 7 249 393 153 232 193 20 319 
371 6 137 27 399 190 22 90 
372 7 145 31 380 123 279 361 133 
373 5 115 44 181 125 122 
374 6 14 290 297 174 339 270 
375 6 73 103 164 96 433 59 
376 6 209 418 60 179 324 413 
377 3 141 34 93 
378 7 112 40 381 384 57 165 153 
379 7 58 129 104 68 394 292 131 
380 7 31 279 133 361 372 29 145 
381 7 384 378 40 260 423 112 414 
382 4 88 221 248 7 
383 7 61 80 282 285 147 54 244 
384 7 381 378 414 41 423 112 40 
385 6 37 434 310 117 386 71 
386 7 392 21 16 32 301 310 94 
387 7 130 51 338 404 85 417 13 
388 3 426 211 62 
389 7 13 241 140 70 176 338 417 
390 4 175 340 33 238 
391 7 119 328 218 78 69 248 350 
392 7 21 16 386 32 185 94 428 
393 7 249 370 153 40 57 112 232 
394 4 292 58 131 379 
395 6 421 35 274 307 337 374 
396 7 212 235 49 121 50 100 300 
397 5 353 146 217 30 82 
398 7 308 4 143 276 48 222 120 
399 7 90 27 22 371 190 28 194 
400 6 258 166 118 39 180 134 
401 5 205 347 23 287 126 
402 6 15 273 227 180 110 195 
403 5 186 364 277 56 293 
404 7 85 317 130 243 369 52 275 
405 5 214 229 322 6 11 
406 7 72 136 169 348 105 208 323 
407 6 321 70 176 152 140 241 
408 2 68 130 
409 2 45 172 
410 7 359 82 146 202 250 165 12 
411 4 360 144 203 19 
412 5 9 76 89 187 237 
413 6 245 324 418 419 376 10 
414 7 41 384 381 423 430 46 204 
415 6 208 169 136 72 348 406 
416 4 6 237 187 79 
417 5 123 338 389 51 145 
418 6 209 376 60 179 413 431 
419 5 10 99 111 242 324 
420 7 346 46 430 303 423 170 260 
421 4 395 35 331 274 
422 5 215 12 217 359 410 
423 7 46 430 260 420 346 303 204 
424 7 97 312 24 114 167 113 306 
425 6 132 66 330 306 286 12 
426 4 388 211 62 240 
427 7 349 341 270 339 297 2 251 
428 6 16 185 21 117 160 392 
429 7 26 295 309 291 298 261 25 
430 7 346 46 420 423 303 204 260 
431 7 149 179 38 60 209 178 39 
432 4 285 383 61 80 
433 7 164 73 59 426 240 388 62 
434 7 50 121 255 71 299 385 37 
DEPOT_SECTION
   1
   -1
EOF
