NAME :  X-n766-kX-w306-c7.cctp
COMMENT : 	Adapted by Maziero, Usberti and Cavellucci from the Uchoa, Pecin, Pessoa, Poggi, Subramanian, and Vidal (2013)
TYPE :  CCTP
DIMENSION :    678
EDGE_WEIGHT_TYPE : 	EUC_2D	
CAPACITY : 	166
VERTICES_WITHIN_COVERAGE :  7
VERTICES_WITH_DEMAND : 	306
NODE_COORD_SECTION
1 0 0
2 409 418
3 378 220
4 469 585
5 91 695
6 455 648
7 86 403
8 493 292
9 124 630
10 43 202
11 961 668
12 538 143
13 114 523
14 273 287
15 884 865
16 551 791
17 609 232
18 69 625
19 191 484
20 562 650
21 858 506
22 688 951
23 174 158
24 175 404
25 314 484
26 210 517
27 574 158
28 76 499
29 136 195
30 47 593
31 87 897
32 526 650
33 683 60
34 437 962
35 863 428
36 866 335
37 16 391
38 948 422
39 1 945
40 13 299
41 404 889
42 974 290
43 59 281
44 966 52
45 815 145
46 238 897
47 546 414
48 297 370
49 421 143
50 292 86
51 420 958
52 661 796
53 98 757
54 15 722
55 599 669
56 287 134
57 925 251
58 115 179
59 449 945
60 487 960
61 683 779
62 628 855
63 290 322
64 145 109
65 356 887
66 416 654
67 899 981
68 228 187
69 634 10
70 673 503
71 999 237
72 280 64
73 407 977
74 417 841
75 773 52
76 922 376
77 270 503
78 998 123
79 353 527
80 352 21
81 19 697
82 590 322
83 326 401
84 851 668
85 156 557
86 700 423
87 232 556
88 272 248
89 383 472
90 659 930
91 62 513
92 551 459
93 108 723
94 127 359
95 765 936
96 199 264
97 942 980
98 595 746
99 736 127
100 808 393
101 194 803
102 879 138
103 329 531
104 544 840
105 384 143
106 622 102
107 350 231
108 656 364
109 730 846
110 800 218
111 556 454
112 967 994
113 654 141
114 213 582
115 158 64
116 381 518
117 281 153
118 991 305
119 322 68
120 378 996
121 941 397
122 89 16
123 666 113
124 518 249
125 665 277
126 796 357
127 759 988
128 938 366
129 688 589
130 224 487
131 626 118
132 852 200
133 948 17
134 816 580
135 243 75
136 55 873
137 585 640
138 841 326
139 41 67
140 418 268
141 445 424
142 897 432
143 404 444
144 391 537
145 574 728
146 411 117
147 167 197
148 502 596
149 724 799
150 137 619
151 121 457
152 857 627
153 847 277
154 658 690
155 508 997
156 638 579
157 601 692
158 884 98
159 524 729
160 610 664
161 845 965
162 554 127
163 817 205
164 612 861
165 142 905
166 735 77
167 990 120
168 63 415
169 259 715
170 322 763
171 97 810
172 459 337
173 664 488
174 538 13
175 148 748
176 876 902
177 30 706
178 434 176
179 604 49
180 464 151
181 734 742
182 390 613
183 879 972
184 957 393
185 351 361
186 614 200
187 840 412
188 162 699
189 166 217
190 640 833
191 309 407
192 468 408
193 663 357
194 834 918
195 560 636
196 338 624
197 29 716
198 885 881
199 819 918
200 818 716
201 657 620
202 315 660
203 767 710
204 28 821
205 639 287
206 973 213
207 37 615
208 669 338
209 273 325
210 533 9
211 716 872
212 517 434
213 561 232
214 0 537
215 843 863
216 929 542
217 705 899
218 207 798
219 911 610
220 339 859
221 612 102
222 316 810
223 365 275
224 760 848
225 393 15
226 313 107
227 104 662
228 280 739
229 860 699
230 517 239
231 982 715
232 570 26
233 27 603
234 71 270
235 301 17
236 376 970
237 618 71
238 451 280
239 322 295
240 21 95
241 552 836
242 957 868
243 756 914
244 911 695
245 456 521
246 216 642
247 266 379
248 23 325
249 157 140
250 689 733
251 971 840
252 420 309
253 187 599
254 160 281
255 942 581
256 736 235
257 283 191
258 243 947
259 701 533
260 688 457
261 882 105
262 880 403
263 727 763
264 570 595
265 623 916
266 841 842
267 950 982
268 752 33
269 853 91
270 224 467
271 252 39
272 184 424
273 117 489
274 956 1000
275 972 425
276 895 182
277 668 858
278 289 178
279 397 772
280 490 992
281 958 336
282 308 253
283 270 351
284 654 299
285 143 955
286 423 495
287 288 575
288 647 818
289 585 134
290 874 685
291 599 498
292 812 27
293 346 184
294 225 623
295 306 312
296 66 672
297 692 808
298 873 625
299 963 854
300 406 262
301 592 596
302 541 20
303 78 96
304 406 574
305 218 533
306 779 657
307 615 657
308 721 148
309 447 492
310 468 394
311 486 290
312 579 792
313 356 736
314 315 612
315 58 395
316 290 79
317 729 421
318 656 508
319 743 847
320 548 92
321 454 572
322 49 808
323 902 700
324 801 148
325 968 613
326 309 508
327 484 528
328 417 871
329 590 883
330 588 906
331 85 837
332 50 718
333 939 795
334 105 219
335 679 87
336 935 858
337 637 841
338 43 674
339 3 542
340 783 185
341 539 977
342 605 590
343 960 56
344 587 221
345 581 900
346 194 248
347 207 151
348 293 630
349 273 573
350 422 318
351 234 860
352 301 713
353 206 726
354 602 361
355 859 230
356 962 915
357 550 353
358 249 328
359 725 828
360 81 319
361 549 215
362 585 62
363 806 233
364 417 151
365 29 337
366 28 797
367 903 544
368 180 278
369 894 511
370 708 654
371 146 870
372 537 706
373 622 795
374 951 148
375 104 80
376 775 9
377 789 686
378 227 95
379 452 189
380 978 354
381 894 959
382 648 116
383 596 57
384 560 381
385 337 243
386 555 699
387 556 92
388 348 195
389 725 18
390 672 142
391 534 484
392 547 135
393 503 150
394 525 398
395 542 437
396 650 135
397 942 842
398 552 921
399 466 261
400 584 443
401 626 568
402 439 321
403 718 266
404 533 231
405 674 161
406 669 79
407 428 5
408 638 718
409 34 333
410 403 892
411 384 624
412 575 146
413 648 154
414 656 373
415 883 410
416 415 834
417 655 565
418 747 331
419 985 962
420 659 480
421 775 47
422 520 443
423 643 534
424 410 356
425 920 324
426 610 14
427 527 229
428 641 50
429 559 497
430 856 433
431 638 485
432 367 202
433 959 121
434 303 743
435 377 740
436 437 871
437 898 946
438 535 8
439 816 858
440 848 841
441 623 349
442 562 292
443 933 277
444 502 750
445 557 736
446 909 533
447 522 831
448 986 393
449 638 100
450 498 835
451 554 269
452 771 974
453 542 759
454 781 219
455 466 370
456 236 287
457 375 290
458 538 500
459 432 394
460 500 734
461 950 392
462 519 148
463 535 229
464 406 224
465 912 370
466 893 908
467 402 173
468 515 391
469 525 148
470 763 808
471 557 729
472 500 29
473 976 323
474 541 414
475 260 372
476 398 168
477 574 448
478 931 992
479 361 158
480 538 113
481 491 269
482 497 533
483 733 250
484 548 50
485 908 293
486 683 466
487 699 366
488 562 673
489 467 137
490 610 675
491 641 54
492 630 119
493 431 793
494 328 389
495 372 101
496 858 6
497 435 784
498 584 463
499 519 733
500 317 132
501 604 158
502 983 457
503 511 585
504 627 247
505 901 332
506 689 533
507 546 156
508 355 930
509 588 246
510 404 127
511 601 493
512 388 924
513 600 73
514 930 112
515 686 332
516 395 917
517 507 405
518 615 262
519 876 977
520 435 108
521 809 927
522 521 849
523 601 80
524 48 799
525 717 125
526 546 482
527 322 236
528 905 895
529 511 215
530 166 836
531 498 231
532 618 125
533 539 424
534 787 969
535 919 958
536 409 768
537 477 915
538 420 79
539 568 275
540 839 150
541 355 725
542 615 191
543 766 234
544 673 566
545 423 762
546 442 171
547 403 55
548 639 371
549 837 336
550 885 892
551 384 474
552 862 505
553 309 275
554 992 289
555 697 410
556 390 123
557 305 640
558 359 186
559 629 740
560 544 788
561 499 737
562 974 260
563 339 757
564 602 118
565 770 156
566 989 366
567 353 228
568 441 358
569 576 115
570 502 232
571 859 428
572 561 324
573 595 357
574 998 458
575 806 797
576 485 162
577 829 360
578 449 277
579 526 761
580 908 981
581 335 791
582 502 274
583 923 363
584 698 99
585 909 979
586 986 411
587 698 294
588 668 73
589 556 420
590 557 187
591 552 849
592 346 216
593 769 505
594 569 541
595 919 370
596 699 319
597 989 314
598 455 187
599 945 932
600 479 893
601 639 494
602 820 824
603 948 942
604 372 659
605 542 251
606 342 391
607 789 947
608 683 440
609 973 865
610 943 907
611 551 554
612 633 204
613 426 745
614 927 980
615 602 251
616 628 134
617 346 250
618 656 459
619 558 601
620 768 185
621 631 104
622 966 113
623 809 870
624 494 697
625 600 127
626 807 418
627 416 19
628 975 299
629 649 646
630 640 109
631 610 549
632 989 457
633 341 236
634 523 10
635 936 356
636 720 140
637 943 386
638 485 338
639 788 498
640 443 245
641 571 95
642 332 64
643 668 266
644 408 844
645 687 234
646 937 404
647 864 155
648 503 291
649 987 528
650 385 875
651 789 895
652 415 607
653 537 223
654 621 144
655 371 45
656 407 837
657 484 378
658 640 104
659 671 15
660 978 976
661 269 160
662 403 3
663 482 896
664 499 14
665 628 69
666 984 364
667 924 466
668 922 957
669 744 71
670 393 41
671 914 314
672 409 313
673 737 602
674 432 103
675 429 662
676 358 858
677 512 303
678 360 105
DEMAND_SECTION
2 85
3 89
4 71
5 68
6 52
7 76
8 57
9 73
10 89
11 100
12 61
13 92
14 99
15 56
16 91
17 71
18 69
19 79
20 93
21 61
22 94
23 63
24 89
25 88
26 100
27 96
28 92
29 75
30 69
31 72
32 86
33 77
34 68
35 81
36 100
37 95
38 68
39 71
40 79
41 55
42 73
43 82
44 67
45 91
46 96
47 62
48 76
49 53
50 78
51 53
52 61
53 100
54 70
55 57
56 99
57 61
58 55
59 66
60 57
61 70
62 73
63 84
64 80
65 84
66 94
67 53
68 99
69 61
70 96
71 80
72 67
73 87
74 91
75 58
76 84
77 96
78 96
79 97
80 68
81 100
82 60
83 90
84 81
85 60
86 91
87 97
88 55
89 64
90 75
91 65
92 67
93 51
94 60
95 56
96 62
97 85
98 73
99 68
100 81
101 80
102 100
103 64
104 84
105 78
106 54
107 9
108 6
109 4
110 3
111 5
112 7
113 5
114 6
115 10
116 4
117 1
118 4
119 9
120 5
121 2
122 5
123 1
124 7
125 7
126 10
127 1
128 9
129 9
130 5
131 8
132 2
133 3
134 8
135 8
136 9
137 9
138 5
139 1
140 1
141 5
142 2
143 1
144 5
145 7
146 10
147 10
148 6
149 9
150 3
151 2
152 3
153 2
154 2
155 9
156 3
157 6
158 8
159 6
160 9
161 5
162 10
163 6
164 10
165 6
166 7
167 2
168 1
169 9
170 4
171 8
172 7
173 5
174 9
175 10
176 3
177 10
178 5
179 9
180 7
181 9
182 8
183 1
184 8
185 6
186 9
187 10
188 6
189 9
190 2
191 2
192 3
193 7
194 4
195 9
196 2
197 7
198 7
199 9
200 7
201 9
202 8
203 5
204 5
205 6
206 6
207 4
208 2
209 5
210 5
211 10
212 8
213 4
214 2
215 9
216 3
217 5
218 10
219 6
220 7
221 10
222 2
223 9
224 5
225 9
226 9
227 1
228 10
229 8
230 3
231 2
232 9
233 10
234 2
235 4
236 7
237 10
238 7
239 7
240 6
241 5
242 3
243 6
244 2
245 5
246 8
247 8
248 9
249 2
250 5
251 1
252 9
253 1
254 1
255 1
256 7
257 1
258 7
259 5
260 8
261 2
262 6
263 1
264 9
265 7
266 8
267 7
268 7
269 1
270 3
271 1
272 5
273 4
274 10
275 9
276 1
277 5
278 7
279 2
280 1
281 10
282 9
283 5
284 5
285 5
286 3
287 9
288 2
289 8
290 1
291 1
292 7
293 1
294 9
295 1
296 9
297 10
298 7
299 7
300 7
301 10
302 8
303 8
304 3
305 2
306 9
307 2
COVERAGE_SECTION
2 7 143 459 141 89 192 551 424 
3 7 432 567 464 107 592 388 558 
4 7 321 148 503 652 327 482 304 
5 7 93 296 227 332 338 53 177 
6 6 675 66 652 624 4 148 
7 7 168 315 94 151 37 360 365 
8 6 311 648 582 677 481 399 
9 7 150 227 18 253 296 5 188 
10 7 334 234 58 43 29 40 240 
11 7 231 325 244 323 219 255 290 
12 7 392 469 507 462 162 480 393 
13 7 273 28 91 85 151 19 26 
14 7 456 209 553 63 88 295 358 
15 7 198 550 528 176 215 440 466 
16 6 560 312 453 579 241 104 
17 7 615 504 344 509 518 186 612 
18 7 207 30 233 296 227 9 338 
19 7 130 270 26 305 272 273 151 
20 7 195 488 137 32 55 386 619 
21 7 552 369 446 367 639 430 667 
22 7 90 217 265 243 95 127 211 
23 7 249 347 147 29 64 189 68 
24 7 272 94 151 270 19 7 475 
25 7 326 77 103 79 89 551 116 
26 7 305 130 19 87 270 77 114 
27 7 412 289 507 501 590 392 162 
28 7 91 273 13 151 168 214 339 
29 7 58 147 189 334 23 249 346 
30 7 233 207 18 339 214 91 296 
31 7 136 165 331 371 285 171 204 
32 7 20 195 488 372 386 624 148 
33 6 588 406 335 491 584 428 
34 7 51 59 73 60 280 236 512 
35 7 571 430 415 187 262 142 626 
36 6 138 549 505 577 671 425 
37 7 315 168 365 409 248 7 40 
38 7 646 275 121 184 461 637 586 
39 7 136 31 204 331 285 322 165 
40 7 248 409 365 43 234 360 37 
41 7 410 328 650 516 436 512 644 
42 7 628 554 118 597 562 473 443 
43 7 234 360 40 248 409 365 334 
44 7 343 133 622 433 514 167 78 
45 7 324 540 565 647 340 163 620 
46 7 351 258 530 165 371 101 218 
47 7 474 533 589 395 394 212 384 
48 7 247 283 494 475 191 83 63 
49 7 364 510 146 476 178 546 467 
50 7 316 72 226 119 642 56 135 
51 7 34 73 59 236 512 516 120 
52 7 288 61 297 373 190 337 277 
53 7 93 175 171 5 332 524 322 
54 7 197 177 81 332 338 296 366 
55 7 160 490 307 157 137 488 20 
56 7 117 500 661 226 278 50 316 
57 7 443 485 562 206 42 671 355 
58 7 29 334 147 249 23 189 10 
59 7 34 51 60 537 73 663 600 
60 6 280 59 155 537 34 341 
61 7 52 297 149 250 263 288 181 
62 7 164 337 190 277 288 329 373 
63 7 209 295 283 14 358 239 48 
64 7 249 115 375 23 303 347 58 
65 7 676 650 220 508 410 41 512 
66 6 675 6 411 604 652 182 
67 7 580 585 183 381 519 614 535 
68 7 347 661 257 23 147 278 117 
69 7 426 659 428 491 179 665 383 
70 7 173 318 420 506 601 486 431 
71 7 562 206 554 42 628 118 57 
72 7 316 50 271 135 119 235 642 
73 7 51 236 34 120 59 512 516 
74 7 416 644 656 328 436 650 41 
75 7 421 268 669 376 166 292 389 
76 7 595 465 583 128 637 635 121 
77 7 326 25 130 270 305 26 87 
78 7 167 622 433 374 514 343 44 
79 7 103 116 144 326 25 551 89 
80 7 655 225 670 642 235 662 119 
81 7 177 197 54 338 332 296 5 
82 6 572 573 354 442 441 357 
83 7 494 191 606 48 185 247 475 
84 7 290 229 152 298 200 323 377 
85 7 253 13 114 150 305 26 87 
86 7 555 608 317 260 486 487 618 
87 7 305 114 349 26 287 253 77 
88 7 282 14 553 527 456 257 385 
89 7 551 143 116 286 2 79 144 
90 7 22 265 217 277 330 62 211 
91 7 28 13 273 214 339 30 151 
92 7 111 395 526 477 391 498 422 
93 7 5 53 175 332 188 227 296 
94 7 7 360 24 315 168 254 272 
95 7 243 607 452 534 521 651 127 
96 7 346 368 254 456 189 147 88 
97 7 267 614 478 274 112 668 535 
98 7 145 559 445 471 312 408 157 
99 6 525 636 308 565 584 166 
100 7 626 187 126 577 430 571 549 
101 7 218 530 351 175 353 371 171 
102 7 647 261 158 540 276 269 514 
103 7 79 326 25 116 287 144 77 
104 6 241 591 447 522 450 16 
105 7 556 510 479 476 364 467 49 
106 7 621 221 131 449 658 492 630 
107 7 567 633 592 385 617 527 3 
108 7 414 193 548 208 441 487 515 
109 7 319 359 211 224 149 470 297 
110 7 363 454 163 340 543 620 132 
111 7 92 477 395 498 400 526 533 
112 7 274 267 660 97 478 419 614 
113 6 396 413 390 382 616 405 
114 7 253 87 294 305 246 349 85 
115 7 64 375 249 378 122 135 303 
116 7 144 79 551 89 286 103 304 
117 7 661 56 278 257 500 226 68 
118 7 597 554 628 42 473 281 562 
119 7 642 316 50 226 72 678 655 
120 7 236 73 51 34 508 512 516 
121 7 646 461 637 184 38 76 128 
122 7 375 139 303 115 240 64 249 
123 6 382 630 396 658 335 113 
124 7 230 427 404 570 605 463 531 
125 7 643 284 205 587 504 645 518 
126 7 577 100 549 138 418 626 187 
127 7 452 534 607 95 243 521 22 
128 7 635 583 76 595 637 465 461 
129 7 544 417 201 156 673 506 259 
130 7 270 19 26 305 77 87 272 
131 7 492 532 621 106 616 630 658 
132 7 355 163 276 647 540 110 363 
133 7 44 343 496 514 622 158 433 
134 7 152 298 673 21 306 639 552 
135 7 378 271 72 316 50 56 226 
136 7 31 331 204 322 524 171 366 
137 7 20 195 55 307 160 488 490 
138 6 549 36 577 153 126 505 
139 7 240 303 375 122 64 115 58 
140 5 300 578 640 238 252 
141 7 192 459 2 310 143 455 657 
142 7 415 35 262 571 430 667 646 
143 7 2 89 551 141 286 459 309 
144 7 116 79 304 286 103 551 89 
145 7 471 445 98 386 372 157 453 
146 7 510 556 674 520 49 364 105 
147 7 189 29 23 58 249 346 347 
148 7 503 4 321 619 32 482 611 
149 7 359 297 263 470 61 109 319 
150 7 9 227 253 85 18 246 188 
151 7 273 28 7 13 272 168 19 
152 7 298 84 219 290 134 229 306 
153 7 138 355 363 549 36 485 110 
154 7 408 629 490 250 307 160 157 
155 7 280 341 60 34 59 398 537 
156 7 401 417 342 544 631 201 423 
157 7 490 55 160 307 488 145 408 
158 7 261 269 102 514 647 540 433 
159 7 499 460 372 561 444 579 471 
160 7 307 490 55 157 137 629 488 
161 7 519 183 194 381 521 199 67 
162 7 392 480 12 569 412 507 289 
163 7 110 363 132 340 454 355 620 
164 7 62 329 337 190 345 330 288 
165 7 371 285 31 530 331 136 46 
166 7 669 584 75 268 99 421 525 
167 7 78 622 433 374 514 343 44 
168 7 315 7 37 151 28 94 365 
169 7 228 352 434 353 202 170 246 
170 7 563 434 581 313 222 228 541 
171 7 331 322 524 53 204 366 530 
172 7 402 638 568 455 350 252 657 
173 7 420 70 318 431 601 486 618 
174 7 210 438 302 634 232 484 664 
175 7 93 53 188 353 101 218 5 
176 7 550 466 198 528 15 194 437 
177 7 197 81 54 332 338 296 5 
178 6 546 379 598 364 467 49 
179 7 383 362 513 237 523 665 426 
180 6 489 576 546 598 178 393 
181 7 263 203 250 149 61 470 297 
182 7 411 652 304 66 604 196 675 
183 7 519 381 67 580 585 437 161 
184 7 461 121 637 646 448 38 128 
185 7 606 494 83 48 424 191 295 
186 4 542 612 17 344 
187 7 571 430 35 626 100 262 415 
188 7 175 353 93 227 5 9 246 
189 7 147 29 346 96 23 334 368 
190 7 337 288 62 277 164 373 52 
191 7 83 494 606 48 247 475 185 
192 7 310 141 657 455 459 517 468 
193 7 108 414 208 548 515 487 441 
194 7 199 521 176 161 651 607 623 
195 7 20 137 619 32 488 264 55 
196 7 314 557 202 348 411 604 182 
197 7 177 54 81 332 338 296 5 
198 7 550 15 176 528 466 215 440 
199 7 521 194 651 607 623 161 95 
200 7 377 229 203 84 290 306 575 
201 7 629 129 156 417 307 544 342 
202 6 557 348 196 314 352 604 
203 7 377 181 200 306 263 250 370 
204 7 366 322 524 136 331 171 53 
205 7 284 125 518 643 504 615 208 
206 7 71 562 57 374 443 42 554 
207 7 233 30 18 338 296 339 227 
208 7 515 193 108 596 414 487 284 
209 7 63 358 283 295 14 475 48 
210 7 438 174 634 302 664 472 232 
211 7 217 109 319 359 224 277 243 
212 7 422 533 395 474 517 47 394 
213 7 361 463 653 605 344 404 509 
214 7 339 91 233 30 28 207 18 
215 7 266 440 439 623 15 602 198 
216 7 446 367 255 369 649 219 667 
217 7 211 243 22 90 277 109 319 
218 7 101 530 351 353 175 228 371 
219 7 298 255 152 325 367 216 11 
220 7 676 65 650 222 581 644 656 
221 7 106 564 621 131 532 492 523 
222 7 581 170 220 563 676 434 228 
223 7 457 617 300 385 107 633 239 
224 7 319 109 359 470 211 623 651 
225 7 662 627 670 407 655 80 547 
226 7 500 50 316 56 119 642 678 
227 7 5 9 296 18 150 93 338 
228 7 434 169 352 170 563 353 313 
229 7 290 84 323 200 244 152 377 
230 7 124 427 570 404 463 531 529 
231 7 11 244 323 333 325 290 229 
232 7 302 484 174 362 438 383 179 
233 7 207 30 18 339 214 338 296 
234 7 43 360 334 40 248 409 10 
235 7 72 80 271 119 642 316 50 
236 7 120 73 508 51 512 516 34 
237 7 665 513 523 179 383 491 106 
238 6 578 399 140 311 640 481 
239 7 295 553 63 282 223 14 617 
240 7 139 303 375 122 10 64 58 
241 7 104 591 447 522 16 560 312 
242 7 299 609 336 397 251 610 356 
243 7 95 651 607 217 521 211 452 
244 7 323 290 229 11 84 231 298 
245 7 327 309 286 482 321 4 144 
246 7 294 253 114 348 188 150 169 
247 7 475 283 48 191 209 358 63 
248 7 365 409 40 43 360 37 234 
249 7 23 64 347 58 147 29 115 
250 7 61 181 263 154 408 559 52 
251 7 299 609 397 242 336 333 610 
252 7 350 672 402 140 238 578 172 
253 7 114 294 85 246 150 87 9 
254 7 368 96 346 189 456 334 147 
255 7 216 325 219 367 446 649 298 
256 7 483 543 403 454 645 620 110 
257 7 278 661 117 68 56 88 527 
258 7 46 351 285 165 508 371 65 
259 7 506 70 544 318 417 129 173 
260 7 486 608 618 86 420 173 70 
261 7 158 269 102 514 647 540 45 
262 7 415 35 571 142 430 187 465 
263 7 181 149 61 250 297 470 359 
264 7 619 301 342 195 611 137 594 
265 7 330 90 345 329 164 62 398 
266 7 440 215 602 439 623 15 575 
267 7 97 274 112 478 614 660 668 
268 7 421 75 389 376 669 166 292 
269 7 158 261 102 540 647 45 292 
270 7 130 19 26 77 272 305 24 
271 7 135 72 235 316 378 50 119 
272 7 24 270 19 151 130 94 475 
273 7 151 13 28 91 19 85 7 
274 7 112 267 97 478 660 614 419 
275 7 586 38 502 184 448 632 461 
276 7 647 102 132 355 540 374 57 
277 7 337 190 62 288 211 217 297 
278 7 257 117 661 56 500 293 388 
279 7 536 545 435 493 497 613 313 
280 7 155 60 341 34 59 51 537 
281 7 473 380 635 128 597 666 425 
282 7 527 553 385 88 633 617 239 
283 7 475 209 247 358 48 63 295 
284 7 205 125 643 208 587 515 596 
285 7 165 31 371 258 46 136 530 
286 7 309 245 551 89 116 144 143 
287 7 349 314 348 87 103 557 196 
288 7 190 337 52 373 62 277 297 
289 7 412 625 569 564 27 501 162 
290 7 229 84 323 244 152 298 200 
291 5 511 498 429 601 431 
292 7 376 421 75 496 268 269 669 
293 7 388 558 432 479 592 567 107 
294 7 246 114 253 87 348 349 287 
295 7 63 239 209 553 14 283 48 
296 7 338 5 227 18 332 177 81 
297 7 61 52 149 359 288 109 277 
298 7 152 219 84 290 134 229 244 
299 7 242 609 251 397 336 610 356 
300 6 140 464 640 457 223 578 
301 7 342 264 619 401 137 156 631 
302 7 174 438 210 634 232 484 472 
303 7 375 139 240 64 122 115 249 
304 7 652 144 182 321 411 116 4 
305 7 26 87 130 114 19 77 85 
306 7 377 203 673 200 370 84 152 
307 7 160 490 55 137 629 157 20 
308 6 636 525 99 390 405 565 
309 7 286 245 327 143 482 551 89 
310 7 192 657 455 459 141 517 568 
311 7 8 648 481 582 677 399 238 
312 7 16 560 373 98 453 241 104 
313 5 541 435 563 170 434 
314 7 196 348 557 287 202 349 411 
315 7 168 7 37 365 409 94 248 
316 7 50 72 119 226 642 135 56 
317 7 86 555 608 260 487 486 626 
318 7 70 173 601 420 423 431 506 
319 7 109 224 359 211 470 149 217 
320 5 387 480 641 162 569 
321 7 4 304 245 652 327 148 482 
322 7 524 366 204 331 171 136 53 
323 7 244 290 229 84 11 298 231 
324 7 45 565 540 340 620 163 647 
325 7 255 11 219 216 649 367 298 
326 7 25 103 77 79 287 116 349 
327 6 482 245 309 321 4 458 
328 7 436 41 410 644 74 650 656 
329 7 345 330 164 62 265 591 398 
330 6 345 329 265 398 164 62 
331 7 171 322 136 524 204 31 371 
332 7 197 177 54 81 338 5 296 
333 7 397 251 336 299 242 609 15 
334 7 29 58 189 234 10 147 43 
335 5 406 588 584 33 123 
336 7 397 242 299 609 251 528 610 
337 7 190 62 288 164 277 373 52 
338 7 296 81 177 197 332 5 18 
339 7 214 91 233 30 207 28 18 
340 7 620 565 454 110 163 324 45 
341 6 155 280 60 398 330 345 
342 7 301 401 156 264 631 619 137 
343 7 44 133 622 514 433 167 78 
344 7 17 509 213 186 615 361 542 
345 6 330 329 398 265 164 591 
346 7 96 368 189 254 456 147 68 
347 7 23 68 249 378 147 661 117 
348 7 557 314 202 196 287 349 294 
349 7 287 87 314 348 114 305 294 
350 7 252 672 402 424 172 568 238 
351 7 46 218 101 530 258 371 222 
352 6 434 228 169 170 202 541 
353 7 188 169 175 218 228 101 246 
354 4 573 441 548 82 
355 7 132 153 163 363 110 276 57 
356 6 610 599 603 242 609 419 
357 4 384 572 573 82 
358 7 209 283 63 456 475 14 247 
359 7 109 319 149 297 224 470 211 
360 7 43 409 234 365 248 94 40 
361 6 653 463 213 404 427 590 
362 7 383 513 179 523 237 641 232 
363 7 110 454 163 543 340 355 132 
364 7 49 476 467 510 178 546 105 
365 7 409 248 40 360 37 43 315 
366 7 524 204 322 171 331 54 53 
367 7 446 216 369 255 552 21 219 
368 7 254 96 346 456 189 147 358 
369 7 446 552 367 21 216 667 142 
370 7 629 673 201 154 129 306 203 
371 7 165 530 31 331 171 101 285 
372 7 386 159 471 499 445 488 145 
373 7 288 52 190 312 337 559 98 
374 7 433 622 514 167 78 276 206 
375 7 303 64 115 139 122 249 240 
376 7 268 421 292 75 389 669 166 
377 7 306 203 200 84 229 181 290 
378 7 135 347 72 271 316 50 56 
379 4 598 546 178 180 
380 7 666 566 281 473 448 597 128 
381 7 437 183 67 519 535 585 580 
382 7 630 658 123 492 396 449 621 
383 7 179 362 513 523 237 665 232 
384 3 357 47 474 
385 7 633 617 527 107 567 592 282 
386 7 372 488 471 145 445 159 157 
387 6 320 641 480 569 162 362 
388 7 293 558 432 592 567 107 3 
389 7 268 376 659 669 421 33 75 
390 6 113 405 396 413 123 382 
391 5 526 458 429 92 111 
392 7 162 12 507 480 469 412 462 
393 5 462 469 576 12 489 
394 7 468 517 474 47 533 212 589 
395 7 533 111 589 47 422 474 92 
396 7 113 382 413 616 390 492 123 
397 7 336 299 251 242 609 333 15 
398 6 345 330 329 341 265 591 
399 4 578 238 481 640 
400 3 477 498 111 
401 7 156 631 417 342 423 301 544 
402 7 350 252 172 672 568 238 424 
403 7 483 587 256 645 643 125 596 
404 7 463 427 653 230 605 124 361 
405 4 390 413 113 396 
406 5 588 335 33 123 584 
407 4 627 662 225 670 
408 7 559 154 157 98 490 250 160 
409 7 365 248 40 360 43 37 315 
410 7 41 328 650 516 512 436 65 
411 7 182 652 604 66 196 304 675 
412 7 27 289 162 392 501 507 569 
413 4 113 396 390 405 
414 6 108 193 548 208 441 487 
415 7 262 142 35 571 430 187 465 
416 7 74 656 644 328 436 493 650 
417 7 544 156 401 423 129 506 631 
418 7 596 126 487 515 587 403 208 
419 7 660 112 267 603 97 274 599 
420 7 173 618 431 601 70 318 486 
421 7 75 268 376 669 292 166 389 
422 7 212 395 533 92 474 111 47 
423 7 318 417 631 401 601 70 544 
424 7 568 350 672 459 402 252 172 
425 6 671 505 485 635 583 281 
426 7 69 179 232 383 428 491 362 
427 7 404 463 653 230 529 124 570 
428 6 491 665 237 588 179 406 
429 4 526 458 391 92 
430 7 571 35 187 415 262 142 626 
431 5 601 420 173 318 618 
432 7 558 388 3 592 293 567 107 
433 7 622 374 514 167 78 343 44 
434 7 228 170 352 563 169 313 541 
435 5 313 541 279 563 536 
436 7 328 74 41 410 644 416 656 
437 7 381 535 668 183 67 585 580 
438 7 210 174 634 302 664 232 472 
439 7 623 215 266 602 440 651 224 
440 7 266 215 602 439 15 623 198 
441 6 354 548 573 108 193 414 
442 5 539 451 572 82 605 
443 7 57 485 671 42 562 628 425 
444 5 561 460 499 579 159 
445 7 471 145 453 159 372 386 499 
446 7 367 216 369 552 21 255 667 
447 5 522 104 450 241 591 
448 7 586 566 184 666 275 461 380 
449 6 658 621 630 106 382 492 
450 3 447 522 104 
451 6 539 605 442 213 124 509 
452 7 534 127 607 95 521 243 199 
453 6 579 445 560 16 471 159 
454 7 110 543 363 340 620 163 256 
455 7 657 310 568 172 638 192 459 
456 7 14 358 96 88 209 346 368 
457 7 223 672 300 140 252 617 239 
458 4 391 526 429 92 
459 7 2 141 310 568 192 455 424 
460 5 561 444 499 159 579 
461 7 184 637 121 646 128 38 76 
462 6 469 393 12 507 392 576 
463 7 404 653 427 361 230 605 124 
464 5 3 300 640 432 140 
465 6 595 76 583 128 635 637 
466 7 176 528 550 198 437 15 610 
467 7 476 364 178 105 49 546 479 
468 7 394 517 657 474 47 533 212 
469 6 462 12 393 507 392 162 
470 7 149 224 359 319 575 109 263 
471 7 445 145 372 386 159 453 499 
472 3 664 634 210 
473 7 597 281 118 628 380 42 554 
474 7 47 533 589 394 395 212 468 
475 7 247 283 48 358 209 63 191 
476 7 467 364 105 49 178 479 510 
477 5 400 498 111 92 589 
478 7 614 97 267 580 274 585 67 
479 7 105 558 293 476 388 432 467 
480 7 162 320 392 387 12 469 569 
481 5 582 311 8 648 399 
482 4 327 245 458 503 
483 7 256 403 543 645 587 454 643 
484 6 302 232 174 362 320 387 
485 6 671 443 425 505 57 36 
486 7 260 608 420 618 173 70 86 
487 7 515 193 208 108 414 555 596 
488 7 20 386 55 195 137 372 32 
489 4 180 576 393 546 
490 7 160 55 157 307 137 488 629 
491 6 428 665 237 588 179 406 
492 7 131 532 630 616 621 382 658 
493 4 497 545 536 279 
494 7 83 606 191 48 185 247 283 
495 7 678 556 510 146 105 538 642 
496 7 292 376 269 133 421 158 75 
497 4 493 545 536 279 
498 3 477 400 111 
499 6 159 460 561 444 579 372 
500 7 226 56 117 479 678 50 278 
501 4 654 27 289 412 
502 7 632 574 275 586 38 667 448 
503 7 148 4 619 611 482 321 264 
504 7 518 17 615 509 205 612 643 
505 6 425 671 36 583 465 485 
506 7 259 70 544 318 423 417 173 
507 6 12 392 469 27 462 162 
508 7 512 516 65 236 410 650 41 
509 7 615 17 344 213 518 539 504 
510 7 146 556 49 105 364 520 674 
511 4 291 498 431 601 
512 7 516 508 410 41 51 236 65 
513 7 523 383 237 362 179 665 221 
514 7 433 622 374 158 261 102 167 
515 7 208 596 193 487 587 108 284 
516 7 512 410 41 508 650 51 65 
517 7 468 394 212 474 657 533 192 
518 7 615 504 17 509 205 539 344 
519 7 183 67 381 580 161 585 437 
520 4 674 146 538 510 
521 7 199 194 607 651 95 534 161 
522 5 447 104 450 591 241 
523 7 513 237 362 383 221 665 106 
524 7 322 366 204 171 331 53 136 
525 6 636 99 308 584 390 166 
526 5 391 429 458 92 111 
527 7 385 633 282 107 617 592 567 
528 7 466 550 198 176 15 610 336 
529 5 570 427 531 230 404 
530 7 371 101 218 351 165 171 331 
531 3 570 230 529 
532 7 131 492 616 564 625 654 106 
533 7 474 47 395 589 212 422 394 
534 7 452 607 127 95 521 161 199 
535 7 668 585 614 437 381 580 67 
536 6 279 545 613 497 493 435 
537 5 663 600 59 60 436 
538 4 674 547 520 146 
539 6 451 442 509 605 615 213 
540 7 45 647 324 102 132 163 269 
541 5 313 435 563 170 352 
542 3 186 612 501 
543 7 454 256 483 110 363 620 340 
544 7 417 129 156 506 259 423 401 
545 5 536 613 497 279 493 
546 6 178 379 598 180 364 49 
547 5 670 538 655 627 225 
548 5 414 108 441 193 354 
549 7 138 577 36 126 153 100 505 
550 7 198 176 466 528 15 215 437 
551 7 89 143 116 286 2 79 144 
552 7 21 369 446 367 430 667 639 
553 7 282 239 295 14 527 385 617 
554 7 118 42 628 597 562 473 71 
555 7 86 608 317 487 260 414 486 
556 7 510 105 146 495 678 49 364 
557 7 348 202 314 196 287 604 352 
558 7 293 388 432 479 592 3 567 
559 7 408 98 373 145 157 154 250 
560 6 16 453 579 312 447 241 
561 5 460 444 499 159 579 
562 7 42 71 554 628 443 206 118 
563 7 170 313 581 541 434 435 222 
564 7 625 532 221 289 131 106 569 
565 7 620 324 340 99 45 308 636 
566 7 666 380 448 184 281 473 586 
567 7 107 592 633 385 617 3 432 
568 7 172 455 424 402 459 350 310 
569 7 289 641 162 564 625 387 412 
570 5 531 230 529 124 427 
571 7 35 430 187 415 262 142 626 
572 4 82 357 442 573 
573 5 354 441 82 384 357 
574 7 632 502 275 586 38 448 649 
575 7 602 470 266 440 439 224 623 
576 4 393 180 489 462 
577 7 549 126 138 100 36 187 626 
578 5 238 399 140 640 311 
579 6 453 444 499 159 560 561 
580 7 585 67 614 478 535 381 668 
581 7 222 170 563 434 313 279 435 
582 6 481 648 8 311 124 677 
583 6 595 76 465 128 635 637 
584 7 335 525 123 406 588 33 166 
585 7 580 67 614 535 381 478 668 
586 7 448 275 184 38 461 566 502 
587 7 596 403 125 515 643 284 208 
588 5 406 335 33 491 428 
589 6 47 474 533 395 477 111 
590 5 361 507 27 653 213 
591 7 104 241 522 447 329 450 16 
592 7 567 107 388 633 432 385 527 
593 7 639 259 506 21 134 317 552 
594 5 611 631 429 458 291 
595 6 76 465 583 128 635 637 
596 7 515 587 208 487 284 418 193 
597 7 118 473 628 554 42 281 380 
598 5 379 546 178 180 576 
599 6 603 356 610 668 535 97 
600 4 663 537 436 59 
601 6 431 318 420 173 70 511 
602 7 266 575 440 439 215 623 470 
603 6 599 356 668 535 610 97 
604 5 411 66 182 196 202 
605 7 404 451 463 124 213 427 230 
606 7 494 83 185 191 48 2 424 
607 7 534 95 521 452 199 243 127 
608 7 260 86 486 555 618 420 317 
609 7 299 242 251 336 397 356 610 
610 6 356 599 603 528 242 336 
611 4 594 264 619 503 
612 2 186 542 
613 3 545 536 279 
614 7 478 97 585 580 267 535 668 
615 7 509 518 17 504 344 539 213 
616 5 654 532 492 131 396 
617 7 385 633 107 567 527 223 592 
618 6 420 486 173 260 431 608 
619 7 264 301 195 137 342 611 20 
620 7 340 565 454 110 543 324 163 
621 7 449 106 658 630 131 492 221 
622 7 433 167 78 514 374 343 44 
623 7 439 651 215 266 602 199 440 
624 5 460 561 159 372 499 
625 7 564 289 532 569 654 131 221 
626 7 100 187 430 571 35 126 577 
627 5 407 662 225 670 547 
628 7 42 118 554 597 473 562 281 
629 7 201 307 160 154 490 55 370 
630 7 658 449 621 382 492 131 106 
631 7 401 423 156 342 594 417 301 
632 7 502 574 275 586 38 448 667 
633 7 385 107 567 617 527 592 282 
634 6 210 438 174 302 664 472 
635 7 128 583 595 76 465 281 637 
636 6 308 525 99 584 390 405 
637 7 461 121 184 646 128 76 595 
638 7 172 455 657 677 8 311 568 
639 7 593 21 552 626 134 259 430 
640 3 399 578 140 
641 7 387 569 320 523 162 362 513 
642 7 119 655 316 50 80 226 678 
643 6 125 205 284 645 587 504 
644 7 656 74 416 328 650 436 41 
645 4 643 403 125 256 
646 7 121 461 637 38 184 76 128 
647 7 102 540 276 132 45 261 158 
648 5 8 677 311 582 481 
649 7 216 255 502 574 632 446 367 
650 7 41 410 65 328 676 644 516 
651 7 623 199 243 521 439 95 194 
652 7 182 304 411 66 321 6 675 
653 7 463 404 427 361 213 230 529 
654 4 616 532 501 131 
655 7 670 80 547 225 642 627 662 
656 7 644 416 74 328 650 436 493 
657 7 455 310 192 468 517 638 394 
658 6 449 630 621 382 106 492 
659 6 69 428 33 491 389 588 
660 7 419 112 267 274 97 603 478 
661 7 117 278 56 257 68 500 347 
662 7 225 627 407 670 547 655 80 
663 4 600 537 436 59 
664 4 472 634 210 438 
665 6 237 491 428 513 523 179 
666 7 566 380 448 281 184 473 461 
667 7 142 38 369 502 275 646 632 
668 7 535 614 437 585 381 580 97 
669 7 166 75 268 421 584 389 99 
670 6 547 655 225 627 662 80 
671 6 425 485 505 443 635 281 
672 7 252 350 402 457 424 140 300 
673 7 129 370 306 544 259 134 201 
674 4 520 146 538 510 
675 5 66 6 604 652 411 
676 7 220 65 650 644 656 41 410 
677 5 648 8 311 582 481 
678 7 495 556 105 226 510 642 500 
DEPOT_SECTION
   1
   -1
EOF
