NAME :  X-n783-kX-w78-c11.cctp
COMMENT : 	Adapted by Maziero, Usberti and Cavellucci from the Uchoa, Pecin, Pessoa, Poggi, Subramanian, and Vidal (2013)
TYPE :  CCTP
DIMENSION :    550
EDGE_WEIGHT_TYPE : 	EUC_2D	
CAPACITY : 	832
VERTICES_WITHIN_COVERAGE :  11
VERTICES_WITH_DEMAND : 	78
NODE_COORD_SECTION
1 909 919
2 878 721
3 969 85
4 591 195
5 955 148
6 587 903
7 994 792
8 625 129
9 544 703
10 461 167
11 37 644
12 615 22
13 773 788
14 384 364
15 51 291
16 109 732
17 570 124
18 692 985
19 62 150
20 358 5
21 188 450
22 674 658
23 676 904
24 815 984
25 710 16
26 74 658
27 576 1000
28 636 695
29 547 92
30 587 397
31 26 150
32 182 561
33 938 462
34 362 928
35 366 835
36 516 892
37 448 923
38 501 445
39 513 799
40 905 388
41 474 791
42 560 782
43 465 552
44 315 645
45 738 396
46 45 915
47 797 871
48 922 643
49 793 586
50 921 458
51 160 295
52 598 257
53 516 221
54 99 169
55 788 634
56 425 751
57 616 680
58 949 444
59 987 459
60 182 279
61 127 354
62 791 822
63 645 609
64 857 386
65 917 154
66 398 480
67 729 688
68 134 510
69 172 2
70 499 737
71 780 565
72 908 477
73 917 341
74 272 553
75 421 876
76 770 2
77 497 623
78 853 27
79 853 521
80 519 196
81 827 901
82 656 56
83 732 55
84 772 748
85 884 973
86 158 430
87 563 13
88 50 959
89 609 223
90 628 860
91 441 479
92 95 246
93 307 893
94 830 30
95 44 339
96 885 644
97 850 732
98 55 954
99 467 494
100 659 564
101 881 18
102 781 654
103 490 806
104 823 569
105 878 496
106 441 898
107 17 749
108 164 778
109 258 488
110 437 866
111 725 988
112 352 701
113 447 517
114 316 80
115 743 575
116 555 373
117 84 140
118 341 827
119 397 932
120 892 37
121 74 227
122 911 617
123 668 697
124 1 96
125 223 299
126 637 118
127 622 958
128 347 777
129 157 190
130 100 192
131 23 228
132 110 163
133 345 464
134 53 628
135 316 705
136 112 361
137 642 405
138 235 578
139 489 621
140 563 916
141 597 310
142 960 837
143 648 247
144 375 402
145 531 205
146 935 676
147 103 549
148 964 651
149 233 241
150 891 112
151 378 472
152 457 893
153 852 861
154 113 701
155 340 913
156 662 198
157 667 718
158 140 332
159 809 908
160 59 136
161 529 215
162 385 380
163 138 787
164 473 713
165 537 114
166 774 825
167 16 935
168 60 733
169 500 37
170 343 363
171 205 398
172 840 359
173 865 775
174 893 516
175 814 607
176 605 162
177 16 739
178 482 214
179 70 526
180 528 103
181 572 770
182 802 517
183 876 469
184 952 781
185 823 795
186 522 595
187 52 336
188 410 194
189 956 21
190 766 880
191 524 825
192 657 640
193 189 232
194 784 692
195 743 446
196 201 32
197 380 904
198 227 263
199 69 94
200 341 341
201 450 482
202 251 533
203 352 591
204 724 967
205 753 539
206 684 924
207 617 989
208 455 500
209 472 926
210 167 357
211 789 678
212 897 272
213 991 492
214 457 837
215 809 754
216 770 852
217 153 799
218 643 455
219 147 318
220 85 634
221 99 998
222 312 527
223 846 684
224 806 813
225 566 172
226 191 307
227 906 762
228 579 597
229 907 73
230 718 33
231 114 156
232 986 791
233 78 292
234 559 896
235 791 579
236 856 201
237 155 8
238 48 593
239 954 72
240 2 686
241 301 649
242 467 112
243 810 8
244 984 28
245 918 370
246 89 382
247 586 337
248 151 693
249 550 217
250 606 719
251 178 588
252 434 358
253 136 341
254 544 174
255 504 41
256 282 685
257 460 557
258 86 722
259 694 749
260 707 652
261 735 359
262 102 861
263 358 730
264 462 414
265 49 853
266 750 829
267 224 328
268 581 819
269 49 715
270 917 652
271 530 838
272 403 43
273 393 11
274 646 369
275 37 206
276 122 294
277 451 649
278 993 339
279 604 580
280 274 509
281 728 595
282 952 690
283 989 745
284 966 296
285 104 963
286 478 854
287 394 459
288 39 967
289 537 957
290 740 958
291 544 247
292 38 939
293 839 23
294 754 893
295 930 149
296 430 951
297 739 15
298 104 669
299 645 128
300 500 603
301 577 997
302 146 161
303 662 708
304 622 159
305 264 483
306 166 281
307 897 132
308 710 807
309 965 334
310 127 729
311 522 569
312 127 378
313 97 971
314 747 419
315 838 961
316 391 886
317 484 126
318 828 28
319 954 279
320 930 285
321 750 567
322 921 125
323 440 878
324 720 914
325 606 394
326 869 892
327 471 928
328 511 594
329 867 996
330 417 918
331 554 923
332 101 132
333 110 652
334 533 564
335 891 336
336 661 893
337 15 879
338 527 56
339 481 860
340 709 388
341 105 381
342 603 51
343 582 48
344 415 206
345 591 850
346 354 660
347 530 386
348 859 502
349 826 779
350 86 854
351 923 289
352 771 629
353 983 321
354 550 820
355 80 276
356 676 601
357 129 319
358 340 524
359 490 220
360 553 110
361 935 660
362 830 469
363 539 52
364 278 487
365 637 548
366 674 905
367 823 923
368 999 837
369 82 851
370 969 38
371 693 895
372 710 695
373 390 537
374 837 407
375 618 221
376 951 543
377 752 859
378 487 708
379 434 776
380 153 438
381 564 929
382 541 777
383 202 468
384 432 949
385 413 752
386 719 52
387 543 161
388 963 277
389 112 459
390 301 817
391 148 130
392 70 782
393 488 540
394 814 887
395 679 989
396 159 535
397 180 610
398 155 207
399 424 341
400 829 839
401 828 485
402 579 290
403 621 918
404 609 789
405 184 475
406 182 513
407 601 785
408 482 409
409 587 627
410 653 648
411 552 862
412 804 553
413 12 198
414 887 275
415 749 551
416 651 13
417 373 643
418 731 963
419 219 275
420 714 734
421 617 325
422 560 470
423 837 631
424 4 304
425 79 917
426 355 877
427 745 354
428 621 723
429 145 377
430 119 768
431 638 271
432 574 247
433 924 493
434 924 402
435 91 336
436 599 6
437 635 887
438 660 944
439 186 35
440 679 861
441 919 121
442 822 482
443 151 384
444 407 860
445 928 75
446 625 969
447 123 311
448 404 744
449 216 14
450 906 567
451 15 55
452 719 567
453 564 906
454 344 833
455 726 657
456 39 94
457 18 167
458 396 368
459 416 570
460 792 716
461 649 420
462 561 229
463 144 320
464 971 672
465 44 186
466 924 415
467 782 427
468 715 867
469 306 493
470 853 704
471 468 127
472 464 700
473 610 428
474 257 608
475 980 789
476 740 837
477 762 527
478 50 710
479 978 624
480 775 736
481 551 199
482 416 970
483 630 871
484 926 116
485 959 178
486 244 56
487 28 579
488 342 15
489 533 943
490 556 836
491 421 584
492 777 841
493 340 957
494 138 690
495 895 564
496 788 509
497 892 692
498 881 293
499 1 227
500 935 348
501 527 995
502 487 506
503 405 978
504 557 620
505 966 509
506 571 996
507 214 405
508 734 399
509 69 747
510 589 624
511 936 678
512 84 652
513 600 19
514 548 288
515 33 90
516 717 960
517 360 458
518 204 29
519 799 441
520 602 46
521 707 678
522 884 598
523 401 345
524 453 130
525 587 936
526 169 316
527 428 772
528 461 415
529 61 305
530 435 146
531 653 395
532 637 547
533 620 2
534 973 397
535 561 40
536 147 381
537 452 610
538 963 618
539 948 761
540 850 189
541 785 845
542 900 613
543 668 101
544 445 170
545 660 387
546 57 176
547 373 307
548 365 297
549 765 916
550 387 877
DEMAND_SECTION
2 85
3 34
4 47
5 49
6 75
7 87
8 13
9 92
10 85
11 3
12 18
13 87
14 96
15 72
16 38
17 5
18 59
19 75
20 81
21 68
22 99
23 66
24 67
25 33
26 30
27 73
28 61
29 18
30 37
31 81
32 36
33 17
34 31
35 25
36 85
37 12
38 44
39 60
40 5
41 23
42 58
43 29
44 9
45 13
46 1
47 100
48 88
49 53
50 30
51 66
52 47
53 35
54 55
55 83
56 20
57 84
58 36
59 50
60 76
61 70
62 80
63 79
64 44
65 26
66 60
67 80
68 40
69 60
70 46
71 62
72 50
73 32
74 18
75 3
76 16
77 30
78 4
79 68
COVERAGE_SECTION
2 7 97 470 497 223 227 173 511 
3 11 239 445 370 484 244 322 441 229 5 189 295 
4 11 89 225 176 375 481 462 249 304 254 432 387 
5 11 295 485 65 322 484 441 307 3 150 239 445 
6 11 453 140 234 525 381 403 331 437 345 411 483 
7 7 232 475 184 368 283 539 142 
8 10 126 299 304 176 543 17 225 4 360 156 
9 11 70 378 250 164 181 382 57 428 472 42 504 
10 11 544 530 524 471 317 178 242 188 344 359 80 
11 11 134 26 512 220 238 240 487 478 269 298 333 
12 10 513 533 436 520 342 416 343 82 87 535 
13 11 166 62 84 224 266 185 215 480 492 349 541 
14 10 458 162 523 144 170 399 200 252 547 548 
15 11 529 233 355 187 95 424 435 92 121 131 276 
16 11 310 258 154 430 509 168 494 248 163 269 298 
17 11 360 165 29 387 180 225 176 8 254 304 126 
18 11 395 111 516 204 418 438 290 206 446 127 207 
19 11 160 117 546 31 465 54 332 457 132 231 199 
20 4 488 273 272 114 
21 7 383 405 86 380 507 171 406 
22 11 410 192 260 123 521 303 372 455 28 63 356 
23 11 366 336 371 206 438 440 437 324 468 403 483 
24 9 315 329 367 85 159 290 81 549 418 
25 7 230 297 386 83 416 76 82 
26 9 512 220 298 333 134 11 478 154 269 
27 11 301 506 207 501 289 446 127 525 489 381 331 
28 11 57 303 123 428 250 157 410 22 192 521 372 
29 9 360 180 165 17 338 363 535 343 255 
30 9 325 473 116 137 347 247 274 461 531 
31 11 457 19 160 465 546 413 275 456 117 124 515 
32 6 251 396 406 397 138 68 
33 11 50 58 72 433 59 466 505 213 183 434 105 
34 11 155 197 119 493 316 426 330 550 93 503 482 
35 10 454 118 426 550 444 316 128 390 75 197 
36 11 234 339 411 331 453 140 286 489 209 271 327 
37 11 209 327 106 152 330 384 296 323 119 75 482 
38 10 408 264 528 99 201 502 422 347 91 208 
39 11 103 191 382 41 271 354 42 490 70 286 181 
40 11 245 434 466 64 73 500 335 534 58 172 374 
41 11 103 39 379 214 527 70 191 56 286 382 339 
42 11 181 382 354 407 268 404 39 490 191 271 103 
43 11 257 393 113 502 459 208 491 99 311 537 300 
44 8 241 346 256 417 135 203 112 474 
45 10 508 314 340 261 427 195 467 519 545 531 
46 11 292 425 167 98 88 337 288 265 350 369 285 
47 11 394 541 190 216 492 159 81 400 377 294 62 
48 11 270 361 122 146 96 542 511 148 538 282 464 
49 11 235 71 175 104 412 321 55 352 115 415 205 
50 11 33 72 58 433 466 183 434 105 174 59 505 
51 11 306 526 219 60 463 226 276 357 447 158 253 
52 11 432 89 402 375 431 462 143 141 291 514 4 
53 11 161 145 80 359 249 178 291 481 462 254 432 
54 10 132 231 130 117 332 19 546 302 160 465 
55 11 352 102 175 211 49 423 235 194 455 71 281 
56 9 385 527 448 379 164 41 472 263 70 
57 11 28 250 428 410 303 123 192 409 22 510 157 
58 11 33 50 466 59 434 72 534 433 213 505 40 
59 11 213 58 33 505 534 50 433 466 72 434 376 
60 11 306 51 226 419 526 125 193 198 219 463 276 
61 11 253 136 312 158 429 536 341 357 443 463 210 
62 11 166 224 492 541 216 13 185 266 400 47 476 
63 11 356 192 410 100 279 22 510 409 365 532 228 
64 11 374 172 40 335 245 434 466 73 519 183 467 
65 11 295 322 307 441 5 484 485 150 540 236 445 
66 11 287 151 91 517 201 133 373 208 113 99 358 
67 11 372 521 455 260 420 194 211 102 123 22 480 
68 8 396 406 147 389 405 179 32 380 
69 6 237 439 196 518 449 486 
70 11 378 164 472 9 382 41 39 103 56 42 379 
71 11 235 49 412 321 415 205 115 477 104 182 175 
72 11 50 433 183 33 105 174 58 348 466 505 79 
73 11 500 335 245 40 309 351 320 498 434 284 353 
74 10 202 280 138 222 474 109 364 469 305 358 
75 11 110 323 444 106 316 550 152 330 197 214 37 
76 9 297 243 230 25 318 83 94 386 293 
77 10 139 300 328 186 537 277 311 504 334 257 
78 9 293 94 318 101 120 243 229 76 445 
79 11 348 105 174 401 442 182 104 183 362 412 495 
80 11 145 161 53 481 254 249 359 178 387 225 462 
81 10 159 394 367 47 326 153 315 400 549 190 
82 9 416 543 12 342 520 386 126 533 230 
83 4 386 230 297 25 
84 11 480 215 460 13 194 420 349 185 211 224 67 
85 3 329 315 24 
86 8 380 21 443 536 405 389 429 171 
87 10 535 436 513 343 363 520 12 342 338 533 
88 10 98 288 292 167 46 313 425 285 221 337 
89 11 375 4 52 432 143 462 431 156 249 176 481 
90 10 483 437 345 336 440 403 6 268 366 23 
91 11 201 208 99 113 66 287 502 151 528 264 38 
92 11 121 355 233 130 276 15 529 275 447 398 131 
93 6 155 426 34 454 493 118 
94 7 318 293 78 243 101 120 76 
95 8 187 529 435 15 424 233 246 136 
96 11 270 542 48 122 522 497 423 361 223 146 511 
97 11 470 2 173 215 223 349 497 460 227 185 480 
98 10 88 288 292 46 167 425 313 285 221 337 
99 11 208 201 502 91 113 393 43 38 257 66 528 
100 9 365 532 356 63 279 452 192 281 410 
101 11 120 78 293 94 318 229 243 445 189 370 239 
102 11 55 211 352 194 455 175 423 67 460 49 223 
103 11 41 39 191 214 286 271 339 382 354 379 70 
104 11 412 49 235 175 71 182 79 423 522 496 495 
105 11 348 174 183 79 72 433 401 362 50 442 33 
106 11 152 323 37 75 330 110 209 327 316 444 384 
107 10 177 168 269 478 509 392 240 258 16 430 
108 5 217 163 430 310 16 
109 8 305 364 280 202 469 383 74 222 
110 11 323 75 444 106 152 214 286 339 316 550 330 
111 11 204 418 516 18 290 395 324 206 438 549 24 
112 5 263 135 346 417 44 
113 11 208 99 201 91 43 502 257 393 373 66 459 
114 3 488 486 20 
115 11 321 281 415 452 205 71 235 49 477 352 412 
116 7 347 30 247 325 141 421 473 
117 9 332 19 160 54 231 132 546 199 130 
118 7 454 35 390 128 426 550 93 
119 11 330 197 34 296 384 482 316 503 37 106 550 
120 11 101 229 78 445 293 94 318 189 239 150 370 
121 11 92 275 130 355 131 465 546 54 233 15 413 
122 10 542 48 522 270 96 361 450 538 495 148 
123 11 303 157 28 22 372 521 410 428 57 192 259 
124 8 515 456 451 31 199 160 457 19 
125 8 419 267 226 198 60 526 149 306 
126 9 299 8 543 304 176 82 17 342 520 
127 11 446 207 403 438 525 301 27 506 6 381 395 
128 5 263 118 454 35 390 
129 8 398 302 193 132 231 130 391 54 
130 11 54 132 231 121 546 92 117 302 465 19 129 
131 11 499 275 413 465 121 457 546 15 92 355 31 
132 10 231 54 130 332 117 302 19 391 129 546 
133 9 517 151 287 469 66 358 144 222 364 
134 8 11 220 238 26 512 487 333 298 
135 6 112 256 263 241 346 44 
136 11 61 341 312 246 253 435 429 158 536 357 443 
137 9 531 461 545 274 325 473 218 30 340 
138 7 474 74 202 32 251 397 280 
139 11 77 300 328 537 186 277 311 504 257 334 43 
140 11 453 331 381 234 6 525 489 289 36 411 403 
141 7 421 402 247 52 514 431 432 
142 5 368 475 232 7 184 
143 7 431 375 89 52 156 432 4 
144 9 162 14 458 170 517 287 523 133 151 
145 11 161 80 481 53 249 254 462 291 359 387 225 
146 10 511 361 282 270 48 464 148 497 96 122 
147 4 179 68 396 238 
148 10 464 361 479 538 146 511 282 48 270 122 
149 6 198 419 193 125 60 226 
150 8 307 441 322 484 229 65 445 295 
151 10 287 66 517 133 91 358 373 144 201 469 
152 11 106 323 37 110 209 327 75 339 286 330 214 
153 9 400 326 394 81 47 159 224 367 541 
154 10 494 16 310 298 258 248 333 512 26 168 
155 9 34 93 426 197 493 316 550 119 330 
156 9 375 143 304 89 176 4 299 431 8 
157 10 303 123 28 259 428 372 420 521 22 250 
158 11 253 463 219 357 61 447 526 210 136 51 276 
159 10 81 367 394 47 549 190 294 315 326 153 
160 10 19 117 31 546 332 199 456 457 54 465 
161 11 145 53 80 249 481 291 462 359 254 178 432 
162 8 14 458 144 523 170 252 399 200 
163 6 217 430 108 310 16 392 
164 11 378 472 70 56 277 9 385 379 527 448 41 
165 10 180 360 29 17 387 317 338 254 363 225 
166 11 492 62 541 266 216 224 476 13 377 47 190 
167 11 292 46 288 88 98 337 425 265 313 285 221 
168 11 509 269 478 258 177 107 16 392 154 310 430 
169 6 255 338 363 535 87 29 
170 8 200 14 162 144 458 523 547 548 
171 5 507 21 210 443 86 
172 7 64 374 335 40 498 73 245 
173 6 349 227 97 185 2 215 
174 10 105 348 433 79 72 495 183 450 50 376 
175 11 49 423 235 55 104 352 71 412 102 522 211 
176 11 304 4 8 225 17 299 126 375 89 254 387 
177 11 107 269 168 478 509 240 392 258 16 11 26 
178 10 359 53 80 161 145 10 544 344 249 291 
179 2 147 68 
180 10 165 29 360 17 338 317 363 387 242 471 
181 11 42 382 407 404 268 354 250 39 428 490 9 
182 11 496 412 442 401 477 79 71 205 104 362 348 
183 11 105 72 348 50 362 174 401 433 442 79 33 
184 4 539 475 232 7 
185 11 349 224 62 215 400 173 13 166 541 492 84 
186 10 328 300 311 334 77 139 504 228 393 43 
187 9 95 529 435 15 233 424 246 136 355 
188 4 344 544 530 10 
189 11 370 244 239 445 3 120 229 101 484 78 441 
190 11 294 377 216 47 549 541 492 394 476 159 266 
191 11 271 354 39 490 103 411 382 286 339 42 268 
192 11 410 22 63 356 260 57 123 28 521 303 510 
193 10 398 149 60 198 419 129 306 51 125 226 
194 11 211 460 102 480 67 84 55 223 352 215 455 
195 7 314 467 508 45 519 340 496 
196 6 518 439 449 69 486 237 
197 11 316 550 34 119 426 330 155 75 444 106 323 
198 8 419 149 125 60 193 226 306 267 
199 6 456 515 160 117 332 19 
200 8 170 547 14 548 162 523 458 144 
201 11 91 208 99 113 502 66 287 38 528 264 393 
202 11 74 280 109 138 305 364 222 469 406 32 474 
203 2 417 44 
204 11 418 516 290 111 18 395 324 206 549 438 371 
205 10 415 477 321 71 115 452 496 412 182 235 
206 11 366 23 371 438 324 336 516 204 418 437 18 
207 11 446 127 301 27 506 525 395 438 403 18 381 
208 11 99 113 201 91 502 393 43 257 66 38 287 
209 11 327 37 152 106 384 296 36 330 323 489 339 
210 10 429 443 536 253 158 61 526 219 463 312 
211 11 194 102 460 55 352 223 480 67 455 423 470 
212 9 414 498 351 320 319 335 388 73 284 
213 9 505 59 33 58 376 433 50 72 534 
214 11 286 339 110 323 103 41 75 444 152 106 379 
215 11 349 84 480 460 185 97 13 224 173 194 470 
216 11 492 541 377 166 190 266 47 476 62 294 224 
217 6 163 108 430 310 16 262 
218 7 461 473 137 531 545 325 30 
219 11 463 158 357 526 253 447 51 276 61 306 210 
220 7 512 26 333 134 298 11 238 
221 8 313 285 98 88 288 425 292 46 
222 10 358 469 280 74 364 202 305 109 133 203 
223 11 470 497 97 2 423 96 211 194 460 102 55 
224 11 62 185 166 400 541 349 492 13 216 266 47 
225 11 254 387 481 4 176 17 145 249 80 161 304 
226 10 526 60 51 125 306 267 419 219 463 210 
227 4 539 173 2 184 
228 9 510 279 409 504 186 334 311 63 328 
229 11 445 120 150 239 484 441 322 307 101 3 78 
230 7 25 386 83 297 76 82 416 
231 9 132 54 332 302 117 130 391 19 129 
232 7 475 7 184 283 368 539 142 
233 11 355 529 15 276 435 92 447 187 95 357 121 
234 11 453 140 331 6 381 411 36 525 489 345 490 
235 11 49 71 412 104 175 321 115 415 352 55 205 
236 4 540 65 307 414 
237 5 69 439 196 518 449 
238 8 487 134 11 220 512 26 147 179 
239 11 3 445 370 229 189 484 244 441 322 120 150 
240 11 478 11 177 269 107 168 26 134 512 258 509 
241 8 44 256 346 135 474 417 112 203 
242 5 471 317 524 530 10 
243 8 318 94 293 76 78 297 101 120 
244 11 370 189 239 3 445 229 120 101 484 441 322 
245 11 40 500 73 434 335 466 309 534 64 172 58 
246 5 341 136 312 435 61 
247 7 141 421 116 402 30 325 514 
248 6 494 154 310 298 16 333 
249 11 462 481 161 145 291 53 80 432 254 4 225 
250 11 428 28 57 303 157 181 9 123 407 404 42 
251 4 397 32 396 138 
252 5 399 523 458 14 162 
253 11 158 61 463 357 219 136 447 210 429 312 526 
254 11 387 225 481 80 145 249 161 4 53 17 462 
255 7 169 338 363 535 87 180 29 
256 5 135 241 44 112 346 
257 11 43 393 113 459 491 537 208 502 300 99 311 
258 11 16 168 509 154 269 478 310 298 430 494 392 
259 8 420 157 303 372 123 308 67 521 
260 11 455 521 22 67 372 192 410 123 356 281 352 
261 6 427 45 340 508 314 545 
262 6 350 369 265 425 46 217 
263 6 112 128 448 135 385 56 
264 7 528 408 38 252 91 201 347 
265 10 369 350 337 262 46 425 392 292 167 98 
266 10 476 166 216 377 492 541 62 308 13 468 
267 6 125 226 419 526 210 60 
268 11 490 354 345 407 404 42 181 411 271 191 382 
269 11 478 168 258 509 177 107 240 16 26 154 392 
270 11 48 361 146 511 96 122 542 148 497 282 538 
271 11 191 490 354 411 39 103 268 286 339 36 345 
272 3 273 20 488 
273 3 272 20 488 
274 10 545 531 137 325 461 421 30 340 247 473 
275 11 465 131 413 546 499 121 457 31 19 130 92 
276 11 447 357 463 219 51 158 233 306 355 253 435 
277 8 537 139 77 472 300 164 378 491 
278 11 353 309 284 500 534 388 319 73 245 320 351 
279 8 228 365 510 532 63 409 100 504 
280 10 364 109 305 202 469 222 74 358 138 383 
281 11 115 452 321 415 356 352 71 205 260 455 235 
282 10 511 146 464 361 148 270 48 497 283 479 
283 8 539 475 232 7 184 282 464 227 
284 11 388 319 353 309 320 351 278 500 73 212 414 
285 8 313 221 98 425 88 288 292 46 
286 11 339 214 110 152 323 103 36 191 271 106 75 
287 10 66 151 517 133 91 144 201 208 373 113 
288 10 88 98 292 167 46 313 425 285 221 337 
289 11 489 331 381 501 140 506 525 301 27 453 234 
290 11 418 204 516 111 324 549 18 206 294 395 24 
291 10 462 432 249 161 53 514 145 481 52 402 
292 11 167 88 98 46 288 425 337 313 285 221 265 
293 8 94 318 78 243 101 120 76 229 
294 11 190 549 377 324 216 468 47 159 492 541 476 
295 11 65 5 322 441 484 307 485 150 445 3 229 
296 11 384 482 37 330 503 119 327 209 106 152 197 
297 6 230 25 76 83 386 243 
298 8 333 512 26 154 220 494 248 258 
299 8 126 8 543 304 176 156 82 17 
300 10 328 77 139 186 311 537 334 504 257 43 
301 11 27 506 207 501 446 289 127 525 381 489 331 
302 8 129 391 231 132 398 54 332 130 
303 11 157 123 28 428 372 22 259 57 521 250 420 
304 11 176 8 299 126 4 156 225 375 17 89 543 
305 8 109 364 280 469 202 383 222 74 
306 11 51 60 526 226 219 463 276 447 357 419 193 
307 9 150 322 441 65 484 295 5 229 445 
308 6 476 266 259 468 440 13 
309 11 353 278 500 284 73 319 388 245 320 351 534 
310 11 16 154 430 494 258 248 163 108 509 298 168 
311 10 334 186 328 300 393 43 77 139 504 257 
312 9 429 536 341 136 61 443 246 253 210 
313 8 285 221 98 88 425 288 292 46 
314 8 508 45 195 467 340 519 261 427 
315 8 24 367 329 85 159 81 326 394 
316 11 550 197 444 75 426 330 119 110 323 34 106 
317 8 471 242 524 10 180 530 165 544 
318 7 94 293 78 243 101 76 120 
319 11 388 284 320 351 353 309 212 414 73 278 500 
320 11 351 319 388 212 284 414 498 73 309 500 335 
321 10 115 415 205 71 452 281 477 235 49 412 
322 11 441 484 307 295 65 150 5 445 229 3 239 
323 11 110 75 106 152 444 214 286 339 37 330 316 
324 11 371 206 294 23 549 516 366 468 290 418 204 
325 10 30 473 137 274 531 461 545 116 247 421 
326 8 153 81 367 394 159 400 47 315 
327 11 209 37 152 106 384 296 330 36 323 489 339 
328 10 186 300 311 77 139 334 504 393 537 43 
329 4 85 315 24 367 
330 11 119 37 106 384 296 197 316 75 323 152 550 
331 11 140 381 453 234 489 525 289 6 36 411 403 
332 8 117 231 132 54 160 19 391 199 
333 6 298 512 220 26 494 154 
334 9 311 186 328 300 393 228 504 43 77 
335 11 73 245 498 500 40 172 351 64 414 212 320 
336 11 366 23 437 371 440 483 206 90 403 438 468 
337 11 265 46 167 292 369 425 350 98 88 262 288 
338 9 363 255 169 535 29 180 87 343 165 
339 11 286 214 152 110 323 36 271 103 106 191 75 
340 11 508 45 261 314 545 427 531 274 195 461 137 
341 6 246 136 312 61 429 536 
342 10 520 343 12 513 535 436 533 82 87 416 
343 10 520 342 535 513 87 12 363 436 29 338 
344 4 188 544 10 530 
345 11 268 90 490 411 483 354 6 234 437 271 453 
346 5 417 112 44 241 135 
347 6 116 408 30 38 247 264 
348 11 79 105 401 174 183 442 362 72 182 433 496 
349 11 185 215 173 224 97 13 62 400 84 480 166 
350 7 369 262 265 425 46 392 337 
351 11 320 212 319 414 388 498 284 73 335 500 309 
352 11 55 102 49 175 211 455 235 281 115 194 71 
353 11 278 309 284 388 319 500 320 351 73 534 245 
354 11 490 191 271 268 42 411 39 382 345 181 103 
355 11 233 15 92 529 276 121 447 435 357 187 95 
356 11 63 100 192 281 410 452 22 260 365 532 115 
357 11 447 463 158 219 253 276 61 51 526 435 136 
358 10 222 469 373 133 151 203 280 517 364 66 
359 11 178 53 80 161 145 10 249 291 481 544 254 
360 11 165 29 17 180 387 338 363 225 254 343 535 
361 11 146 511 270 48 148 282 464 122 538 96 497 
362 10 442 401 519 348 183 105 182 79 496 374 
363 9 338 535 255 29 169 343 87 180 360 
364 9 305 109 280 469 222 202 74 133 358 
365 7 532 100 279 63 356 228 452 
366 11 23 336 206 371 438 437 440 324 403 468 483 
367 9 159 81 394 315 326 47 549 24 153 
368 5 142 7 232 475 184 
369 8 350 262 265 425 392 337 46 163 
370 11 244 189 239 3 445 229 120 484 101 441 322 
371 10 23 366 206 336 324 468 440 437 438 294 
372 10 521 67 420 455 123 260 157 303 22 259 
373 7 459 358 491 66 113 151 203 
374 10 64 172 519 467 362 40 183 442 401 434 
375 11 89 4 143 52 156 432 431 462 176 304 249 
376 9 505 450 433 495 174 213 538 72 33 
377 10 216 190 476 266 492 294 541 468 166 47 
378 11 164 472 70 9 277 56 41 77 379 385 139 
379 11 527 56 385 41 448 103 214 164 70 39 472 
380 8 86 21 389 405 443 383 536 429 
381 11 331 140 453 525 234 489 6 289 403 36 127 
382 11 42 181 39 354 191 70 268 103 407 490 271 
383 9 405 21 406 380 86 109 305 507 171 
384 11 296 482 37 330 119 503 327 209 106 152 197 
385 9 56 448 527 379 263 128 41 164 472 
386 5 83 230 25 297 82 
387 11 254 225 481 80 17 145 165 360 161 249 4 
388 11 319 284 320 351 353 309 212 278 414 500 73 
389 4 380 86 68 405 
390 4 118 454 128 35 
391 6 302 231 332 132 129 54 
392 10 509 168 430 107 258 16 163 177 269 369 
393 10 43 257 502 311 113 99 334 208 328 300 
394 11 81 159 47 367 153 190 400 541 326 216 549 
395 11 18 111 516 438 204 418 446 207 127 206 290 
396 7 406 32 68 251 147 405 397 
397 2 251 32 
398 9 129 193 302 130 132 231 54 92 306 
399 5 252 523 458 14 162 
400 11 153 224 62 185 541 47 394 492 166 216 349 
401 10 442 362 348 182 79 496 105 183 519 174 
402 7 141 514 52 432 247 421 291 
403 11 437 6 525 127 336 438 483 446 366 23 90 
404 9 407 268 181 42 345 354 428 382 250 
405 10 383 21 406 380 86 68 396 389 109 507 
406 11 396 405 32 68 383 21 202 251 109 380 138 
407 10 404 181 268 42 382 354 428 250 345 490 
408 5 264 528 38 347 252 
409 10 510 228 504 279 57 63 410 192 186 328 
410 11 192 22 63 57 28 123 356 260 303 521 510 
411 11 490 271 234 345 354 191 453 36 268 6 140 
412 11 104 71 235 49 182 496 477 205 175 415 321 
413 11 275 499 131 457 465 31 546 121 19 160 130 
414 7 212 498 351 320 335 319 73 
415 10 205 321 115 477 71 452 281 235 412 49 
416 11 533 12 82 513 436 25 520 342 230 343 386 
417 3 346 203 44 
418 11 204 290 516 111 18 324 395 549 206 438 294 
419 10 198 125 60 149 226 193 267 306 51 526 
420 9 259 372 67 157 521 303 123 84 480 
421 8 141 247 402 274 431 325 52 545 
422 6 38 473 30 502 218 325 
423 11 175 55 96 223 522 102 49 104 352 542 211 
424 10 15 95 529 187 233 499 131 355 435 275 
425 11 46 98 292 88 285 313 262 350 288 167 369 
426 10 550 197 316 155 35 454 34 93 118 444 
427 6 261 45 508 340 314 467 
428 10 250 28 57 303 157 123 407 404 181 259 
429 9 536 443 312 61 210 136 253 341 158 
430 10 163 16 310 108 217 392 509 258 154 168 
431 8 143 52 375 89 141 421 402 432 
432 11 462 52 291 249 89 402 514 375 481 4 161 
433 10 72 33 50 174 505 105 183 58 376 348 
434 11 466 40 245 58 534 500 50 73 33 64 335 
435 11 136 187 61 447 357 529 253 233 246 95 341 
436 10 513 533 12 87 520 342 343 535 416 82 
437 10 483 336 90 403 366 23 6 440 345 371 
438 11 206 127 366 23 446 403 395 336 18 371 516 
439 6 196 518 69 449 237 486 
440 9 468 336 371 23 366 483 90 437 308 
441 11 322 484 307 150 295 65 5 445 229 239 3 
442 10 401 362 182 348 496 519 79 183 105 467 
443 8 536 429 312 210 61 136 253 341 
444 11 75 550 110 316 323 35 106 197 214 426 330 
445 11 229 239 484 3 441 322 120 150 370 189 307 
446 11 127 207 438 525 403 301 27 395 506 18 381 
447 11 357 276 463 219 158 253 51 435 61 526 233 
448 8 385 56 527 379 263 128 112 472 
449 7 518 196 439 69 486 237 114 
450 9 495 522 542 122 376 174 79 105 433 
451 6 515 124 456 199 160 31 
452 10 115 281 321 415 205 356 477 100 71 235 
453 11 140 234 331 6 381 525 411 489 36 289 403 
454 8 118 35 426 390 128 550 444 93 
455 11 260 521 67 372 22 352 102 281 55 211 194 
456 8 515 199 124 451 160 31 19 117 
457 11 31 413 465 546 275 19 160 131 499 117 124 
458 9 14 162 523 252 399 144 170 200 547 
459 4 491 373 257 43 
460 11 194 480 84 211 215 97 470 102 223 67 349 
461 9 137 531 545 218 473 325 274 30 340 
462 11 249 432 291 481 161 145 4 52 53 89 80 
463 11 219 158 357 253 447 526 51 276 61 210 306 
464 10 148 282 146 511 361 479 538 48 270 283 
465 11 546 275 457 413 19 31 131 121 160 130 54 
466 11 434 40 58 50 245 33 534 72 500 183 64 
467 9 519 314 195 45 508 374 362 442 401 
468 10 371 440 377 476 294 324 266 190 23 366 
469 10 364 222 280 305 358 109 133 517 202 74 
470 11 223 97 2 497 460 215 96 211 194 173 423 
471 6 242 524 317 530 10 544 
472 10 164 378 70 277 56 385 448 9 527 379 
473 8 325 30 137 461 218 531 422 545 
474 7 138 74 241 44 202 397 251 
475 7 232 7 184 539 283 142 368 
476 10 266 377 216 166 492 468 308 541 190 62 
477 10 205 415 496 182 71 321 412 115 452 235 
478 11 269 168 258 509 177 107 240 26 16 154 11 
479 10 538 148 464 361 48 122 146 270 511 282 
480 11 84 460 215 194 13 211 420 67 349 97 185 
481 11 249 145 254 161 225 80 462 387 4 53 291 
482 11 503 296 384 119 330 37 34 327 209 197 106 
483 10 90 437 336 345 403 440 6 366 23 371 
484 11 441 322 295 307 150 65 445 5 229 239 3 
485 11 5 295 65 322 441 484 307 3 150 388 319 
486 7 518 196 449 439 114 69 237 
487 6 238 134 11 179 220 147 
488 5 20 273 272 114 486 
489 11 289 331 381 140 453 501 36 234 525 209 327 
490 11 354 271 411 268 191 345 42 39 234 382 181 
491 5 459 537 257 43 373 
492 11 541 216 166 62 266 377 47 476 224 190 400 
493 8 34 155 119 197 503 93 482 426 
494 7 248 154 298 310 333 16 258 
495 9 450 522 174 542 122 79 376 105 104 
496 9 182 477 442 205 401 412 71 415 362 
497 11 2 470 146 511 223 270 96 361 48 97 282 
498 6 414 212 351 335 320 73 
499 11 131 413 275 465 457 121 546 424 15 31 355 
500 11 73 245 309 335 40 353 434 278 351 284 534 
501 11 289 506 27 301 489 381 331 525 140 327 209 
502 11 99 208 393 113 201 43 91 257 38 311 334 
503 11 482 296 384 119 330 34 493 37 197 327 209 
504 10 409 228 510 186 328 300 77 334 279 311 
505 9 213 376 433 59 33 72 58 50 174 
506 11 27 301 501 207 289 446 525 127 489 381 331 
507 3 171 21 86 
508 10 45 314 340 261 427 195 467 545 519 531 
509 11 168 258 392 269 478 16 107 177 430 310 154 
510 10 409 228 504 279 63 57 410 192 186 334 
511 10 146 361 282 270 464 48 148 497 96 122 
512 7 26 220 298 333 134 11 154 
513 10 436 12 533 520 342 343 87 535 416 82 
514 6 402 291 432 141 52 462 
515 8 456 124 199 451 160 31 19 117 
516 11 204 418 290 111 18 324 395 206 438 549 23 
517 9 133 151 287 66 144 469 358 162 91 
518 6 196 439 449 69 486 237 
519 10 467 362 442 374 401 195 314 496 45 182 
520 10 342 343 12 513 436 535 533 87 82 416 
521 11 372 67 260 455 22 123 303 420 157 410 192 
522 10 542 122 495 450 96 423 48 270 104 175 
523 8 399 458 14 252 162 547 200 548 
524 6 471 242 530 317 10 544 
525 11 381 140 6 331 403 453 127 234 446 289 489 
526 11 219 51 226 463 158 306 60 357 210 253 447 
527 11 379 56 385 448 41 103 214 164 70 472 128 
528 7 264 408 38 252 91 201 347 
529 11 15 233 187 355 95 435 424 276 447 92 357 
530 7 524 544 10 471 242 317 188 
531 9 545 137 461 274 325 473 340 218 30 
532 6 365 100 279 63 356 228 
533 10 12 436 513 416 520 342 87 343 82 535 
534 11 434 466 58 245 278 500 59 309 40 33 353 
535 10 343 363 87 338 520 342 513 436 29 12 
536 8 429 443 312 210 61 136 253 341 
537 9 139 277 491 77 300 257 459 43 328 
538 10 479 148 48 361 122 464 270 542 146 511 
539 6 184 227 475 283 232 7 
540 3 236 307 65 
541 11 492 216 166 62 47 377 224 266 190 400 476 
542 10 122 522 96 48 270 450 495 361 538 423 
543 6 126 299 82 8 386 304 
544 9 10 530 524 188 344 471 178 317 242 
545 10 531 274 137 461 340 325 473 218 30 421 
546 11 465 19 275 31 160 457 54 117 130 413 121 
547 7 548 200 523 14 399 170 458 
548 5 547 200 523 14 170 
549 11 294 190 159 324 290 47 394 367 377 418 81 
550 11 316 444 197 426 75 35 110 330 323 119 34 
DEPOT_SECTION
   1
   -1
EOF
