NAME :  X-n766-kX-w153-c11.cctp
COMMENT : 	Adapted by Maziero, Usberti and Cavellucci from the Uchoa, Pecin, Pessoa, Poggi, Subramanian, and Vidal (2013)
TYPE :  CCTP
DIMENSION :    644
EDGE_WEIGHT_TYPE : 	EUC_2D	
CAPACITY : 	166
VERTICES_WITHIN_COVERAGE :  11
VERTICES_WITH_DEMAND : 	153
NODE_COORD_SECTION
1 0 0
2 409 418
3 378 220
4 469 585
5 91 695
6 455 648
7 86 403
8 493 292
9 124 630
10 43 202
11 961 668
12 538 143
13 114 523
14 273 287
15 884 865
16 551 791
17 609 232
18 69 625
19 191 484
20 562 650
21 858 506
22 688 951
23 174 158
24 175 404
25 314 484
26 210 517
27 574 158
28 76 499
29 136 195
30 47 593
31 87 897
32 526 650
33 683 60
34 437 962
35 863 428
36 866 335
37 16 391
38 948 422
39 1 945
40 13 299
41 404 889
42 974 290
43 59 281
44 966 52
45 815 145
46 238 897
47 546 414
48 297 370
49 421 143
50 292 86
51 420 958
52 661 796
53 98 757
54 15 722
55 599 669
56 287 134
57 925 251
58 115 179
59 449 945
60 487 960
61 683 779
62 628 855
63 290 322
64 145 109
65 356 887
66 416 654
67 899 981
68 228 187
69 634 10
70 673 503
71 999 237
72 280 64
73 407 977
74 417 841
75 773 52
76 922 376
77 270 503
78 998 123
79 353 527
80 352 21
81 19 697
82 590 322
83 326 401
84 851 668
85 156 557
86 700 423
87 232 556
88 272 248
89 383 472
90 659 930
91 62 513
92 551 459
93 108 723
94 127 359
95 765 936
96 199 264
97 942 980
98 595 746
99 736 127
100 808 393
101 194 803
102 879 138
103 329 531
104 544 840
105 384 143
106 622 102
107 350 231
108 656 364
109 730 846
110 800 218
111 556 454
112 967 994
113 654 141
114 213 582
115 158 64
116 381 518
117 281 153
118 991 305
119 322 68
120 378 996
121 941 397
122 89 16
123 666 113
124 518 249
125 665 277
126 796 357
127 759 988
128 938 366
129 688 589
130 224 487
131 626 118
132 852 200
133 948 17
134 816 580
135 243 75
136 55 873
137 585 640
138 841 326
139 41 67
140 418 268
141 445 424
142 897 432
143 404 444
144 391 537
145 574 728
146 411 117
147 167 197
148 502 596
149 724 799
150 137 619
151 121 457
152 857 627
153 847 277
154 658 690
155 508 997
156 638 579
157 601 692
158 884 98
159 610 664
160 845 965
161 554 127
162 817 205
163 612 861
164 142 905
165 735 77
166 990 120
167 63 415
168 97 810
169 459 337
170 664 488
171 148 748
172 876 902
173 30 706
174 434 176
175 604 49
176 464 151
177 734 742
178 390 613
179 879 972
180 957 393
181 351 361
182 614 200
183 840 412
184 162 699
185 166 217
186 640 833
187 309 407
188 468 408
189 663 357
190 560 636
191 29 716
192 885 881
193 819 918
194 818 716
195 657 620
196 767 710
197 28 821
198 639 287
199 973 213
200 37 615
201 669 338
202 273 325
203 716 872
204 517 434
205 0 537
206 843 863
207 929 542
208 705 899
209 207 798
210 911 610
211 339 859
212 612 102
213 316 810
214 365 275
215 760 848
216 393 15
217 313 107
218 104 662
219 860 699
220 517 239
221 982 715
222 27 603
223 71 270
224 301 17
225 376 970
226 618 71
227 451 280
228 322 295
229 21 95
230 552 836
231 957 868
232 756 914
233 911 695
234 456 521
235 216 642
236 266 379
237 23 325
238 157 140
239 689 733
240 971 840
241 420 309
242 187 599
243 160 281
244 942 581
245 736 235
246 283 191
247 243 947
248 701 533
249 688 457
250 882 105
251 880 403
252 727 763
253 570 595
254 623 916
255 841 842
256 950 982
257 752 33
258 853 91
259 224 467
260 252 39
261 184 424
262 117 489
263 956 1000
264 972 425
265 895 182
266 668 858
267 289 178
268 490 992
269 958 336
270 308 253
271 270 351
272 654 299
273 143 955
274 423 495
275 288 575
276 647 818
277 585 134
278 874 685
279 812 27
280 346 184
281 225 623
282 306 312
283 66 672
284 692 808
285 873 625
286 963 854
287 406 262
288 592 596
289 78 96
290 406 574
291 218 533
292 779 657
293 615 657
294 721 148
295 447 492
296 468 394
297 486 290
298 579 792
299 315 612
300 58 395
301 290 79
302 729 421
303 656 508
304 743 847
305 454 572
306 49 808
307 902 700
308 801 148
309 968 613
310 309 508
311 484 528
312 417 871
313 590 883
314 588 906
315 85 837
316 50 718
317 939 795
318 105 219
319 679 87
320 935 858
321 637 841
322 43 674
323 3 542
324 783 185
325 539 977
326 605 590
327 960 56
328 587 221
329 581 900
330 194 248
331 207 151
332 273 573
333 422 318
334 234 860
335 206 726
336 602 361
337 859 230
338 550 353
339 249 328
340 725 828
341 81 319
342 806 233
343 417 151
344 29 337
345 28 797
346 903 544
347 180 278
348 894 511
349 708 654
350 146 870
351 537 706
352 622 795
353 951 148
354 492 839
355 104 80
356 775 9
357 789 686
358 227 95
359 488 244
360 978 354
361 894 959
362 648 116
363 560 381
364 337 243
365 555 699
366 348 195
367 725 18
368 672 142
369 534 484
370 595 369
371 547 135
372 503 150
373 588 394
374 525 398
375 542 437
376 650 135
377 942 842
378 552 921
379 584 443
380 626 568
381 718 266
382 533 231
383 674 161
384 669 79
385 638 718
386 34 333
387 403 892
388 384 624
389 575 146
390 648 154
391 656 373
392 436 227
393 883 410
394 415 834
395 655 565
396 747 331
397 985 962
398 659 480
399 775 47
400 520 443
401 643 534
402 410 356
403 920 324
404 610 14
405 527 229
406 641 50
407 559 497
408 856 433
409 638 485
410 537 185
411 367 202
412 959 121
413 586 434
414 437 871
415 898 946
416 654 71
417 816 858
418 848 841
419 623 349
420 562 292
421 933 277
422 557 736
423 909 533
424 522 831
425 986 393
426 638 100
427 498 835
428 590 404
429 554 269
430 771 974
431 542 759
432 781 219
433 466 370
434 236 287
435 375 290
436 538 500
437 432 394
438 950 392
439 519 148
440 535 229
441 406 224
442 912 370
443 893 908
444 402 173
445 515 391
446 525 148
447 763 808
448 557 729
449 637 159
450 976 323
451 541 414
452 260 372
453 398 168
454 633 412
455 514 765
456 574 448
457 931 992
458 361 158
459 539 292
460 538 113
461 491 269
462 549 360
463 497 533
464 733 250
465 908 293
466 683 466
467 699 366
468 562 673
469 467 137
470 610 675
471 641 54
472 630 119
473 431 793
474 328 389
475 372 101
476 524 908
477 858 6
478 525 509
479 584 463
480 317 132
481 604 158
482 983 457
483 511 585
484 907 343
485 627 247
486 901 332
487 689 533
488 546 156
489 355 930
490 588 246
491 404 127
492 388 924
493 600 73
494 930 112
495 686 332
496 395 917
497 507 405
498 615 262
499 876 977
500 435 108
501 809 927
502 521 849
503 601 80
504 48 799
505 717 125
506 546 482
507 322 236
508 905 895
509 166 836
510 498 231
511 618 125
512 539 424
513 787 969
514 919 958
515 477 915
516 420 79
517 568 275
518 839 150
519 766 234
520 673 566
521 442 171
522 639 371
523 837 336
524 885 892
525 384 474
526 862 505
527 309 275
528 992 289
529 697 410
530 390 123
531 359 186
532 629 740
533 544 788
534 974 260
535 602 118
536 770 156
537 989 366
538 353 228
539 539 312
540 502 232
541 373 696
542 859 428
543 561 324
544 595 357
545 998 458
546 806 797
547 829 360
548 449 277
549 526 761
550 908 981
551 502 274
552 923 363
553 698 99
554 909 979
555 986 411
556 413 713
557 698 294
558 668 73
559 446 237
560 556 420
561 557 187
562 544 515
563 552 849
564 346 216
565 769 505
566 919 370
567 699 319
568 989 314
569 945 932
570 479 893
571 639 494
572 634 166
573 948 927
574 820 824
575 652 92
576 948 942
577 372 659
578 542 251
579 342 391
580 789 947
581 683 440
582 633 204
583 927 980
584 602 251
585 628 134
586 346 250
587 656 459
588 558 601
589 768 185
590 631 104
591 966 113
592 494 697
593 600 127
594 807 418
595 975 299
596 649 646
597 640 109
598 989 457
599 341 236
600 493 862
601 936 356
602 720 140
603 943 386
604 485 338
605 788 498
606 587 435
607 443 245
608 332 64
609 668 266
610 408 844
611 687 234
612 937 404
613 864 155
614 503 291
615 385 875
616 789 895
617 415 607
618 537 223
619 621 144
620 371 45
621 407 837
622 484 378
623 710 162
624 640 104
625 671 15
626 978 976
627 669 224
628 269 160
629 403 3
630 482 896
631 628 69
632 984 364
633 924 466
634 922 957
635 744 71
636 393 41
637 914 314
638 409 313
639 737 602
640 432 103
641 429 662
642 358 858
643 512 303
644 360 105
DEMAND_SECTION
2 85
3 89
4 71
5 68
6 52
7 76
8 57
9 73
10 89
11 100
12 61
13 92
14 99
15 56
16 91
17 71
18 69
19 79
20 93
21 61
22 94
23 63
24 89
25 88
26 100
27 96
28 92
29 75
30 69
31 72
32 86
33 77
34 68
35 81
36 100
37 95
38 68
39 71
40 79
41 55
42 73
43 82
44 67
45 91
46 96
47 62
48 76
49 53
50 78
51 53
52 61
53 100
54 70
55 57
56 99
57 61
58 55
59 66
60 57
61 70
62 73
63 84
64 80
65 84
66 94
67 53
68 99
69 61
70 96
71 80
72 67
73 87
74 91
75 58
76 84
77 96
78 96
79 97
80 68
81 100
82 60
83 90
84 81
85 60
86 91
87 97
88 55
89 64
90 75
91 65
92 67
93 51
94 60
95 56
96 62
97 85
98 73
99 68
100 81
101 80
102 100
103 64
104 84
105 78
106 54
107 9
108 6
109 4
110 3
111 5
112 7
113 5
114 6
115 10
116 4
117 1
118 4
119 9
120 5
121 2
122 5
123 1
124 7
125 7
126 10
127 1
128 9
129 9
130 5
131 8
132 2
133 3
134 8
135 8
136 9
137 9
138 5
139 1
140 1
141 5
142 2
143 1
144 5
145 7
146 10
147 10
148 6
149 9
150 3
151 2
152 3
153 2
154 2
COVERAGE_SECTION
2 10 143 437 141 89 188 525 402 296 579 433 
3 11 411 538 441 107 564 366 531 599 586 364 280 
4 11 305 148 483 617 311 463 290 6 234 178 32 
5 11 93 283 218 316 322 53 173 191 184 81 9 
6 10 641 66 617 592 4 148 32 178 388 305 
7 11 167 300 94 151 37 341 344 386 24 262 28 
8 9 297 614 551 643 461 227 459 548 604 
9 11 150 218 18 242 283 5 184 85 30 200 322 
10 11 318 223 58 43 29 40 229 289 341 147 185 
11 11 221 309 233 307 210 244 278 285 219 84 152 
12 10 371 446 488 439 161 460 372 389 27 410 
13 11 262 28 91 85 151 19 26 30 150 291 242 
14 11 434 202 527 63 88 282 339 270 228 271 507 
15 11 192 524 508 172 206 418 443 255 320 377 417 
16 10 533 298 431 549 230 455 104 424 422 563 
17 7 584 485 328 490 498 182 582 
18 11 200 30 222 283 218 9 322 150 5 81 173 
19 11 130 259 26 291 261 262 151 77 85 24 87 
20 11 190 468 137 32 55 365 588 159 293 470 253 
21 11 526 348 423 346 605 408 633 35 542 207 142 
22 11 90 208 254 232 95 127 203 430 266 513 580 
23 11 238 331 147 29 64 185 68 58 358 318 330 
24 11 261 94 151 259 19 7 452 236 130 262 339 
25 11 310 77 103 79 89 525 116 187 83 130 259 
26 11 291 130 19 87 259 77 114 85 332 242 13 
27 9 389 277 488 481 561 371 161 12 593 
28 11 91 262 13 151 167 205 323 7 30 85 300 
29 11 58 147 185 318 23 238 330 331 64 243 68 
30 11 222 200 18 323 205 91 283 322 9 218 150 
31 11 136 164 315 350 273 168 197 306 39 509 504 
32 11 20 190 468 351 365 592 148 588 137 483 253 
33 11 558 384 319 416 471 553 406 575 625 165 123 
34 11 51 59 73 60 268 225 492 496 515 120 387 
35 11 542 408 393 183 251 142 594 100 633 442 547 
36 11 138 523 486 484 547 637 403 442 465 153 552 
37 11 300 167 344 386 237 7 40 341 94 43 28 
38 11 612 264 121 180 438 603 555 425 482 633 142 
39 11 136 31 197 315 273 306 164 345 504 350 168 
40 11 237 386 344 43 223 341 37 10 300 318 167 
41 11 387 312 615 496 414 492 610 65 74 621 642 
42 11 595 528 118 568 534 450 421 269 71 57 360 
43 11 223 341 40 237 386 344 318 10 243 94 300 
44 11 327 133 591 412 494 166 78 158 353 250 477 
45 11 308 518 536 613 324 162 589 102 132 258 110 
46 11 334 247 509 164 350 101 209 211 273 213 65 
47 11 451 512 560 375 374 204 363 400 445 497 111 
48 11 236 271 474 452 187 83 63 579 202 181 282 
49 11 343 491 146 453 174 521 444 105 530 500 640 
50 11 301 72 217 119 608 56 135 480 260 358 117 
51 11 34 73 59 225 492 496 120 60 387 41 489 
52 11 276 61 284 352 186 321 266 149 532 62 239 
53 11 93 171 168 5 316 504 306 191 315 345 173 
54 11 191 173 81 316 322 283 345 5 504 53 306 
55 11 159 470 293 157 137 468 20 190 365 596 154 
56 11 117 480 628 217 267 50 301 246 72 358 135 
57 11 421 465 534 199 42 637 337 595 403 71 265 
58 11 29 318 147 238 23 185 10 64 289 331 355 
59 11 34 51 60 515 73 630 570 496 268 492 387 
60 11 268 59 155 515 34 325 476 630 51 570 378 
61 11 52 284 149 239 252 276 177 352 340 532 186 
62 11 163 321 186 266 276 313 352 254 314 329 52 
63 11 202 282 271 14 339 228 48 527 452 236 434 
64 11 238 115 355 23 289 331 58 358 29 147 135 
65 11 642 615 211 489 387 41 492 496 312 610 621 
66 8 641 6 388 577 617 178 556 541 
67 11 550 554 179 361 499 583 514 634 457 415 97 
68 11 331 628 246 23 147 267 117 185 330 88 56 
69 9 404 625 406 471 175 631 226 416 33 
70 11 170 303 398 487 571 466 409 248 401 587 249 
71 11 534 199 528 42 595 118 57 421 568 450 353 
72 11 301 50 260 135 119 224 608 217 358 56 480 
73 11 51 225 34 120 59 492 496 489 60 268 387 
74 9 394 610 621 312 414 615 41 473 387 
75 11 399 257 635 356 165 279 367 99 258 553 33 
76 11 566 442 552 128 603 601 121 438 612 484 180 
77 11 310 25 130 259 291 26 87 103 332 275 19 
78 11 166 591 412 353 494 327 44 199 71 133 158 
79 11 103 116 144 310 25 525 89 290 274 275 77 
80 8 620 216 636 608 224 629 119 475 
81 11 173 191 54 322 316 283 5 200 18 218 93 
82 11 543 544 336 420 419 370 338 517 539 462 459 
83 11 474 187 579 48 181 236 452 271 25 2 63 
84 11 278 219 152 285 194 307 357 233 292 210 196 
85 11 242 13 114 150 291 26 87 262 9 19 281 
86 10 529 581 302 249 466 467 587 391 454 398 
87 11 291 114 332 26 275 242 77 281 130 85 19 
88 11 270 14 527 507 434 246 364 228 599 267 282 
89 11 525 143 116 274 2 79 144 295 25 141 103 
90 11 22 254 208 266 314 62 203 163 313 329 321 
91 11 28 13 262 205 323 30 151 222 167 85 200 
92 11 111 375 506 456 369 479 400 379 512 407 560 
93 11 5 53 171 316 184 218 283 191 173 322 168 
94 11 7 341 24 300 167 243 261 347 386 151 344 
95 10 232 580 430 513 501 616 127 193 208 22 
96 11 330 347 243 434 185 147 88 14 339 68 29 
97 11 256 583 457 263 112 634 514 554 550 626 576 
98 11 145 532 422 448 298 385 157 431 352 365 16 
99 11 505 602 294 623 536 553 165 635 368 589 308 
100 11 594 183 126 547 408 542 523 35 251 138 393 
101 9 209 509 334 171 335 350 168 46 53 
102 11 613 250 158 518 265 258 494 45 132 353 308 
103 11 79 310 25 116 275 144 77 332 525 89 299 
104 11 230 563 424 502 427 16 354 533 600 298 313 
105 11 530 491 458 453 343 444 49 146 475 644 531 
106 11 590 212 131 426 624 472 597 511 535 362 503 
107 11 538 599 564 364 586 507 3 411 366 214 531 
108 11 391 189 522 201 419 467 495 454 336 370 544 
109 11 304 340 203 215 149 447 284 208 266 232 616 
110 11 342 432 162 324 519 589 132 337 245 536 308 
111 11 92 456 375 479 379 506 512 560 413 606 369 
112 11 263 256 626 97 457 397 583 576 634 514 550 
113 11 376 390 368 449 362 585 383 123 572 472 619 
114 10 242 87 281 291 235 332 85 26 275 150 
115 11 64 355 238 358 122 135 289 23 260 331 139 
116 11 144 79 525 89 274 103 290 295 310 25 234 
117 11 628 56 267 246 480 217 68 50 280 331 301 
118 11 568 528 595 42 450 269 534 360 632 537 421 
119 11 608 301 50 217 72 644 620 224 80 475 480 
120 11 225 73 51 34 489 492 496 59 387 41 65 
121 11 612 438 603 180 38 76 128 566 552 442 601 
122 11 355 139 289 115 229 64 238 358 23 58 135 
123 11 362 575 597 376 624 319 113 368 426 384 553 
124 11 220 405 382 540 578 440 510 359 551 618 461 
125 11 609 272 198 557 485 611 498 627 381 567 495 
126 11 547 100 523 138 396 594 183 36 302 153 542 
127 10 430 513 580 95 232 501 22 160 193 616 
128 11 601 552 76 566 603 442 438 121 180 269 612 
129 11 520 395 195 156 639 487 248 380 349 596 401 
130 11 259 19 26 291 77 87 261 310 25 24 114 
131 11 472 511 590 106 585 597 624 212 362 426 535 
132 11 337 162 265 613 518 110 342 45 102 324 308 
133 11 44 327 477 494 591 158 412 250 166 78 258 
134 11 152 285 639 21 292 605 526 565 346 84 210 
135 11 358 260 72 301 50 56 217 119 224 331 115 
136 11 31 315 197 306 504 168 345 39 350 164 509 
137 11 20 190 55 293 159 468 470 288 253 588 157 
138 11 523 36 547 153 126 486 484 637 100 465 403 
139 11 229 289 355 122 64 115 58 10 238 29 23 
140 10 287 548 607 227 241 559 392 441 638 435 
141 10 188 437 2 296 143 433 622 497 295 204 
142 11 393 35 251 542 408 633 612 38 121 183 76 
143 11 2 89 525 141 274 437 295 188 116 296 579 
144 11 116 79 290 274 103 525 89 234 295 305 617 
145 9 448 422 98 365 351 157 431 468 532 
146 10 491 530 640 500 49 343 105 516 475 644 
147 11 185 29 23 58 238 330 331 68 318 96 347 
148 10 483 4 305 588 32 463 253 6 190 311 
149 11 340 284 252 447 61 109 304 177 215 52 203 
150 11 9 218 242 85 18 235 184 114 281 5 283 
151 11 262 28 7 13 261 167 19 24 91 300 94 
152 11 285 84 210 278 134 219 292 307 233 357 346 
153 11 138 337 342 523 36 465 110 132 486 637 162 
154 11 385 596 470 239 293 159 157 532 349 55 195 
155 11 268 325 60 34 59 378 515 476 51 73 630 
156 10 380 395 326 520 195 401 288 129 596 487 
157 11 470 55 159 293 468 145 385 365 98 137 532 
158 11 250 258 102 494 613 518 412 45 591 353 265 
159 11 293 470 55 157 137 596 468 20 154 190 385 
160 10 499 179 361 501 193 67 415 513 580 550 
161 7 371 460 12 389 488 277 446 
162 11 110 342 132 324 432 337 589 308 518 519 45 
163 11 62 313 321 186 329 314 276 254 266 563 230 
164 11 350 273 31 509 315 136 46 334 168 247 101 
165 11 635 553 75 257 99 399 505 33 319 367 602 
166 11 78 591 412 353 494 327 44 199 158 250 133 
167 11 300 7 37 151 28 94 344 386 262 91 237 
168 11 315 306 504 53 197 345 509 136 350 171 31 
169 9 604 433 333 241 622 402 297 638 8 
170 10 398 70 303 409 571 466 587 249 401 487 
171 11 93 53 184 335 101 209 5 168 509 218 316 
172 10 524 443 192 508 15 415 206 193 361 418 
173 11 191 81 54 316 322 283 5 93 53 218 18 
174 8 521 343 444 49 453 176 392 469 
175 8 493 226 503 631 404 406 471 69 
176 6 469 521 174 372 49 343 
177 11 252 196 239 149 61 447 284 357 340 194 52 
178 10 388 617 290 66 577 641 6 299 144 305 
179 11 499 361 67 550 554 415 160 514 634 583 457 
180 11 438 121 603 612 425 38 128 555 264 76 632 
181 11 579 474 83 48 402 187 282 63 228 435 638 
182 5 582 17 328 572 481 
183 11 542 408 35 594 100 251 393 547 142 126 523 
184 10 171 335 93 218 5 9 235 150 53 281 
185 11 147 29 330 96 23 318 347 58 243 68 238 
186 11 321 276 62 266 163 352 52 284 61 313 298 
187 11 83 474 579 48 236 452 181 271 25 63 202 
188 10 296 141 622 433 437 497 445 204 374 2 
189 11 108 391 201 522 495 467 419 567 272 336 454 
190 11 20 137 588 32 468 253 55 288 159 293 365 
191 11 173 54 81 316 322 283 5 93 53 345 504 
192 9 524 15 172 508 443 206 418 320 255 
193 9 501 616 580 160 95 172 206 417 513 
194 11 357 219 196 84 278 292 546 307 177 233 152 
195 11 596 129 156 395 293 520 326 349 380 159 288 
196 11 357 177 194 292 252 239 349 84 219 546 447 
197 11 345 306 504 136 315 168 53 31 54 191 316 
198 11 272 125 498 609 485 584 201 557 82 17 419 
199 11 71 534 57 353 421 42 528 265 595 78 412 
200 11 222 30 18 322 283 323 218 81 205 9 173 
201 11 495 189 108 567 391 467 272 522 419 557 198 
202 11 63 339 271 282 14 452 48 434 236 228 527 
203 11 208 109 304 340 215 266 232 284 149 616 447 
204 11 400 512 375 451 497 47 374 560 92 445 111 
205 11 323 91 222 30 28 200 18 13 262 167 322 
206 9 255 418 417 15 574 192 172 524 193 
207 10 423 346 244 348 210 633 526 21 309 285 
208 11 203 232 22 90 266 109 304 95 340 215 254 
209 9 101 509 334 335 171 350 46 184 213 
210 11 285 244 152 309 346 207 11 423 84 278 233 
211 10 642 65 615 213 610 621 41 387 489 312 
212 11 106 535 590 131 511 472 503 426 593 624 597 
213 3 211 642 65 
214 11 435 586 287 364 107 599 228 538 140 527 3 
215 10 304 109 340 447 203 616 417 149 574 232 
216 5 629 636 620 80 516 
217 11 480 50 301 56 119 608 644 72 117 475 628 
218 11 5 9 283 18 150 93 322 184 316 200 173 
219 11 278 84 307 194 233 152 357 285 292 196 210 
220 9 124 405 540 382 440 510 618 578 359 
221 11 11 233 307 317 309 278 219 240 210 377 84 
222 11 200 30 18 323 205 322 283 81 91 218 9 
223 11 43 341 318 40 237 386 10 344 243 29 58 
224 11 72 80 260 119 608 301 50 620 135 217 216 
225 11 120 73 489 51 492 496 34 59 387 65 41 
226 9 631 493 503 175 471 106 406 212 426 
227 8 548 140 297 607 461 241 559 8 
228 11 282 527 63 270 214 14 586 435 364 202 507 
229 11 139 289 355 122 10 64 58 115 238 318 29 
230 11 104 563 424 502 16 533 298 427 313 354 600 
231 8 286 320 377 240 508 573 569 15 
232 11 95 616 580 208 501 203 430 193 513 215 304 
233 11 307 278 219 11 84 221 285 210 152 194 309 
234 11 311 295 274 463 305 4 144 478 290 116 483 
235 8 281 242 114 184 150 335 87 332 
236 11 452 271 48 187 202 339 63 474 83 579 282 
237 11 344 386 40 43 341 37 223 300 167 7 94 
238 11 23 64 331 58 147 29 115 185 355 358 68 
239 11 61 177 252 154 385 532 52 149 284 196 349 
240 8 286 377 231 320 317 508 573 15 
241 9 333 638 140 227 548 169 402 287 435 
242 11 114 281 85 235 150 87 9 291 26 332 184 
243 11 347 96 330 185 434 318 147 94 341 29 223 
244 10 207 309 210 346 423 285 348 11 152 526 
245 9 464 519 381 432 611 589 110 627 324 
246 11 267 628 117 68 56 88 507 280 366 270 480 
247 11 46 334 273 164 489 350 65 211 225 509 120 
248 11 487 70 520 303 395 129 170 401 398 466 571 
249 11 466 581 587 86 398 170 70 529 302 409 303 
250 11 158 258 102 494 613 518 45 265 412 353 591 
251 11 393 35 542 142 408 183 442 76 566 612 552 
252 11 177 149 61 239 284 447 340 196 52 109 304 
253 8 588 288 326 190 137 20 483 380 
254 11 314 90 329 313 163 62 378 266 22 321 208 
255 10 418 206 574 417 15 546 192 524 172 616 
256 11 97 263 112 457 583 626 634 514 397 576 554 
257 11 399 75 367 356 635 165 279 33 625 553 319 
258 11 158 250 102 518 613 45 279 308 494 477 75 
259 11 130 19 26 77 261 291 24 87 25 310 236 
260 11 135 72 224 301 358 50 119 608 217 115 56 
261 11 24 259 19 151 130 94 452 262 236 26 7 
262 11 151 13 28 91 19 85 7 167 261 26 24 
263 11 112 256 97 457 626 583 397 554 550 634 514 
264 11 555 38 482 180 425 598 438 612 121 545 603 
265 11 613 102 132 337 518 353 57 250 494 162 199 
266 11 321 186 62 276 203 208 284 163 52 109 340 
267 11 246 117 628 56 480 280 366 68 507 564 531 
268 11 155 60 325 34 59 51 515 73 476 378 630 
269 11 450 360 601 128 568 632 403 595 537 552 118 
270 11 507 527 364 88 599 586 228 107 14 538 564 
271 11 452 202 236 339 48 63 282 14 187 474 434 
272 11 198 125 609 201 557 495 567 498 189 419 485 
273 11 164 31 350 247 46 136 509 315 334 39 168 
274 11 295 234 525 89 116 144 143 311 141 79 2 
275 8 332 299 87 103 310 77 114 281 
276 11 186 321 52 352 62 266 284 61 163 298 149 
277 9 389 593 535 27 481 161 511 619 371 
278 11 219 84 307 233 152 285 194 210 357 11 292 
279 11 356 399 75 477 257 258 635 367 165 158 250 
280 11 366 531 411 458 564 538 107 3 599 453 105 
281 9 235 114 242 87 332 275 150 291 299 
282 11 63 228 202 527 14 271 48 270 339 181 214 
283 11 322 5 218 18 316 173 81 191 200 93 54 
284 11 61 52 149 340 276 109 266 252 186 304 321 
285 11 152 210 84 278 134 219 233 307 244 346 309 
286 8 231 240 377 320 317 508 573 15 
287 11 140 441 607 435 214 392 548 559 227 241 3 
288 8 326 253 588 380 137 156 190 20 
289 11 355 139 229 64 122 115 238 58 10 23 29 
290 11 617 144 178 305 388 116 4 79 234 66 274 
291 11 26 87 130 114 19 77 85 259 332 242 275 
292 11 357 196 639 194 349 84 152 134 219 177 278 
293 11 159 470 55 137 596 157 20 154 468 195 190 
294 9 602 623 505 99 368 383 536 553 589 
295 11 274 234 311 143 463 525 89 141 116 144 305 
296 10 188 622 433 437 141 497 445 374 169 604 
297 9 8 614 461 551 643 227 548 359 604 
298 11 16 533 352 98 431 230 104 422 549 563 145 
299 7 275 332 388 577 178 103 281 
300 11 167 7 37 344 386 94 237 341 151 28 40 
301 11 50 72 119 217 608 135 56 260 480 224 358 
302 11 86 529 581 249 467 466 594 587 100 391 189 
303 10 70 170 571 398 401 409 487 587 466 248 
304 10 109 215 340 203 447 149 208 284 616 232 
305 11 4 290 234 617 311 148 463 483 144 6 178 
306 11 504 345 197 315 168 136 53 316 54 191 31 
307 11 233 278 219 84 11 285 221 152 194 210 317 
308 11 45 536 518 324 589 162 613 99 110 132 432 
309 10 244 11 210 207 346 285 423 233 221 307 
310 11 25 103 77 79 275 116 332 89 525 144 130 
311 10 463 234 478 295 305 4 436 562 483 369 
312 11 414 41 387 610 74 615 621 394 496 492 642 
313 11 329 314 163 62 254 563 378 230 104 321 186 
314 11 329 313 254 378 163 476 62 563 90 104 230 
315 11 168 306 136 504 197 31 350 345 53 509 164 
316 11 191 173 54 81 322 5 283 93 53 218 504 
317 10 377 240 320 286 231 15 221 192 307 418 
318 11 29 58 185 223 10 147 43 243 23 330 238 
319 11 384 558 553 33 575 123 416 362 426 624 597 
320 9 377 231 286 240 508 15 192 524 317 
321 11 186 62 276 163 266 352 52 313 284 254 298 
322 11 283 81 173 191 316 5 18 54 200 218 222 
323 11 205 91 222 30 200 28 18 13 262 322 167 
324 11 589 536 432 110 162 308 45 519 342 518 245 
325 11 155 268 60 378 476 314 329 515 59 630 34 
326 9 288 380 156 253 588 137 395 195 190 
327 11 44 133 591 494 412 166 78 158 250 353 258 
328 8 17 490 182 584 561 485 582 498 
329 11 314 313 378 254 163 476 563 62 104 230 502 
330 11 96 347 185 243 434 147 68 88 29 14 23 
331 11 23 68 238 358 147 628 117 64 185 56 29 
332 9 275 87 299 114 291 281 77 103 310 
333 9 241 638 402 169 227 548 140 435 287 
334 10 46 209 101 509 247 350 213 164 211 642 
335 7 184 171 209 101 235 93 281 
336 11 544 370 419 373 522 82 428 363 338 462 108 
337 11 132 153 162 342 110 265 57 613 432 465 518 
338 11 462 363 543 539 544 370 82 374 445 336 373 
339 11 202 271 63 434 452 14 236 282 48 228 527 
340 11 109 304 149 284 215 447 203 266 61 252 52 
341 11 43 386 223 344 237 94 40 300 7 243 37 
342 11 110 432 162 519 324 337 132 153 589 245 464 
343 11 49 453 444 491 174 521 105 146 530 176 500 
344 11 386 237 40 341 37 43 300 223 167 7 94 
345 11 504 197 306 168 315 54 53 136 191 316 173 
346 10 423 207 348 244 526 21 210 633 285 134 
347 11 243 96 330 434 185 147 339 14 29 318 88 
348 11 423 526 346 21 207 633 142 244 408 35 542 
349 11 596 639 195 154 129 292 196 239 357 177 293 
350 11 164 509 31 315 168 101 273 334 136 209 46 
351 7 365 448 422 468 145 592 431 
352 11 276 52 186 298 321 532 98 62 61 163 16 
353 11 412 591 494 166 78 265 199 102 250 158 613 
354 7 427 600 424 502 104 570 630 
355 11 289 64 115 139 122 238 229 58 23 29 358 
356 11 257 399 279 75 367 635 165 477 625 33 258 
357 11 292 196 194 84 219 177 278 349 152 252 639 
358 11 135 331 72 260 301 50 56 115 628 117 23 
359 6 510 540 461 220 124 551 
360 11 632 537 269 450 425 568 128 601 180 438 603 
361 11 415 179 67 499 514 554 550 634 583 160 457 
362 11 597 624 123 472 376 426 590 131 575 113 585 
363 11 462 338 373 47 370 428 451 374 560 544 445 
364 11 599 586 507 107 538 564 270 214 527 3 366 
365 9 351 468 448 145 422 157 20 55 32 
366 11 280 531 411 564 538 107 3 458 599 364 507 
367 11 257 356 625 635 399 33 75 165 558 319 384 
368 10 113 383 376 390 123 362 449 623 572 585 
369 10 506 436 478 407 92 562 111 400 375 204 
370 10 336 544 373 419 428 363 522 82 462 338 
371 9 161 12 488 460 446 389 439 27 277 
372 7 439 446 12 469 176 488 371 
373 10 428 370 363 336 544 413 560 606 47 454 
374 11 445 497 451 47 512 204 560 363 375 400 462 
375 11 512 111 560 47 400 451 92 204 456 379 374 
376 11 113 362 390 585 368 472 123 449 597 131 619 
377 8 320 286 240 231 317 15 508 192 
378 11 476 329 314 313 325 254 563 630 515 60 502 
379 8 413 606 456 479 111 560 92 428 
380 9 156 395 326 401 288 520 195 253 129 
381 11 464 557 245 611 609 125 567 519 627 396 272 
382 8 440 405 618 220 578 124 540 510 
383 6 368 390 113 376 623 449 
384 11 558 319 416 575 33 123 553 426 471 624 406 
385 11 532 154 157 98 470 239 159 55 145 293 596 
386 11 344 237 40 341 43 37 300 223 7 167 94 
387 11 41 312 615 496 492 414 65 610 74 621 642 
388 9 178 617 577 66 290 641 299 541 6 
389 9 27 277 161 371 481 488 593 12 535 
390 8 449 113 572 376 368 383 585 619 
391 10 108 189 522 201 419 467 454 495 336 529 
392 4 559 607 441 140 
393 11 251 142 35 542 408 183 442 76 566 612 121 
394 9 74 621 610 312 414 473 615 41 387 
395 10 520 156 380 401 129 487 195 248 326 303 
396 11 567 126 467 495 557 381 201 464 100 547 189 
397 10 626 112 256 576 97 263 569 573 583 457 
398 9 170 587 409 571 70 303 466 249 581 
399 11 75 257 356 635 279 165 367 99 258 33 477 
400 11 204 375 512 92 451 111 47 497 369 560 374 
401 10 303 395 380 571 70 520 156 487 409 170 
402 9 333 638 437 241 169 433 181 2 296 
403 11 637 486 484 465 601 552 269 128 566 442 421 
404 8 69 175 406 471 226 631 493 625 
405 8 382 440 618 220 124 540 578 510 
406 10 471 631 416 226 558 175 384 69 33 575 
407 8 506 436 562 369 478 92 479 111 
408 11 542 35 183 393 251 142 594 100 526 21 633 
409 6 571 398 170 303 587 70 
410 6 561 488 618 446 439 12 
411 11 531 366 3 564 280 538 107 599 458 441 444 
412 11 591 353 494 166 78 327 44 158 250 102 265 
413 8 606 379 456 479 428 560 111 373 
414 11 312 74 41 387 610 394 621 570 630 615 600 
415 11 361 514 634 179 67 554 550 443 499 583 172 
416 11 558 384 471 575 406 631 319 33 426 226 624 
417 9 206 255 574 418 616 215 193 546 15 
418 9 255 206 574 417 15 192 546 524 172 
419 11 336 522 544 370 108 189 391 82 201 373 272 
420 11 517 459 429 539 543 82 578 643 490 584 614 
421 11 57 465 637 42 534 595 403 528 450 118 269 
422 9 448 145 431 351 365 98 549 455 533 
423 10 346 207 348 526 21 244 633 210 285 309 
424 9 502 104 427 230 354 563 600 533 16 
425 11 555 537 180 632 264 438 360 603 121 38 612 
426 11 624 590 597 106 575 362 472 131 212 123 511 
427 7 354 424 502 600 104 230 563 
428 9 373 413 606 370 363 560 379 454 47 
429 10 517 578 420 459 124 490 382 440 539 220 
430 10 513 127 580 95 501 232 193 160 616 22 
431 7 549 422 455 533 16 448 145 
432 11 110 519 342 324 589 162 245 464 536 132 308 
433 9 622 296 169 604 188 437 445 497 141 
434 11 14 339 96 88 202 330 347 63 271 282 527 
435 11 214 638 287 140 241 586 228 333 364 107 599 
436 8 369 478 562 506 407 92 111 463 
437 9 2 141 296 188 433 402 622 143 169 
438 11 180 603 121 612 128 38 76 425 566 601 264 
439 8 446 372 12 488 371 460 161 410 
440 8 382 618 405 220 578 124 540 510 
441 10 3 392 287 559 607 411 140 444 538 107 
442 11 566 76 552 128 484 601 603 121 486 612 438 
443 10 172 508 524 192 415 15 361 514 569 634 
444 11 453 343 174 105 49 521 458 411 531 491 441 
445 11 374 497 622 451 47 512 204 363 462 296 188 
446 8 439 12 372 488 371 161 460 410 
447 11 149 215 340 304 546 109 252 574 284 177 417 
448 9 422 145 351 365 431 98 549 455 468 
449 6 572 390 619 113 376 585 
450 11 568 269 118 595 360 42 528 632 537 601 403 
451 11 47 512 560 374 375 204 445 497 400 363 111 
452 11 236 271 48 339 202 63 187 474 83 282 579 
453 11 444 343 105 49 174 458 491 531 521 411 530 
454 8 522 428 391 373 606 413 587 108 
455 4 549 431 533 16 
456 9 379 413 479 606 111 92 560 375 512 
457 11 583 97 256 550 263 554 67 112 514 634 361 
458 11 105 531 280 453 366 411 444 530 480 491 644 
459 11 539 420 429 643 517 614 543 551 578 8 124 
460 5 161 371 12 446 439 
461 8 551 297 8 359 614 124 510 540 
462 11 338 363 543 374 445 544 370 539 373 336 47 
463 9 311 478 234 562 436 483 305 4 369 
464 11 245 381 519 611 557 432 609 627 125 110 589 
465 11 637 421 403 486 57 484 36 153 42 269 595 
466 10 249 581 398 587 170 70 86 409 303 571 
467 11 495 189 201 108 391 529 567 86 396 522 302 
468 11 20 365 55 190 137 351 32 157 470 159 293 
469 6 176 372 521 500 49 640 
470 11 159 55 157 293 137 468 596 154 385 20 365 
471 10 406 631 416 226 558 175 384 575 33 69 
472 11 131 511 597 585 590 362 624 106 426 212 376 
473 3 394 74 621 
474 11 83 579 187 48 181 236 271 452 63 282 202 
475 10 644 530 491 146 105 516 608 620 458 217 
476 11 378 630 570 515 600 329 502 60 314 563 104 
477 11 279 356 258 133 399 158 75 250 257 327 44 
478 8 436 562 369 506 407 463 311 92 
479 6 456 379 606 111 413 92 
480 11 217 56 117 458 644 50 267 628 301 280 475 
481 8 619 27 277 389 572 593 449 585 
482 10 598 545 264 555 38 633 425 180 612 121 
483 9 148 4 588 463 305 253 311 32 190 
484 11 486 403 552 442 566 637 601 76 128 36 465 
485 11 498 17 584 490 198 582 609 125 328 627 182 
486 11 484 403 637 36 552 442 465 566 601 76 128 
487 11 248 70 520 303 401 395 170 129 398 571 466 
488 9 12 371 446 27 439 161 410 389 561 
489 11 492 496 65 225 387 615 41 73 120 51 642 
490 9 584 17 328 498 517 485 429 578 182 
491 11 146 530 49 105 343 500 640 453 475 444 644 
492 11 496 489 387 41 51 225 65 615 73 312 34 
493 8 503 226 175 631 212 106 590 471 
494 11 412 591 353 158 250 102 166 327 78 44 265 
495 11 201 567 189 467 557 108 272 391 125 396 522 
496 11 492 387 41 489 615 51 65 312 225 59 73 
497 11 445 374 204 451 622 512 188 47 400 296 375 
498 11 584 485 17 490 198 517 328 125 609 272 420 
499 11 179 67 361 550 160 554 415 514 634 583 457 
500 7 640 146 516 491 49 469 343 
501 9 193 580 616 95 513 160 232 430 417 
502 9 424 104 427 354 563 600 230 476 570 
503 8 493 226 212 631 106 175 535 590 
504 11 306 345 197 168 315 53 136 316 54 191 173 
505 11 602 99 294 553 623 368 165 123 319 383 635 
506 11 369 407 436 92 111 562 478 479 456 375 400 
507 11 364 599 270 107 586 564 538 527 366 88 411 
508 10 443 524 192 172 15 320 415 569 573 231 
509 11 350 101 209 334 164 168 315 171 46 31 53 
510 4 540 359 220 124 
511 10 131 472 585 535 593 619 106 212 590 597 
512 11 451 47 375 560 204 400 374 111 92 497 445 
513 10 430 580 127 95 501 160 193 232 616 499 
514 11 634 554 583 415 361 550 67 97 576 457 569 
515 11 630 570 59 60 476 600 414 34 51 312 378 
516 3 640 500 146 
517 10 429 420 459 490 578 584 539 498 543 82 
518 11 45 613 308 102 132 162 258 250 265 324 158 
519 11 432 245 464 110 342 589 324 381 162 536 611 
520 10 395 129 156 487 248 401 380 195 303 70 
521 7 174 176 343 49 444 469 453 
522 10 391 108 419 189 336 454 370 201 544 373 
523 11 138 547 36 126 153 100 486 484 183 251 637 
524 9 192 172 443 508 15 206 415 320 418 
525 11 89 143 116 274 2 79 144 295 25 103 141 
526 11 21 348 423 346 408 633 605 35 207 542 142 
527 11 270 228 282 14 507 364 586 88 599 63 214 
528 11 118 42 595 568 534 450 71 269 421 360 632 
529 11 86 581 302 467 249 391 466 108 189 454 587 
530 11 491 105 146 475 644 49 343 458 453 500 640 
531 11 280 366 411 458 564 3 538 453 444 107 105 
532 11 385 98 352 145 157 154 239 52 61 470 298 
533 9 16 431 549 298 455 424 230 104 422 
534 11 42 71 528 595 421 199 118 57 568 450 465 
535 10 593 511 212 277 131 106 472 585 590 619 
536 11 589 308 324 99 45 294 602 623 505 432 162 
537 11 632 360 425 180 269 450 555 438 603 128 568 
538 11 107 564 599 364 586 3 411 507 366 531 280 
539 11 459 543 643 420 338 614 429 517 462 8 82 
540 5 510 220 359 124 405 
541 4 577 556 66 641 
542 11 35 408 183 393 251 142 594 100 547 633 526 
543 11 539 82 338 420 462 459 544 517 643 336 429 
544 11 336 370 419 82 373 363 338 462 522 428 543 
545 10 598 482 264 555 38 425 633 180 612 438 
546 10 574 447 255 418 417 215 206 304 149 194 
547 11 523 126 138 100 36 183 594 251 393 542 35 
548 7 227 140 607 297 559 241 461 
549 5 455 431 533 16 422 
550 11 554 67 583 457 514 361 634 179 499 97 415 
551 8 461 614 8 297 124 643 359 220 
552 11 566 76 442 128 601 484 603 121 486 403 438 
553 11 319 505 123 384 558 33 165 99 575 602 368 
554 11 550 67 583 514 361 457 634 179 97 499 415 
555 11 425 264 180 38 438 537 482 598 121 632 545 
556 3 541 641 66 
557 11 567 381 125 495 609 272 201 464 198 396 611 
558 11 384 416 319 33 575 471 406 123 426 553 631 
559 5 607 392 548 140 441 
560 11 47 451 512 375 413 456 111 606 379 374 428 
561 7 410 488 27 618 328 389 440 
562 7 436 478 407 369 506 463 92 
563 11 104 230 502 424 313 427 16 329 600 163 354 
564 11 538 107 366 599 411 364 507 3 280 531 586 
565 11 605 248 487 21 134 302 526 249 466 594 70 
566 11 76 442 552 128 601 603 484 121 438 612 486 
567 11 495 557 201 467 272 396 189 125 381 609 108 
568 11 118 450 595 528 42 269 360 632 537 534 421 
569 9 573 576 634 514 97 415 256 397 583 
570 11 630 515 600 414 476 354 59 427 502 312 60 
571 7 409 303 398 170 70 587 401 
572 5 449 390 619 481 113 
573 9 569 576 634 514 397 97 415 508 256 
574 10 255 546 418 417 206 447 215 15 616 304 
575 11 426 624 384 416 597 362 590 123 558 319 106 
576 9 569 573 634 514 97 256 397 583 626 
577 7 388 541 66 178 641 617 556 
578 9 382 429 440 124 405 220 618 517 459 
579 11 474 83 181 187 48 2 402 236 143 271 452 
580 9 513 95 501 430 193 232 127 616 160 
581 9 249 86 466 529 587 398 302 170 454 
582 5 182 17 572 627 485 
583 11 457 97 554 550 256 514 634 67 263 361 112 
584 10 490 498 17 485 328 517 429 182 198 582 
585 9 619 511 472 131 376 113 362 449 390 
586 11 364 599 107 538 507 214 564 270 3 527 435 
587 8 398 466 170 249 409 581 571 70 
588 9 253 288 190 137 326 20 483 148 32 
589 11 324 536 432 110 519 308 162 245 294 342 45 
590 11 426 106 624 597 131 472 212 362 575 511 585 
591 11 412 166 78 494 353 327 44 158 250 102 133 
592 4 351 32 365 6 
593 9 535 277 511 619 131 212 585 389 472 
594 11 100 183 408 542 35 126 547 251 393 302 605 
595 11 42 118 528 568 450 534 269 421 360 403 637 
596 11 195 293 159 154 470 55 349 137 157 156 129 
597 11 624 426 590 362 472 131 106 575 123 511 376 
598 10 482 545 264 555 38 425 633 180 612 438 
599 11 364 107 538 586 507 564 270 3 366 411 214 
600 9 354 427 502 570 630 424 476 515 104 
601 11 128 552 566 76 442 269 603 484 403 438 121 
602 9 294 505 99 623 553 368 383 536 123 
603 11 438 121 180 612 128 76 566 552 601 442 38 
604 9 169 433 622 643 8 297 614 296 539 
605 11 565 21 526 594 134 248 408 302 183 542 35 
606 8 413 379 456 479 428 560 111 373 
607 6 559 392 548 140 227 287 
608 11 119 620 301 50 80 217 644 72 475 224 636 
609 11 125 198 272 611 557 627 485 381 498 567 464 
610 10 621 74 394 312 615 414 41 387 642 473 
611 7 627 609 381 125 245 464 485 
612 11 121 438 603 38 180 76 128 566 264 442 552 
613 11 102 518 265 132 45 250 158 308 258 162 337 
614 9 8 643 297 551 461 459 539 124 359 
615 11 41 387 65 312 642 610 496 621 74 211 492 
616 9 193 232 501 417 95 580 215 206 304 
617 10 178 290 388 66 305 6 641 4 577 144 
618 7 440 382 405 220 578 124 540 
619 9 585 511 449 481 131 572 472 593 390 
620 8 636 80 216 608 629 119 475 516 
621 10 610 394 74 312 615 414 473 41 642 387 
622 10 433 296 188 445 497 604 374 169 437 141 
623 8 294 602 383 505 368 99 113 536 
624 11 426 597 590 362 575 106 472 131 123 212 511 
625 11 69 406 33 471 367 558 416 404 384 631 319 
626 11 397 112 256 263 97 576 457 583 569 573 634 
627 5 611 582 609 485 125 
628 11 117 267 56 246 68 480 331 217 50 358 280 
629 4 216 636 620 80 
630 11 570 515 600 476 414 354 59 502 427 60 312 
631 10 226 471 406 416 493 503 175 426 575 106 
632 11 537 360 425 269 180 450 438 128 555 603 601 
633 11 142 38 348 482 264 612 598 393 423 121 35 
634 11 514 583 415 554 361 550 97 576 67 569 457 
635 11 165 75 257 399 553 367 99 505 33 319 356 
636 5 620 216 629 80 516 
637 11 403 465 486 484 421 601 269 552 36 442 566 
638 9 241 333 435 402 140 287 227 548 169 
639 11 129 349 292 520 248 134 195 487 395 596 357 
640 5 500 146 516 491 49 
641 9 66 6 556 577 617 388 178 541 592 
642 11 211 65 615 610 621 41 387 312 74 394 213 
643 11 614 8 539 297 459 551 461 604 420 543 124 
644 11 475 530 105 217 491 608 480 146 119 458 620 
DEPOT_SECTION
   1
   -1
EOF
