NAME :  X-n716-kX-w286-c11.cctp
COMMENT : 	Adapted by Maziero, Usberti and Cavellucci from the Uchoa, Pecin, Pessoa, Poggi, Subramanian, and Vidal (2013)
TYPE :  CCTP
DIMENSION :    716
EDGE_WEIGHT_TYPE : 	EUC_2D	
CAPACITY : 	1007
VERTICES_WITHIN_COVERAGE :  11
VERTICES_WITH_DEMAND : 	286
NODE_COORD_SECTION
1 377 105
2 535 93
3 820 625
4 689 745
5 807 568
6 589 169
7 649 756
8 821 693
9 567 240
10 517 211
11 598 141
12 903 670
13 713 679
14 574 89
15 395 116
16 829 560
17 409 30
18 804 653
19 918 527
20 829 641
21 828 559
22 559 118
23 591 816
24 985 650
25 510 71
26 528 66
27 556 132
28 568 115
29 692 731
30 877 663
31 703 728
32 820 568
33 716 754
34 790 391
35 613 71
36 898 518
37 838 501
38 465 142
39 440 163
40 859 635
41 907 620
42 532 157
43 791 140
44 463 11
45 894 947
46 883 591
47 718 559
48 697 747
49 928 495
50 877 488
51 732 699
52 747 648
53 541 167
54 801 767
55 817 673
56 495 114
57 853 634
58 769 733
59 592 630
60 481 157
61 832 750
62 630 650
63 858 405
64 774 793
65 393 33
66 918 650
67 842 625
68 781 709
69 670 731
70 698 682
71 888 510
72 691 227
73 607 583
74 684 755
75 719 538
76 561 258
77 657 827
78 712 85
79 686 764
80 620 4
81 801 588
82 802 595
83 651 724
84 558 156
85 679 745
86 815 769
87 466 111
88 544 45
89 884 664
90 720 830
91 700 661
92 765 754
93 525 725
94 486 50
95 743 668
96 765 682
97 679 662
98 677 739
99 821 657
100 678 742
101 627 767
102 597 221
103 484 73
104 709 772
105 738 931
106 564 124
107 619 81
108 841 603
109 807 381
110 817 571
111 822 587
112 547 622
113 768 501
114 676 748
115 861 546
116 981 603
117 671 700
118 954 787
119 506 265
120 535 190
121 711 647
122 951 510
123 673 817
124 664 807
125 568 712
126 802 650
127 813 632
128 752 771
129 541 571
130 649 901
131 782 710
132 734 199
133 626 25
134 459 77
135 708 753
136 896 709
137 516 250
138 724 727
139 717 623
140 621 24
141 813 655
142 606 693
143 717 802
144 341 76
145 390 94
146 533 205
147 731 603
148 628 35
149 871 644
150 953 650
151 972 653
152 911 704
153 426 136
154 462 6
155 737 617
156 799 558
157 856 548
158 426 177
159 650 737
160 698 750
161 677 68
162 882 489
163 500 9
164 706 709
165 555 389
166 676 409
167 618 687
168 724 495
169 526 133
170 769 171
171 813 596
172 493 12
173 569 840
174 800 914
175 814 628
176 761 651
177 449 703
178 444 124
179 459 88
180 780 712
181 743 689
182 671 749
183 780 634
184 666 798
185 757 743
186 935 662
187 703 732
188 446 133
189 840 701
190 716 790
191 689 226
192 544 125
193 719 724
194 542 166
195 698 689
196 763 420
197 791 644
198 526 115
199 688 744
200 641 803
201 913 536
202 773 597
203 704 820
204 703 717
205 883 666
206 812 727
207 695 972
208 483 119
209 458 155
210 569 802
211 818 695
212 680 669
213 645 788
214 431 259
215 604 723
216 702 777
217 777 847
218 849 641
219 793 567
220 785 663
221 892 555
222 328 354
223 494 71
224 723 547
225 817 501
226 630 116
227 682 664
228 654 801
229 770 590
230 819 644
231 440 119
232 568 904
233 825 582
234 805 573
235 619 286
236 444 89
237 734 438
238 455 238
239 802 575
240 531 665
241 611 583
242 882 653
243 629 743
244 432 156
245 941 611
246 654 19
247 827 604
248 517 50
249 673 241
250 873 575
251 805 702
252 538 133
253 873 905
254 382 39
255 572 101
256 724 757
257 659 792
258 724 720
259 696 688
260 528 89
261 841 589
262 458 136
263 399 884
264 474 156
265 395 137
266 464 23
267 787 798
268 449 182
269 472 104
270 558 0
271 719 534
272 826 574
273 510 126
274 564 190
275 576 211
276 827 635
277 531 155
278 553 135
279 586 5
280 532 92
281 539 408
282 571 678
283 524 221
284 831 657
285 715 782
286 573 132
287 941 698
288 501 712
289 786 9
290 397 88
291 528 185
292 614 113
293 370 164
294 722 24
295 676 561
296 810 607
297 839 712
298 791 642
299 565 17
300 906 703
301 497 60
302 897 655
303 933 544
304 905 584
305 796 690
306 619 848
307 426 263
308 560 205
309 794 660
310 500 633
311 777 677
312 701 755
313 538 23
314 439 226
315 659 216
316 479 165
317 762 652
318 635 649
319 603 716
320 469 60
321 961 442
322 830 674
323 906 771
324 610 158
325 908 677
326 380 165
327 644 481
328 582 14
329 724 774
330 898 676
331 647 742
332 523 98
333 685 113
334 848 868
335 981 544
336 676 692
337 680 745
338 645 758
339 557 68
340 757 755
341 686 747
342 799 670
343 516 261
344 507 53
345 785 686
346 672 53
347 495 73
348 617 30
349 375 182
350 398 104
351 587 644
352 632 164
353 687 765
354 530 37
355 656 509
356 708 738
357 670 841
358 420 201
359 832 651
360 669 756
361 693 707
362 834 40
363 790 543
364 456 235
365 971 447
366 758 803
367 762 602
368 578 210
369 721 751
370 708 762
371 622 645
372 701 683
373 537 199
374 820 588
375 734 650
376 841 717
377 488 202
378 741 780
379 788 773
380 991 514
381 640 746
382 849 646
383 879 660
384 865 695
385 697 803
386 537 90
387 478 251
388 652 757
389 589 6
390 588 132
391 832 604
392 553 791
393 863 485
394 722 716
395 811 641
396 477 61
397 653 665
398 943 769
399 417 157
400 577 15
401 623 524
402 917 694
403 894 565
404 563 48
405 732 557
406 877 596
407 520 80
408 746 900
409 719 547
410 785 617
411 833 635
412 682 720
413 708 619
414 717 744
415 576 805
416 724 645
417 624 678
418 420 66
419 684 762
420 603 661
421 565 102
422 658 696
423 657 772
424 685 550
425 420 118
426 611 73
427 477 191
428 739 646
429 696 742
430 680 629
431 499 127
432 630 1
433 458 130
434 814 606
435 703 731
436 540 79
437 704 774
438 794 695
439 809 734
440 636 81
441 667 716
442 866 744
443 908 653
444 537 119
445 592 805
446 805 793
447 615 727
448 611 127
449 579 90
450 854 854
451 524 75
452 758 738
453 489 114
454 494 94
455 737 606
456 528 65
457 547 656
458 559 88
459 522 61
460 482 815
461 488 816
462 817 608
463 890 512
464 678 165
465 995 478
466 544 195
467 757 607
468 814 524
469 801 670
470 901 581
471 709 580
472 924 348
473 945 660
474 607 77
475 734 731
476 695 744
477 648 914
478 516 34
479 531 66
480 400 777
481 709 609
482 854 545
483 739 759
484 850 405
485 745 749
486 956 623
487 674 735
488 522 149
489 767 665
490 668 719
491 700 119
492 856 825
493 884 343
494 738 650
495 704 884
496 686 655
497 669 715
498 613 404
499 839 634
500 673 770
501 458 198
502 535 155
503 681 673
504 612 153
505 680 186
506 508 183
507 617 696
508 854 424
509 752 788
510 609 792
511 815 832
512 727 873
513 682 693
514 539 196
515 657 736
516 621 216
517 747 614
518 786 784
519 941 669
520 629 62
521 799 640
522 512 85
523 790 810
524 659 773
525 814 655
526 723 624
527 904 688
528 614 81
529 766 472
530 622 737
531 746 775
532 724 690
533 553 87
534 488 46
535 728 755
536 629 541
537 545 91
538 683 771
539 759 838
540 770 472
541 828 706
542 947 526
543 571 297
544 891 583
545 617 861
546 909 572
547 473 73
548 684 261
549 857 723
550 949 759
551 549 106
552 771 552
553 776 859
554 669 741
555 607 102
556 496 70
557 681 708
558 624 784
559 548 78
560 864 673
561 952 875
562 651 752
563 709 747
564 724 748
565 266 39
566 625 743
567 894 666
568 928 560
569 666 620
570 707 731
571 511 817
572 622 699
573 779 670
574 805 653
575 714 810
576 912 739
577 652 689
578 620 693
579 508 130
580 773 560
581 528 154
582 653 486
583 534 55
584 453 106
585 820 653
586 707 784
587 816 606
588 618 298
589 798 672
590 720 862
591 614 45
592 493 26
593 747 740
594 757 655
595 504 689
596 845 653
597 551 125
598 734 628
599 705 719
600 463 8
601 680 929
602 678 618
603 576 77
604 574 577
605 478 93
606 624 110
607 801 601
608 716 610
609 924 825
610 692 799
611 490 168
612 644 822
613 569 6
614 757 397
615 873 635
616 629 137
617 623 728
618 723 618
619 778 727
620 701 727
621 655 71
622 878 620
623 629 757
624 834 753
625 883 622
626 582 30
627 852 520
628 828 545
629 737 691
630 698 610
631 660 626
632 710 688
633 725 765
634 653 735
635 724 719
636 829 553
637 783 886
638 635 6
639 853 652
640 759 729
641 598 56
642 731 454
643 699 762
644 931 436
645 877 690
646 646 849
647 672 660
648 692 743
649 733 600
650 782 574
651 723 64
652 479 75
653 560 127
654 418 158
655 610 838
656 406 120
657 509 118
658 645 98
659 627 101
660 852 709
661 999 816
662 793 527
663 742 669
664 616 172
665 458 301
666 700 223
667 747 764
668 677 767
669 654 102
670 687 680
671 902 705
672 529 653
673 769 686
674 810 979
675 891 663
676 836 883
677 917 552
678 580 241
679 828 605
680 650 340
681 845 598
682 494 195
683 903 617
684 652 236
685 957 745
686 720 631
687 573 182
688 716 702
689 698 762
690 535 124
691 480 176
692 661 559
693 520 195
694 887 583
695 536 133
696 609 48
697 533 641
698 929 673
699 906 679
700 721 79
701 887 598
702 634 37
703 990 612
704 927 659
705 654 624
706 552 100
707 846 570
708 658 676
709 525 68
710 892 591
711 462 157
712 909 770
713 649 951
714 863 795
715 619 603
716 869 503
DEMAND_SECTION
2 47
3 21
4 19
5 37
6 40
7 79
8 60
9 88
10 84
11 75
12 12
13 42
14 21
15 91
16 6
17 57
18 7
19 66
20 7
21 99
22 75
23 4
24 85
25 10
26 29
27 6
28 20
29 7
30 50
31 26
32 29
33 99
34 45
35 57
36 14
37 33
38 2
39 38
40 43
41 64
42 85
43 84
44 46
45 53
46 45
47 48
48 48
49 85
50 60
51 2
52 17
53 12
54 99
55 43
56 40
57 29
58 13
59 29
60 26
61 66
62 45
63 34
64 33
65 6
66 72
67 34
68 16
69 36
70 69
71 10
72 10
73 12
74 97
75 87
76 24
77 57
78 17
79 86
80 76
81 81
82 30
83 10
84 36
85 28
86 41
87 53
88 7
89 40
90 46
91 28
92 28
93 62
94 51
95 30
96 98
97 53
98 5
99 15
100 27
101 37
102 68
103 11
104 14
105 71
106 97
107 49
108 50
109 43
110 65
111 19
112 42
113 88
114 96
115 57
116 65
117 36
118 28
119 50
120 38
121 84
122 8
123 69
124 29
125 86
126 99
127 29
128 78
129 79
130 23
131 68
132 50
133 26
134 26
135 57
136 10
137 84
138 64
139 35
140 27
141 3
142 18
143 63
144 100
145 45
146 35
147 7
148 7
149 29
150 90
151 49
152 86
153 100
154 75
155 18
156 32
157 29
158 15
159 47
160 26
161 27
162 4
163 57
164 88
165 94
166 73
167 64
168 49
169 89
170 76
171 13
172 57
173 27
174 4
175 34
176 2
177 93
178 27
179 26
180 67
181 95
182 54
183 67
184 5
185 31
186 26
187 40
188 40
189 81
190 27
191 100
192 96
193 35
194 26
195 48
196 45
197 31
198 36
199 46
200 85
201 29
202 11
203 46
204 44
205 5
206 51
207 47
208 2
209 72
210 48
211 81
212 47
213 26
214 48
215 18
216 47
217 15
218 39
219 1
220 57
221 34
222 65
223 3
224 40
225 46
226 66
227 7
228 23
229 29
230 44
231 21
232 72
233 44
234 46
235 1
236 91
237 29
238 86
239 18
240 53
241 24
242 78
243 36
244 50
245 13
246 1
247 19
248 66
249 95
250 92
251 67
252 85
253 77
254 56
255 71
256 11
257 99
258 4
259 100
260 26
261 78
262 24
263 2
264 61
265 73
266 62
267 43
268 1
269 89
270 39
271 63
272 8
273 89
274 94
275 57
276 79
277 46
278 41
279 85
280 15
281 10
282 64
283 2
284 27
285 1
286 28
287 21
COVERAGE_SECTION
2 11 280 386 260 537 332 436 706 533 551 407 559 
3 11 175 127 276 411 462 20 395 230 587 434 296 
4 11 199 341 648 476 48 429 337 85 160 74 100 
5 11 234 239 110 32 156 219 272 81 16 21 233 
6 11 687 324 664 504 11 274 84 390 286 368 352 
7 11 388 338 562 381 331 423 159 360 524 623 634 
8 11 211 541 251 55 189 322 305 297 438 469 376 
9 11 678 76 275 368 102 308 283 146 274 373 466 
10 11 283 693 146 373 514 120 291 682 506 377 466 
11 11 390 504 448 324 286 6 616 292 664 106 28 
12 11 330 325 699 567 675 302 443 527 89 205 66 
13 11 632 372 70 532 195 259 91 688 670 629 51 
14 11 449 255 603 458 421 533 706 28 339 559 537 
15 11 350 656 265 145 425 290 153 231 399 654 178 
16 11 21 636 32 272 628 110 707 233 5 234 111 
17 11 65 254 418 266 44 154 600 290 145 320 134 
18 11 574 126 141 525 309 395 521 197 585 99 230 
19 11 201 36 303 677 542 463 49 71 568 122 221 
20 11 276 411 230 359 499 585 284 3 99 127 395 
21 11 16 636 32 628 272 110 707 5 233 234 111 
22 11 106 28 653 597 27 551 192 421 278 706 286 
23 11 445 415 210 655 510 173 306 392 558 200 545 
24 11 151 150 703 486 473 116 519 186 245 704 698 
25 11 407 522 556 347 451 709 223 459 301 344 26 
26 11 456 479 709 459 451 583 407 436 25 248 260 
27 11 278 653 597 106 22 192 286 252 695 28 690 
28 11 22 106 421 653 255 286 597 27 551 706 278 
29 11 620 31 187 435 429 648 476 4 199 412 570 
30 11 383 89 205 242 675 560 567 149 302 330 639 
31 11 620 435 187 570 599 29 204 356 193 429 476 
32 11 110 272 16 21 5 233 234 636 111 239 374 
33 11 369 135 256 414 563 564 370 535 633 312 160 
34 11 109 614 196 484 63 508 237 540 529 642 493 
35 11 426 474 528 107 520 641 696 440 591 555 659 
36 11 463 71 19 201 162 716 50 221 49 677 303 
37 11 225 627 393 716 468 50 628 162 482 157 71 
38 11 262 433 209 711 264 188 60 316 178 208 87 
39 11 244 158 209 268 654 711 399 153 188 262 38 
40 11 57 218 615 149 382 639 67 499 596 622 411 
41 11 683 625 622 701 66 443 710 245 302 304 615 
42 11 277 502 581 53 194 488 695 169 252 84 291 
43 11 170 132 491 700 78 651 333 362 464 505 666 
44 11 600 154 266 172 592 163 534 94 320 396 17 
45 11 253 676 674 334 561 174 450 609 637 492 511 
46 11 406 701 694 710 544 250 470 304 403 622 625 
47 11 409 224 405 75 471 271 424 295 649 147 455 
48 11 160 476 429 648 4 199 312 341 563 135 356 
49 11 122 19 542 36 463 71 201 162 303 50 677 
50 11 162 393 716 71 463 36 37 627 49 19 115 
51 11 629 532 181 688 394 258 635 632 13 164 193 
52 11 428 494 594 375 176 317 95 663 416 598 489 
53 11 194 42 502 277 581 84 291 120 488 466 514 
54 11 86 379 518 446 267 439 61 624 64 92 206 
55 11 322 99 469 141 342 525 589 8 585 284 211 
56 11 453 208 431 657 273 454 579 269 605 87 198 
57 11 40 218 382 67 499 639 411 615 149 596 20 
58 11 619 640 452 185 92 593 180 340 131 68 485 
59 11 351 420 371 715 62 112 318 73 241 282 457 
60 11 264 316 611 691 711 38 209 262 427 431 433 
61 11 624 86 439 206 376 54 442 549 297 541 660 
62 11 318 371 397 417 420 705 631 708 167 59 351 
63 11 484 508 109 493 34 644 393 50 162 472 196 
64 11 267 518 366 509 523 379 128 446 531 378 54 
65 11 254 17 418 290 145 144 350 266 44 154 600 
66 11 443 704 186 302 12 698 325 473 567 519 675 
67 11 499 411 57 218 276 40 20 3 108 382 391 
68 11 131 180 619 438 345 305 251 673 58 640 96 
69 11 487 554 98 490 100 515 441 412 497 85 337 
70 11 372 259 195 670 632 13 503 513 91 212 227 
71 11 463 36 716 162 50 19 393 201 627 49 115 
72 11 191 666 249 315 548 684 505 132 464 516 352 
73 11 241 715 604 536 59 692 401 705 351 371 129 
74 11 419 341 79 353 4 85 114 337 199 100 182 
75 11 271 409 224 47 405 424 168 471 295 552 580 
76 11 9 678 543 343 137 275 368 102 283 308 119 
77 11 612 123 357 124 646 228 200 184 257 213 306 
78 11 700 651 491 161 333 346 621 669 294 658 440 
79 11 353 419 538 74 668 689 643 500 312 341 160 
80 11 432 638 140 133 348 389 148 279 702 246 328 
81 11 82 239 607 171 234 374 5 111 296 219 434 
82 11 607 81 171 296 434 587 374 239 462 111 234 
83 11 634 159 515 331 441 490 69 497 381 487 554 
84 11 194 53 278 502 27 42 277 286 653 252 581 
85 11 337 100 114 98 341 182 199 4 74 487 554 
86 11 54 61 624 446 379 518 439 267 206 64 523 
87 11 269 584 208 433 605 453 179 178 262 231 56 
88 11 583 354 404 313 479 26 339 456 248 459 478 
89 11 205 383 30 675 567 242 302 330 12 560 149 
90 11 203 575 143 590 385 190 539 610 512 366 285 
91 11 496 121 227 70 97 13 212 372 503 670 259 
92 11 340 185 452 58 128 485 667 593 483 640 531 
93 11 288 595 125 240 282 392 457 672 177 215 319 
94 11 534 396 301 320 344 223 556 103 347 592 547 
95 11 663 494 594 52 375 181 428 489 629 176 317 
96 11 673 311 489 573 345 181 95 663 220 594 629 
97 11 227 212 647 496 503 670 91 708 397 70 336 
98 11 100 487 85 337 554 114 69 182 199 341 4 
99 11 585 525 141 284 230 359 55 574 18 20 322 
100 11 85 98 337 114 487 341 554 182 199 4 69 
101 11 623 558 338 243 566 7 381 388 213 562 423 
102 11 368 275 516 678 9 308 274 687 76 6 664 
103 11 652 223 347 547 556 396 301 320 605 94 454 
104 11 437 216 370 285 586 643 329 689 633 33 135 
105 11 408 495 601 207 512 174 637 590 553 674 713 
106 11 653 22 28 27 286 597 278 192 421 551 255 
107 11 528 426 35 474 440 520 659 555 606 658 292 
108 11 681 391 679 247 261 67 111 462 587 233 374 
109 11 34 484 614 63 196 508 493 237 540 529 642 
110 11 32 272 5 234 233 16 21 239 111 374 156 
111 11 374 233 171 272 110 247 32 261 679 391 587 
112 11 697 457 672 59 240 351 310 129 604 282 420 
113 11 529 540 662 168 363 225 468 552 271 580 642 
114 11 85 182 337 100 98 341 554 74 360 4 199 
115 11 157 482 627 707 250 221 628 636 16 21 403 
116 11 703 486 245 24 151 150 335 473 568 186 41 
117 11 336 513 557 422 497 441 490 577 361 412 670 
118 11 398 550 685 609 712 323 661 576 561 287 714 
119 11 343 137 387 283 10 76 238 364 665 9 146 
120 11 514 291 373 466 146 693 53 194 10 506 274 
121 11 416 91 686 375 139 496 526 494 413 428 598 
122 11 542 49 19 303 380 335 201 36 465 677 568 
123 11 124 77 184 357 228 610 385 257 612 203 200 
124 11 184 228 123 257 77 200 612 213 610 385 524 
125 11 282 319 215 142 93 447 507 578 167 572 617 
126 11 18 574 521 141 197 309 395 525 298 230 585 
127 11 175 395 3 230 276 521 20 411 126 574 585 
128 11 531 667 378 340 509 483 92 485 185 329 633 
129 11 604 112 73 697 241 310 59 672 715 457 351 
130 11 477 601 713 545 646 495 306 357 77 655 612 
131 11 68 180 619 438 251 305 345 58 673 640 96 
132 11 666 170 72 191 505 464 249 315 548 43 491 
133 11 140 148 348 702 638 80 591 432 246 696 520 
134 11 179 547 236 320 652 396 103 605 269 584 87 
135 11 563 312 33 370 160 48 369 414 643 689 356 
136 11 671 300 152 527 402 645 699 330 325 384 576 
137 11 343 119 283 387 10 76 146 9 373 693 377 
138 11 193 258 635 394 475 570 414 356 31 435 564 
139 11 526 618 686 413 608 481 598 155 416 630 147 
140 11 133 348 148 702 80 591 638 432 696 246 389 
141 11 525 585 99 574 18 126 230 395 55 284 359 
142 11 507 167 578 572 319 417 215 420 447 282 617 
143 11 575 190 285 385 586 203 610 90 216 329 104 
144 11 145 254 290 350 15 65 656 418 265 17 565 
145 11 290 350 15 656 425 418 265 144 236 153 231 
146 11 373 514 120 466 693 10 283 291 308 506 274 
147 11 649 455 155 608 618 517 526 481 139 598 467 
148 11 702 133 348 140 591 696 520 638 246 80 432 
149 11 615 242 40 383 30 639 57 218 382 89 205 
150 11 473 151 186 519 486 704 24 698 66 245 443 
151 11 24 150 473 486 519 186 703 704 698 116 245 
152 11 300 671 402 136 527 699 325 287 330 12 576 
153 11 425 188 244 178 231 399 654 656 39 265 262 
154 11 600 44 266 172 592 163 534 94 320 396 17 
155 11 517 455 598 618 147 526 649 139 467 608 686 
156 11 219 5 234 239 363 110 32 650 580 21 552 
157 11 482 115 707 636 627 628 16 21 250 221 272 
158 11 39 654 244 399 268 358 501 209 153 711 188 
159 11 634 331 515 83 381 562 7 554 388 69 243 
160 11 48 312 476 429 648 4 135 563 199 341 643 
161 11 346 621 78 669 440 658 700 333 651 520 702 
162 11 50 393 716 71 463 36 627 37 49 19 201 
163 11 172 592 478 44 600 154 266 534 313 354 94 
164 11 204 599 688 361 394 31 620 193 258 632 635 
165 11 281 498 543 680 588 235 166 327 76 665 119 
166 11 498 237 642 680 327 582 614 196 168 355 529 
167 11 578 507 417 142 572 420 319 577 62 215 447 
168 11 271 642 75 113 529 540 224 409 237 405 47 
169 11 695 252 690 488 273 198 444 579 192 581 277 
170 11 43 132 491 666 505 464 72 191 333 78 700 
171 11 434 587 82 296 374 111 462 607 81 247 679 
172 11 163 592 44 600 266 154 478 534 94 344 248 
173 11 23 415 210 655 445 306 392 545 510 571 232 
174 11 637 676 408 553 105 334 674 217 253 450 511 
175 11 127 3 395 276 230 521 20 411 462 296 434 
176 11 317 594 52 489 428 494 95 183 573 663 220 
177 11 288 595 93 310 480 240 672 697 457 460 125 
178 11 231 188 433 262 584 153 425 87 38 209 244 
179 11 134 236 584 605 269 547 87 652 103 320 396 
180 11 68 131 619 438 58 345 251 305 640 673 96 
181 11 629 51 532 663 95 96 673 688 13 632 394 
182 11 114 360 554 85 100 337 98 74 487 341 4 
183 11 298 197 410 521 176 317 126 220 309 18 574 
184 11 124 257 228 123 213 200 524 610 423 500 77 
185 11 452 593 340 485 92 640 58 667 483 475 619 
186 11 519 704 473 698 66 150 443 325 12 699 287 
187 11 435 31 570 620 356 29 429 599 476 204 48 
188 11 178 262 433 231 153 38 209 244 584 711 87 
189 11 297 541 660 376 8 211 384 549 322 251 55 
190 11 285 586 143 329 104 216 437 575 385 610 378 
191 11 72 666 249 315 548 684 505 132 464 516 352 
192 11 597 444 690 252 695 278 27 653 22 106 169 
193 11 138 258 635 394 570 599 31 204 435 475 187 
194 11 53 42 502 277 581 84 291 120 488 466 514 
195 11 259 70 372 632 670 513 13 361 164 336 688 
196 11 614 237 34 642 529 540 109 113 168 166 484 
197 11 298 521 126 183 18 309 574 220 395 127 141 
198 11 444 690 332 657 169 273 192 695 252 579 2 
199 11 4 341 648 476 337 429 48 85 100 74 98 
200 11 228 213 612 257 124 184 558 77 510 123 423 
201 11 19 677 303 36 221 568 463 403 542 71 546 
202 11 229 367 467 410 650 607 81 82 517 219 239 
203 11 575 385 90 143 610 123 190 586 285 357 124 
204 11 599 164 620 31 361 435 187 570 193 29 394 
205 11 89 30 383 675 567 242 302 330 12 560 149 
206 11 439 251 541 61 297 376 211 131 619 624 8 
207 11 601 713 105 477 130 408 495 512 590 674 174 
208 11 453 56 431 87 269 605 657 433 454 579 273 
209 11 711 38 264 262 39 60 316 188 433 244 268 
210 11 415 392 445 23 173 510 655 558 571 101 306 
211 11 8 251 541 55 189 305 322 438 297 469 589 
212 11 503 227 97 647 670 496 70 91 336 708 513 
213 11 257 200 228 423 524 558 184 124 101 338 7 
214 11 307 238 314 364 387 665 358 501 119 268 377 
215 11 319 447 617 530 566 142 507 572 243 578 125 
216 11 437 104 586 285 643 370 689 190 353 538 79 
217 11 553 539 523 637 511 366 267 64 512 90 590 
218 11 382 57 40 499 639 596 67 411 20 359 149 
219 11 156 239 234 650 5 580 81 110 363 32 552 
220 11 309 573 311 342 589 469 489 197 18 126 298 
221 11 403 546 677 201 250 470 544 694 115 304 568 
222 11 307 214 665 314 238 364 349 358 387 293 326 
223 11 347 556 103 301 25 652 396 547 94 344 454 
224 11 409 75 47 405 271 471 424 552 295 168 580 
225 11 37 468 662 627 628 113 393 363 716 636 540 
226 11 606 659 292 616 448 658 555 669 440 107 528 
227 11 97 212 503 496 647 670 91 70 372 708 259 
228 11 257 124 184 200 213 612 123 77 524 423 558 
229 11 202 367 650 467 580 81 410 82 219 517 607 
230 11 395 585 20 276 525 99 127 141 359 18 175 
231 11 178 188 584 425 433 153 262 87 236 38 656 
232 11 173 545 306 655 130 477 23 713 646 415 210 
233 11 111 272 374 110 32 261 171 16 234 247 5 
234 11 239 5 110 219 32 81 156 272 374 82 111 
235 11 588 543 678 684 680 76 9 102 249 516 548 
236 11 179 134 584 231 87 269 418 547 605 178 320 
237 11 642 196 529 614 540 168 166 113 34 109 582 
238 11 364 314 387 214 307 501 377 358 427 268 119 
239 11 234 5 219 81 110 156 32 82 650 374 111 
240 11 672 457 697 595 282 310 112 288 93 125 351 
241 11 73 715 604 536 59 692 705 401 371 631 351 
242 11 383 30 89 205 675 149 302 567 615 443 12 
243 11 566 530 381 623 617 331 447 159 338 7 101 
244 11 39 654 399 153 158 209 188 711 268 262 178 
245 11 486 41 683 116 150 66 304 473 703 470 546 
246 11 638 702 133 432 148 140 80 346 348 591 520 
247 11 679 391 462 587 434 108 171 296 374 111 681 
248 11 344 459 478 354 583 26 456 709 479 25 301 
249 11 191 684 72 548 315 666 505 516 235 132 464 
250 11 694 46 544 406 403 710 701 707 221 470 115 
251 11 438 211 305 8 541 131 68 206 345 180 55 
252 11 695 690 192 169 444 278 597 27 198 502 277 
253 11 676 334 45 450 174 492 561 637 511 609 674 
254 11 65 17 418 290 144 145 350 15 236 266 656 
255 11 421 14 449 28 458 706 22 106 533 551 603 
256 11 535 369 633 33 564 414 483 135 329 370 563 
257 11 184 228 213 124 524 423 200 500 123 668 538 
258 11 635 394 193 138 475 599 570 688 164 204 31 
259 11 195 70 372 670 632 513 13 361 336 503 164 
260 11 280 2 386 332 407 451 436 522 537 709 26 
261 11 681 108 233 391 111 707 247 272 374 679 171 
262 11 433 38 188 178 209 711 231 87 264 208 584 
263 11 480 460 461 571 232 173 392 177 210 415 288 
264 11 60 316 711 209 38 611 691 262 433 39 427 
265 11 656 15 399 153 425 654 326 350 293 244 145 
266 11 44 600 154 592 172 534 94 320 163 396 301 
267 11 523 64 518 446 379 366 54 509 86 128 511 
268 11 501 39 158 209 711 427 244 691 316 358 264 
269 11 87 605 208 584 453 179 454 56 134 433 652 
270 11 613 299 400 279 328 313 389 626 354 88 404 
271 11 75 409 224 47 405 424 168 471 295 552 113 
272 11 32 233 110 16 111 21 374 5 707 234 261 
273 11 579 657 431 169 56 198 453 690 488 695 208 
274 11 687 308 466 275 368 514 373 120 6 53 194 
275 11 368 308 102 274 687 9 678 466 514 373 146 
276 11 20 411 3 230 499 127 175 359 395 67 585 
277 11 42 581 502 488 53 194 169 252 695 84 278 
278 11 27 597 653 192 252 106 695 22 286 690 84 
279 11 389 328 400 613 299 626 270 80 140 348 432 
280 11 2 260 386 332 537 436 407 451 522 559 533 
281 11 165 498 543 327 680 665 588 166 582 401 235 
282 11 457 125 420 142 351 240 167 507 672 319 578 
283 11 10 146 373 693 514 137 120 466 291 308 682 
284 11 359 99 585 596 20 322 525 141 230 55 382 
285 11 190 586 104 329 216 437 143 633 370 378 643 
286 11 106 653 390 27 28 22 278 597 11 84 192 
287 11 402 698 519 152 300 186 473 527 325 671 699 
288 11 595 93 177 240 672 125 457 282 697 310 392 
289 11 362 294 651 700 78 346 161 43 246 491 333 
290 11 145 350 15 418 656 425 236 265 254 231 65 
291 11 120 693 514 373 466 506 146 53 194 10 42 
292 11 606 555 448 226 659 616 11 107 390 528 658 
293 11 326 349 265 399 654 15 158 656 358 153 244 
294 11 651 700 346 78 161 289 246 621 638 702 148 
295 11 424 692 471 47 409 75 224 271 536 630 355 
296 11 434 587 462 171 607 82 247 679 3 81 175 
297 11 376 189 541 660 549 8 211 206 384 251 439 
298 11 197 521 126 183 18 309 574 395 220 127 141 
299 11 400 613 328 270 626 279 389 313 404 88 354 
300 11 671 152 136 402 527 699 325 330 645 12 287 
301 11 556 223 344 347 94 25 534 103 396 248 652 
302 11 675 443 567 242 12 89 205 383 330 30 66 
303 11 568 677 201 19 542 546 122 221 36 403 335 
304 11 470 546 544 710 694 403 46 701 406 221 250 
305 11 438 345 251 589 342 469 211 311 68 131 8 
306 11 545 655 646 612 23 77 200 173 357 445 510 
307 11 214 238 314 364 665 387 358 501 119 268 158 
308 11 274 275 368 466 514 373 687 146 120 9 291 
309 11 220 342 18 469 126 574 589 197 298 573 141 
310 11 697 672 240 112 457 595 129 288 282 177 351 
311 11 573 345 673 96 220 489 589 305 342 309 438 
312 11 160 135 643 689 48 370 563 476 429 33 648 
313 11 354 88 478 299 270 583 248 404 613 163 400 
314 11 364 238 358 214 501 307 268 387 158 427 377 
315 11 684 249 191 72 505 516 666 548 464 352 102 
316 11 60 264 611 691 711 209 427 38 268 506 682 
317 11 176 594 489 52 428 494 95 183 220 573 663 
318 11 62 371 397 417 705 420 631 708 647 167 569 
319 11 215 447 142 617 507 572 530 578 167 125 566 
320 11 396 547 652 94 103 134 534 223 301 347 556 
321 11 365 644 465 49 122 380 542 162 19 50 36 
322 11 55 284 99 8 359 585 211 141 525 596 189 
323 11 712 576 398 550 442 714 118 609 685 136 671 
324 11 504 664 11 352 6 616 448 390 687 286 292 
325 11 699 12 330 527 567 402 698 675 443 302 300 
326 11 293 349 265 399 654 158 15 656 244 153 358 
327 11 582 355 401 536 166 424 692 168 498 295 642 
328 11 400 279 389 613 626 299 270 348 80 404 140 
329 11 633 285 104 256 190 378 535 370 437 586 483 
330 11 12 699 325 567 527 675 89 205 302 30 383 
331 11 159 381 634 562 515 7 338 388 83 243 554 
332 11 260 280 2 386 198 522 407 451 537 657 436 
333 11 491 669 78 658 161 700 464 621 226 440 659 
334 11 450 676 492 253 511 174 637 553 217 714 523 
335 11 380 542 122 303 568 116 677 19 465 201 703 
336 11 513 117 670 557 422 259 503 195 212 361 70 
337 11 85 100 114 341 98 199 4 182 74 487 554 
338 11 7 388 562 381 331 623 423 101 524 159 243 
339 11 559 533 436 458 404 603 88 479 537 583 14 
340 11 92 185 485 667 128 452 483 593 531 58 640 
341 11 4 199 337 85 648 74 100 476 114 48 429 
342 11 469 589 309 220 18 55 574 126 305 573 141 
343 11 119 137 387 283 76 10 9 146 238 364 373 
344 11 248 301 459 25 534 556 94 478 223 347 709 
345 11 305 311 438 673 573 589 96 342 68 220 469 
346 11 161 621 246 702 520 440 148 78 651 658 669 
347 11 223 556 103 301 25 652 454 522 396 547 344 
348 11 140 133 148 591 702 696 80 638 432 641 520 
349 11 326 293 265 358 399 654 158 244 39 15 153 
350 11 15 145 290 656 425 265 153 418 231 236 178 
351 11 59 420 371 282 457 62 112 318 417 715 142 
352 11 664 324 504 616 11 6 448 464 226 505 516 
353 11 79 419 538 74 668 689 643 500 312 341 160 
354 11 478 88 313 248 583 459 344 456 26 479 709 
355 11 582 327 401 536 424 692 295 271 75 168 409 
356 11 570 187 435 563 31 414 429 620 48 476 135 
357 11 77 123 646 612 124 203 184 228 385 610 200 
358 11 158 314 268 501 39 654 399 244 349 364 238 
359 11 284 20 585 99 596 230 411 276 382 499 525 
360 11 182 114 668 74 85 500 554 337 419 100 388 
361 11 557 164 204 412 599 513 195 259 620 31 117 
362 11 289 43 294 651 700 78 170 491 161 346 333 
363 11 662 156 552 219 580 5 468 650 234 239 628 
364 11 238 314 387 214 501 307 377 427 358 268 682 
365 11 321 465 644 49 122 380 542 19 162 335 36 
366 11 509 64 267 378 531 128 523 518 539 143 667 
367 11 467 202 229 517 455 410 155 649 147 650 183 
368 11 275 308 102 274 687 678 9 466 514 6 373 
369 11 564 33 256 414 535 135 563 633 370 356 312 
370 11 135 643 104 312 689 33 437 563 160 216 256 
371 11 62 318 420 417 59 351 397 705 167 631 715 
372 11 70 195 259 632 13 670 513 91 503 532 688 
373 11 514 146 466 120 291 693 10 308 283 274 53 
374 11 111 233 171 272 110 247 587 81 82 434 679 
375 11 494 428 416 52 95 663 598 121 594 686 176 
376 11 297 660 189 541 549 8 206 211 384 61 439 
377 11 682 427 691 506 10 501 693 611 316 283 291 
378 11 531 128 509 667 329 483 633 285 190 535 256 
379 11 518 54 64 267 446 86 92 128 340 523 509 
380 11 335 465 122 542 303 49 365 19 321 568 201 
381 11 331 243 7 159 338 562 566 388 623 634 515 
382 11 218 639 596 57 40 499 359 411 20 284 67 
383 11 30 89 205 242 675 567 149 302 560 330 12 
384 11 645 660 560 189 549 297 376 30 136 205 89 
385 11 610 203 575 143 586 190 216 123 285 437 184 
386 11 2 280 537 260 436 332 533 559 706 407 451 
387 11 238 364 119 137 343 314 214 377 307 665 283 
388 11 7 562 338 331 381 423 360 524 159 182 515 
389 11 279 328 400 613 626 299 80 270 140 348 432 
390 11 11 286 448 106 28 653 22 27 292 504 324 
391 11 679 247 108 681 462 587 261 434 111 374 171 
392 11 210 415 445 23 571 173 510 461 558 93 655 
393 11 50 162 716 37 71 627 463 36 225 115 482 
394 11 258 635 193 138 688 164 599 204 475 51 570 
395 11 127 230 521 126 175 574 18 141 525 585 276 
396 11 320 547 94 103 652 534 223 301 556 347 134 
397 11 708 647 318 577 97 62 212 227 503 422 417 
398 11 550 118 685 712 323 576 609 287 152 661 136 
399 11 654 244 158 153 39 265 188 326 425 656 209 
400 11 328 299 613 279 389 626 270 404 313 348 80 
401 11 536 355 327 582 692 241 73 295 424 604 715 
402 11 152 300 527 325 671 699 287 698 136 330 12 
403 11 221 470 546 544 694 304 250 677 710 46 568 
404 11 88 339 626 583 299 603 559 313 354 400 641 
405 11 224 47 409 75 271 471 552 580 649 147 424 
406 11 46 701 694 710 544 250 622 625 470 304 681 
407 11 451 522 260 25 709 26 280 456 332 479 459 
408 11 105 512 637 495 590 553 174 217 539 601 90 
409 11 224 75 47 271 405 424 471 295 168 552 649 
410 11 183 202 607 298 296 367 521 82 197 467 175 
411 11 276 499 20 67 3 359 218 230 382 57 127 
412 11 557 490 497 29 69 441 361 487 98 620 204 
413 11 139 481 608 630 618 526 686 121 147 598 155 
414 11 369 564 563 33 356 135 256 535 570 138 187 
415 11 210 445 23 392 510 173 655 558 306 101 200 
416 11 375 121 428 494 686 598 526 52 139 618 91 
417 11 167 578 507 572 142 420 62 577 318 397 371 
418 11 290 236 17 134 145 65 350 179 254 320 425 
419 11 79 353 74 538 668 500 689 341 643 114 360 
420 11 351 371 417 62 167 142 59 318 282 578 507 
421 11 255 28 706 458 14 551 22 449 533 106 537 
422 11 577 117 336 708 441 497 513 490 557 83 397 
423 11 524 388 500 7 338 213 257 360 562 668 538 
424 11 295 692 47 409 75 224 271 471 405 355 536 
425 11 656 153 231 15 178 350 188 265 584 145 236 
426 11 35 474 528 107 520 641 696 440 591 555 659 
427 11 691 377 682 501 316 611 268 506 60 264 711 
428 11 494 375 52 416 598 594 95 176 663 317 686 
429 11 476 648 48 4 160 199 341 29 187 356 435 
430 11 602 569 631 630 705 496 413 647 97 227 481 
431 11 579 273 657 56 453 208 169 198 488 454 60 
432 11 638 80 133 140 246 348 148 702 389 279 591 
433 11 262 188 38 178 87 231 209 584 208 711 269 
434 11 587 296 462 171 247 607 679 82 391 374 3 
435 11 187 31 570 620 356 29 599 429 204 476 648 
436 11 559 386 537 2 280 533 260 451 479 26 456 
437 11 216 104 586 370 643 689 285 312 353 190 329 
438 11 305 251 345 68 131 180 589 211 311 342 469 
439 11 206 61 624 251 619 54 541 86 131 180 376 
440 11 107 658 520 621 528 659 35 426 669 474 606 
441 11 497 490 69 117 412 557 83 487 422 515 634 
442 11 549 624 61 376 660 297 136 576 323 384 189 
443 11 66 302 12 567 675 704 325 330 89 242 699 
444 11 690 192 198 252 695 597 169 551 22 27 278 
445 11 23 415 510 210 558 655 392 173 200 306 101 
446 11 267 518 523 54 86 379 64 511 366 624 61 
447 11 617 215 530 319 566 243 572 381 507 623 578 
448 11 292 11 606 616 226 390 555 504 324 659 286 
449 11 14 255 603 421 458 533 28 706 555 339 474 
450 11 334 492 676 511 253 714 609 217 446 523 553 
451 11 407 709 26 456 479 459 25 260 436 522 280 
452 11 185 640 593 58 92 340 485 619 475 483 667 
453 11 56 208 431 269 657 454 87 273 605 579 433 
454 11 605 56 522 347 453 103 223 269 556 652 208 
455 11 147 649 155 517 618 467 608 598 526 367 139 
456 11 26 479 709 459 451 583 407 436 25 248 260 
457 11 240 672 697 282 112 351 59 310 595 420 125 
458 11 533 537 706 14 421 559 255 339 449 603 436 
459 11 456 26 709 479 248 583 451 25 344 407 301 
460 11 461 571 392 210 480 173 415 93 288 263 23 
461 11 460 571 392 210 173 415 480 93 23 288 445 
462 11 587 434 296 247 679 171 391 3 607 82 175 
463 11 71 36 716 162 50 19 201 393 627 49 221 
464 11 505 352 491 333 315 616 191 664 666 72 132 
465 11 380 365 321 122 335 542 49 644 19 303 201 
466 11 514 373 120 146 291 308 274 693 53 194 10 
467 11 367 517 202 455 229 155 649 147 410 598 183 
468 11 662 225 628 363 37 636 156 21 627 16 32 
469 11 342 589 309 55 18 220 574 141 126 525 305 
470 11 304 544 546 710 694 403 46 701 221 406 250 
471 11 47 481 608 649 147 630 405 409 224 295 424 
472 11 493 63 644 484 321 508 365 109 34 49 162 
473 11 186 519 150 704 698 151 66 287 443 486 24 
474 11 426 35 528 107 641 555 520 440 696 449 603 
475 11 138 258 593 635 193 394 564 414 485 369 452 
476 11 429 648 48 4 160 199 341 29 312 187 356 
477 11 130 601 713 545 495 646 306 207 357 232 655 
478 11 354 248 344 592 313 459 583 88 163 534 172 
479 11 26 456 709 459 451 583 436 407 248 559 25 
480 11 177 460 461 263 571 288 93 595 392 210 240 
481 11 608 413 630 139 618 526 147 686 649 455 155 
482 11 157 115 627 628 636 707 16 21 250 221 272 
483 11 667 485 535 256 633 531 128 340 564 369 329 
484 11 63 508 109 34 493 393 50 644 196 162 472 
485 11 593 483 185 340 667 452 535 92 475 564 256 
486 11 245 150 116 151 703 473 24 186 704 66 519 
487 11 98 69 100 554 85 337 114 182 199 341 412 
488 11 581 277 42 502 169 695 252 579 53 194 273 
489 11 573 317 594 176 311 96 220 673 95 663 52 
490 11 441 497 69 412 487 557 83 117 515 98 554 
491 11 333 78 700 669 464 161 658 651 621 226 505 
492 11 450 714 511 334 446 676 523 609 86 267 323 
493 11 472 63 484 109 508 644 34 321 365 614 196 
494 11 375 428 52 416 95 663 594 598 176 317 686 
495 11 512 590 408 601 357 90 105 130 203 477 646 
496 11 97 227 91 212 647 503 670 121 430 70 372 
497 11 441 490 412 557 117 69 83 487 422 336 515 
498 11 165 166 281 680 327 582 588 355 543 235 401 
499 11 411 67 20 218 276 57 382 359 40 596 3 
500 11 668 538 79 419 524 353 360 423 74 182 114 
501 11 268 427 377 691 314 682 364 158 358 39 316 
502 11 42 277 581 53 194 488 252 695 84 169 278 
503 11 212 227 670 97 647 70 496 336 513 259 91 
504 11 324 11 664 352 616 448 6 390 292 226 286 
505 11 464 315 191 72 666 352 249 132 684 516 664 
506 11 693 682 291 611 120 377 10 691 427 146 373 
507 11 578 572 167 142 417 319 215 447 617 577 420 
508 11 63 484 393 109 50 162 34 644 37 716 225 
509 11 378 531 366 128 64 667 329 483 340 518 633 
510 11 558 445 23 101 200 415 213 623 210 228 612 
511 11 523 446 217 492 267 450 553 334 676 518 539 
512 11 590 495 408 90 539 553 217 637 203 105 575 
513 11 336 117 670 259 557 195 361 70 503 372 212 
514 11 373 466 120 146 291 693 308 274 10 53 283 
515 11 634 159 331 83 554 69 487 562 182 98 381 
516 11 102 684 315 368 664 275 678 352 6 249 9 
517 11 155 467 455 147 367 598 649 618 526 139 202 
518 11 379 267 64 446 54 523 86 366 509 128 92 
519 11 186 473 698 704 150 287 66 325 151 402 699 
520 11 35 440 107 426 591 528 696 702 148 474 621 
521 11 298 197 126 395 18 574 127 175 183 230 141 
522 11 407 25 260 451 332 454 280 347 709 556 223 
523 11 267 64 446 518 366 511 379 217 539 54 509 
524 11 423 500 388 257 668 7 360 213 338 562 538 
525 11 141 585 99 574 18 230 126 395 284 55 359 
526 11 139 618 686 598 155 413 608 416 481 147 455 
527 11 699 325 330 402 300 152 671 12 136 567 645 
528 11 107 474 426 35 440 555 520 659 641 606 292 
529 11 540 113 642 237 168 196 225 662 468 363 614 
530 11 566 243 617 447 381 623 215 331 159 319 101 
531 11 128 378 667 509 483 329 340 633 485 535 92 
532 11 51 629 632 688 13 181 372 164 195 394 70 
533 11 458 537 559 706 436 386 2 339 421 551 14 
534 11 94 301 396 344 592 320 556 223 103 347 248 
535 11 256 369 564 633 33 483 414 485 329 135 370 
536 11 401 692 355 241 73 295 424 582 327 715 604 
537 11 386 533 2 706 280 436 559 458 551 260 332 
538 11 353 668 79 419 500 74 689 643 216 360 437 
539 11 217 553 366 90 523 590 64 512 267 509 575 
540 11 529 113 642 237 168 196 225 662 468 37 363 
541 11 189 297 8 211 376 251 660 206 322 439 549 
542 11 122 303 19 201 49 335 568 677 380 36 463 
543 11 76 588 235 9 678 343 119 137 102 275 368 
544 11 694 710 470 46 304 701 403 406 250 546 221 
545 11 306 655 646 612 130 23 77 173 357 445 477 
546 11 470 304 403 544 568 677 221 694 710 46 701 
547 11 652 103 396 320 134 179 223 605 347 556 94 
548 11 249 72 191 666 684 315 235 505 588 516 132 
549 11 660 376 297 442 189 384 541 61 624 645 136 
550 11 398 685 118 712 576 323 287 152 300 609 402 
551 11 706 22 421 537 444 2 533 597 192 386 28 
552 11 580 363 650 219 156 662 229 5 239 405 234 
553 11 217 539 637 511 408 512 523 590 366 174 267 
554 11 98 182 487 100 69 114 85 337 515 360 634 
555 11 292 606 659 528 107 448 474 226 426 449 35 
556 11 223 347 301 103 25 652 344 396 94 522 547 
557 11 361 412 117 497 513 441 336 490 204 29 69 
558 11 101 510 213 200 623 338 228 423 257 524 7 
559 11 436 533 339 537 458 386 2 280 479 706 26 
560 11 30 205 383 645 89 384 639 242 596 675 149 
561 11 609 661 253 118 45 450 334 398 492 712 323 
562 11 7 388 338 331 381 159 515 634 360 182 423 
563 11 135 356 414 33 160 312 48 369 429 476 370 
564 11 369 414 535 256 33 563 135 633 356 483 475 
565 11 144 254 65 145 290 17 350 15 418 265 656 
566 11 243 530 381 617 623 447 331 101 338 159 7 
567 11 675 12 89 205 302 330 383 30 242 325 699 
568 11 677 303 546 201 304 19 403 470 221 542 544 
569 11 631 602 705 430 630 496 647 318 413 97 481 
570 11 187 435 31 356 620 599 193 29 204 414 429 
571 11 461 460 392 210 173 415 23 445 93 510 655 
572 11 507 578 167 142 417 319 447 617 215 577 422 
573 11 311 220 489 345 96 309 589 673 342 469 317 
574 11 18 126 141 525 309 395 521 585 99 197 230 
575 11 143 203 385 190 90 610 586 285 216 329 437 
576 11 712 323 136 152 671 300 550 398 402 685 442 
577 11 422 708 117 336 397 417 513 441 497 572 578 
578 11 507 167 572 142 417 319 577 215 447 617 420 
579 11 273 431 657 169 56 198 488 453 208 690 695 
580 11 552 650 219 363 156 229 239 5 234 202 662 
581 11 277 42 502 488 53 194 169 695 252 84 278 
582 11 327 355 401 536 168 424 692 295 166 271 75 
583 11 479 456 26 459 88 709 248 354 451 436 339 
584 11 87 231 179 236 269 178 433 188 605 134 262 
585 11 99 525 141 230 284 359 20 395 574 18 126 
586 11 285 216 437 190 104 329 143 385 610 370 643 
587 11 434 462 296 171 247 679 391 607 82 374 3 
588 11 235 543 680 678 76 684 548 9 249 102 516 
589 11 342 469 309 220 305 55 345 573 18 574 126 
590 11 512 495 90 203 408 539 575 357 553 217 143 
591 11 696 348 148 641 140 702 133 520 35 426 474 
592 11 172 163 534 478 94 266 344 44 248 301 600 
593 11 485 185 452 475 640 340 483 58 92 535 564 
594 11 176 317 52 489 95 428 494 663 375 573 96 
595 11 288 240 93 672 457 310 697 177 125 282 112 
596 11 382 639 218 359 284 20 499 57 411 40 99 
597 11 192 27 653 278 22 106 252 444 690 695 551 
598 11 155 526 686 618 139 428 517 416 375 455 494 
599 11 204 31 620 164 435 570 187 193 361 394 29 
600 11 154 44 266 172 592 163 534 94 320 396 17 
601 11 477 713 130 207 495 105 408 512 590 646 357 
602 11 430 569 631 630 705 413 481 496 139 608 647 
603 11 14 449 458 339 255 533 421 559 641 474 404 
604 11 73 129 241 112 715 59 536 351 401 697 371 
605 11 269 454 652 179 103 547 87 453 134 208 347 
606 11 226 659 292 555 448 658 616 107 440 528 669 
607 11 82 296 81 171 434 587 462 374 410 111 239 
608 11 481 618 413 139 526 147 630 649 455 686 155 
609 11 118 323 561 712 398 492 714 550 450 661 334 
610 11 385 586 203 216 143 575 123 184 190 437 124 
611 11 316 691 60 264 506 427 682 711 377 209 38 
612 11 77 200 228 124 646 123 357 184 213 257 306 
613 11 299 400 270 328 279 389 626 313 404 88 354 
614 11 196 34 237 109 642 529 540 166 484 63 508 
615 11 149 40 622 625 57 242 218 382 383 639 30 
616 11 226 448 504 352 606 292 324 11 659 664 390 
617 11 447 530 566 243 215 319 381 83 159 331 572 
618 11 526 139 608 686 155 413 598 147 481 455 649 
619 11 58 180 131 68 640 452 185 92 439 206 593 
620 11 31 435 187 570 599 29 204 356 429 193 476 
621 11 440 161 346 520 658 669 107 702 659 35 528 
622 11 625 615 40 406 701 149 683 41 46 57 710 
623 11 101 243 566 338 381 7 530 331 388 562 558 
624 11 61 86 439 442 206 54 376 549 297 541 660 
625 11 622 615 683 41 701 149 40 406 46 242 57 
626 11 328 400 299 279 389 404 613 641 696 348 591 
627 11 37 716 482 115 157 628 71 393 468 463 225 
628 11 636 21 16 32 468 482 110 157 272 5 707 
629 11 181 51 532 663 95 688 13 632 96 394 635 
630 11 481 413 608 602 139 430 618 526 686 471 147 
631 11 705 569 430 602 318 647 62 496 397 97 630 
632 11 13 372 195 70 259 532 688 164 670 51 361 
633 11 256 329 535 33 369 483 104 370 564 285 135 
634 11 159 515 331 83 69 381 554 562 7 487 388 
635 11 258 394 193 138 475 599 688 164 204 570 51 
636 11 21 16 628 32 272 110 707 482 5 157 233 
637 11 553 174 217 408 676 539 512 511 105 334 590 
638 11 432 80 133 140 246 148 348 702 591 389 279 
639 11 382 596 218 40 57 149 359 284 499 560 20 
640 11 452 58 185 593 619 485 475 92 340 180 68 
641 11 696 591 35 426 474 528 603 626 348 520 107 
642 11 237 529 168 540 196 113 614 166 271 582 75 
643 11 689 312 370 160 353 79 135 437 104 48 216 
644 11 321 365 49 162 50 122 465 508 63 393 71 
645 11 384 560 205 330 30 89 136 527 567 671 383 
646 11 77 357 306 612 545 655 123 124 200 228 130 
647 11 97 227 212 496 503 397 708 670 91 336 430 
648 11 476 4 199 429 48 341 160 29 337 85 74 
649 11 147 455 155 517 608 618 467 481 526 139 598 
650 11 219 580 229 239 156 234 81 202 552 5 82 
651 11 700 78 294 161 346 491 333 621 669 246 289 
652 11 103 547 396 223 347 320 556 605 134 301 179 
653 11 106 27 22 597 278 28 286 192 252 444 551 
654 11 399 244 158 39 153 265 188 268 326 209 425 
655 11 306 545 23 445 612 646 173 510 200 415 77 
656 11 15 425 350 265 153 145 290 231 178 399 654 
657 11 273 579 431 56 198 453 169 332 208 690 444 
658 11 669 659 440 226 606 621 107 292 528 555 520 
659 11 606 226 292 658 555 107 440 528 669 448 474 
660 11 297 189 376 549 384 541 645 8 211 442 560 
661 11 118 398 561 550 609 685 712 323 576 287 714 
662 11 363 468 156 552 225 113 580 628 219 5 636 
663 11 95 494 181 375 594 52 428 629 489 96 176 
664 11 324 352 504 6 11 616 516 687 448 390 102 
665 11 214 307 387 119 238 364 343 137 314 377 501 
666 11 72 191 249 548 132 315 505 684 464 516 170 
667 11 128 483 531 340 485 378 92 535 633 185 256 
668 11 500 538 79 419 353 74 360 114 182 524 423 
669 11 658 659 226 440 606 621 333 107 161 292 616 
670 11 503 70 259 212 195 372 513 336 227 97 91 
671 11 300 136 152 527 402 699 325 330 645 12 576 
672 11 240 697 457 310 112 595 282 351 288 59 125 
673 11 96 311 345 573 489 68 181 131 305 438 180 
674 11 174 105 45 253 637 676 408 207 334 553 450 
675 11 567 89 205 302 383 242 12 30 330 443 325 
676 11 334 450 253 174 637 511 492 553 217 45 523 
677 11 568 201 303 546 19 221 403 470 304 36 542 
678 11 9 76 102 275 368 308 516 274 543 466 146 
679 11 247 391 462 587 108 434 171 296 681 111 374 
680 11 588 235 166 498 548 543 249 684 165 72 191 
681 11 108 261 391 679 247 111 233 67 374 707 462 
682 11 377 427 506 691 693 611 10 316 291 501 60 
683 11 41 625 622 701 710 46 304 406 615 66 443 
684 11 315 249 516 191 72 548 666 102 505 235 588 
685 11 550 398 118 576 287 712 323 152 402 300 671 
686 11 526 139 618 598 416 413 121 608 155 375 428 
687 11 274 6 308 368 275 84 466 53 194 514 120 
688 11 164 532 394 632 51 635 204 258 599 193 195 
689 11 643 312 370 353 79 160 135 437 419 48 104 
690 11 444 192 252 695 169 198 597 278 27 551 22 
691 11 316 611 427 60 264 682 711 377 506 209 501 
692 11 295 424 536 355 401 471 241 47 73 409 569 
693 11 291 10 120 146 373 506 514 466 283 682 377 
694 11 544 46 710 470 701 250 406 304 403 546 221 
695 11 252 690 169 192 444 278 597 27 198 488 502 
696 11 591 641 348 35 148 520 426 140 702 133 474 
697 11 672 457 112 240 310 282 351 595 59 129 420 
698 11 186 519 704 325 473 402 699 66 12 287 443 
699 11 325 12 330 527 567 402 675 300 698 152 205 
700 11 78 651 161 491 333 294 346 621 669 658 440 
701 11 46 710 406 694 544 470 304 622 625 683 250 
702 11 148 133 140 348 591 520 246 696 638 80 432 
703 11 116 486 24 151 245 150 473 335 186 519 704 
704 11 186 66 698 519 473 443 12 325 150 699 302 
705 11 631 569 602 430 318 62 371 647 397 715 97 
706 11 551 537 421 533 458 2 386 22 255 28 280 
707 11 16 261 272 21 157 233 636 32 482 250 115 
708 11 397 577 422 647 212 503 336 97 117 227 513 
709 11 26 456 479 451 459 407 25 583 436 248 260 
710 11 544 46 694 701 470 304 406 250 546 403 683 
711 11 209 264 38 60 316 262 39 691 433 268 188 
712 11 323 576 398 550 118 442 714 685 609 136 671 
713 11 477 601 130 207 495 105 232 545 646 306 408 
714 11 492 323 442 624 712 61 86 446 450 511 54 
715 11 241 73 59 705 371 631 62 318 569 351 604 
716 11 50 162 393 71 463 627 37 36 115 482 157 
DEPOT_SECTION
   1
   -1
EOF
