NAME :  X-n701-kX-w140-c7.cctp
COMMENT : 	Adapted by Maziero, Usberti and Cavellucci from the Uchoa, Pecin, Pessoa, Poggi, Subramanian, and Vidal (2013)
TYPE :  CCTP
DIMENSION :    463
EDGE_WEIGHT_TYPE : 	EUC_2D	
CAPACITY : 	87
VERTICES_WITHIN_COVERAGE :  7
VERTICES_WITH_DEMAND : 	140
NODE_COORD_SECTION
1 0 0
2 878 606
3 35 593
4 320 125
5 189 244
6 274 784
7 900 310
8 742 640
9 800 448
10 57 755
11 522 327
12 528 268
13 461 328
14 325 726
15 788 496
16 626 660
17 720 744
18 3 417
19 32 306
20 65 233
21 827 442
22 347 566
23 545 389
24 452 670
25 236 564
26 439 425
27 69 17
28 468 416
29 103 137
30 689 261
31 300 603
32 378 187
33 790 584
34 336 860
35 386 199
36 522 461
37 356 214
38 947 18
39 431 1000
40 817 983
41 71 731
42 918 54
43 989 840
44 260 262
45 904 724
46 970 295
47 567 694
48 426 75
49 24 178
50 656 590
51 128 178
52 969 965
53 309 968
54 855 798
55 587 48
56 118 736
57 838 354
58 274 298
59 311 702
60 183 963
61 392 495
62 950 484
63 621 676
64 52 482
65 956 934
66 745 263
67 289 149
68 689 900
69 216 107
70 852 560
71 45 441
72 638 84
73 66 842
74 290 815
75 68 509
76 521 672
77 100 855
78 408 483
79 491 455
80 536 563
81 114 255
82 383 536
83 902 19
84 964 423
85 610 39
86 719 961
87 837 83
88 657 185
89 289 599
90 747 259
91 292 168
92 552 548
93 560 212
94 128 950
95 211 939
96 160 473
97 32 550
98 353 65
99 995 695
100 72 691
101 19 172
102 237 657
103 994 883
104 457 195
105 35 32
106 425 288
107 12 586
108 560 747
109 302 972
110 891 540
111 812 30
112 206 371
113 241 223
114 436 508
115 601 81
116 298 860
117 977 911
118 188 304
119 545 745
120 318 269
121 839 548
122 107 557
123 262 668
124 824 424
125 859 540
126 477 909
127 323 639
128 954 411
129 271 682
130 412 518
131 751 85
132 922 84
133 13 661
134 354 560
135 524 576
136 522 565
137 228 552
138 573 723
139 71 320
140 627 736
141 760 323
142 668 714
143 777 669
144 685 750
145 63 754
146 477 613
147 224 523
148 962 282
149 351 237
150 472 449
151 249 840
152 537 728
153 244 611
154 205 27
155 921 582
156 171 870
157 810 570
158 487 331
159 453 518
160 888 770
161 85 443
162 984 369
163 494 962
164 973 891
165 721 160
166 989 256
167 638 621
168 223 951
169 991 664
170 914 45
171 949 533
172 6 338
173 234 558
174 491 163
175 170 763
176 77 45
177 845 26
178 681 306
179 107 355
180 593 124
181 231 497
182 881 371
183 420 399
184 17 680
185 334 715
186 395 79
187 285 579
188 908 478
189 532 760
190 847 460
191 102 417
192 645 136
193 71 222
194 337 978
195 44 67
196 760 84
197 849 533
198 984 810
199 738 919
200 918 985
201 579 119
202 14 972
203 560 291
204 32 686
205 35 244
206 280 871
207 940 401
208 452 680
209 790 271
210 832 824
211 653 162
212 114 661
213 702 726
214 649 586
215 433 966
216 499 695
217 159 291
218 261 445
219 46 465
220 108 11
221 898 637
222 46 379
223 120 371
224 133 485
225 182 943
226 23 384
227 426 116
228 36 988
229 945 828
230 560 676
231 975 826
232 836 379
233 149 821
234 295 92
235 977 685
236 137 226
237 256 630
238 235 922
239 292 81
240 179 845
241 136 84
242 713 592
243 94 858
244 697 981
245 165 188
246 326 480
247 836 453
248 386 481
249 705 190
250 203 945
251 816 604
252 975 849
253 483 904
254 47 84
255 438 468
256 937 42
257 209 270
258 61 456
259 624 195
260 662 907
261 673 555
262 307 43
263 296 837
264 253 75
265 829 599
266 138 159
267 710 107
268 37 564
269 974 967
270 759 756
271 745 159
272 847 81
273 207 27
274 912 418
275 859 340
276 375 325
277 114 18
278 923 49
279 87 908
280 84 327
281 219 869
282 378 164
283 800 100
284 22 470
285 952 3
286 105 215
287 80 581
288 823 527
289 854 377
290 500 240
291 126 833
292 560 23
293 138 966
294 909 990
295 447 664
296 187 283
297 435 345
298 325 901
299 362 602
300 754 65
301 19 676
302 451 76
303 497 468
304 910 712
305 580 785
306 513 457
307 486 458
308 768 472
309 846 788
310 343 784
311 459 894
312 422 91
313 881 418
314 665 647
315 488 927
316 574 373
317 318 951
318 580 535
319 381 57
320 529 432
321 462 915
322 711 692
323 531 377
324 319 988
325 550 545
326 886 630
327 459 892
328 263 731
329 339 995
330 548 384
331 646 127
332 530 491
333 892 599
334 910 765
335 764 542
336 746 566
337 758 330
338 788 471
339 517 665
340 471 427
341 314 942
342 449 692
343 603 776
344 785 108
345 705 286
346 861 753
347 253 757
348 582 120
349 930 746
350 194 998
351 523 914
352 569 530
353 697 596
354 388 283
355 610 597
356 406 480
357 960 884
358 1000 655
359 891 715
360 375 465
361 881 810
362 314 80
363 372 452
364 796 503
365 980 890
366 821 409
367 528 455
368 714 162
369 436 399
370 441 504
371 677 307
372 979 797
373 691 762
374 322 213
375 600 75
376 458 506
377 368 879
378 782 605
379 700 177
380 553 57
381 535 162
382 779 427
383 584 169
384 538 432
385 423 126
386 649 580
387 561 303
388 316 878
389 476 920
390 966 709
391 482 907
392 426 613
393 319 189
394 696 579
395 561 392
396 549 403
397 498 309
398 697 697
399 509 466
400 276 695
401 566 572
402 854 859
403 855 780
404 534 381
405 782 608
406 911 584
407 794 421
408 465 430
409 925 589
410 903 700
411 86 841
412 549 796
413 447 81
414 542 792
415 313 985
416 552 70
417 851 771
418 583 543
419 897 704
420 929 716
421 542 495
422 434 996
423 506 537
424 462 553
425 302 731
426 532 555
427 534 722
428 548 215
429 352 885
430 415 527
431 896 713
432 540 259
433 839 438
434 365 542
435 481 887
436 502 470
437 319 886
438 439 0
439 927 975
440 864 824
441 550 29
442 542 469
443 667 751
444 364 868
445 790 67
446 491 754
447 320 938
448 389 659
449 333 868
450 762 894
451 834 595
452 430 114
453 522 548
454 812 478
455 540 734
456 520 472
457 965 697
458 484 966
459 632 71
460 864 521
461 878 724
462 246 855
463 517 469
DEMAND_SECTION
2 2
3 8
4 7
5 5
6 3
7 7
8 6
9 3
10 10
11 2
12 1
13 8
14 8
15 8
16 8
17 4
18 9
19 7
20 9
21 4
22 10
23 4
24 1
25 2
26 1
27 9
28 4
29 4
30 5
31 8
32 2
33 9
34 3
35 1
36 8
37 2
38 8
39 3
40 3
41 2
42 4
43 3
44 2
45 7
46 7
47 9
48 1
49 5
50 7
51 10
52 5
53 9
54 7
55 7
56 1
57 3
58 5
59 9
60 5
61 4
62 5
63 9
64 4
65 4
66 7
67 8
68 1
69 8
70 7
71 2
72 9
73 5
74 1
75 6
76 8
77 4
78 10
79 9
80 8
81 4
82 2
83 8
84 1
85 5
86 2
87 7
88 3
89 1
90 2
91 6
92 5
93 10
94 9
95 6
96 8
97 6
98 1
99 8
100 3
101 8
102 9
103 2
104 9
105 8
106 8
107 2
108 7
109 4
110 10
111 5
112 4
113 10
114 9
115 9
116 7
117 6
118 7
119 10
120 10
121 5
122 6
123 1
124 3
125 4
126 1
127 5
128 8
129 3
130 1
131 4
132 4
133 3
134 8
135 6
136 8
137 1
138 2
139 2
140 8
141 9
COVERAGE_SECTION
2 6 333 326 221 406 451 155 
3 7 107 268 97 287 133 122 301 
4 7 67 234 362 91 239 393 98 
5 7 257 296 236 113 217 118 245 
6 7 347 74 328 263 425 151 310 
7 7 275 182 148 46 57 289 232 
8 6 143 405 378 242 322 353 
9 7 338 21 407 382 454 124 247 
10 7 145 41 56 100 204 184 73 
11 7 397 158 387 323 203 404 12 
12 7 432 203 290 387 397 428 11 
13 7 158 297 397 106 11 369 183 
14 6 185 425 59 400 310 328 
15 6 364 338 454 308 288 9 
16 6 63 167 314 355 47 142 
17 7 213 373 144 270 398 322 443 
18 7 226 71 284 222 219 258 172 
19 7 139 172 280 205 222 226 20 
20 7 193 205 286 81 49 236 101 
21 7 433 247 124 190 9 366 407 
22 7 134 434 299 82 31 187 89 
23 7 330 404 396 395 323 316 384 
24 7 295 208 342 216 146 392 448 
25 7 173 137 147 153 187 89 181 
26 7 369 408 28 183 340 150 255 
27 7 176 105 220 277 195 254 241 
28 7 340 408 26 150 369 79 307 
29 7 266 51 241 254 286 245 49 
30 5 345 178 371 66 90 
31 7 89 187 127 237 153 22 299 
32 7 35 282 37 149 393 374 385 
33 7 378 157 405 251 265 451 336 
34 7 449 388 444 429 437 377 116 
35 7 32 37 282 149 374 393 104 
36 7 367 463 306 456 399 436 442 
37 7 149 35 374 32 393 282 120 
38 7 285 256 278 170 83 42 132 
39 4 422 215 458 163 
40 7 294 86 200 199 450 439 244 
41 7 145 10 100 56 204 184 301 
42 7 278 170 256 132 83 38 285 
43 7 252 231 198 103 372 229 365 
44 7 58 113 257 120 5 296 374 
45 7 304 431 359 419 410 420 461 
46 7 148 166 7 162 207 128 182 
47 7 230 138 427 152 455 76 108 
48 6 312 413 302 186 452 227 
49 7 101 193 205 20 29 286 254 
50 7 214 386 167 261 353 394 355 
51 7 266 245 286 29 236 193 81 
52 7 269 65 439 117 200 294 164 
53 7 109 415 317 324 341 194 447 
54 7 309 403 417 440 361 210 160 
55 7 85 375 380 115 292 416 441 
56 7 41 145 175 10 100 212 233 
57 7 232 275 289 182 366 124 7 
58 7 44 120 257 113 118 296 149 
59 7 185 14 425 400 129 328 123 
60 7 225 250 95 350 168 293 94 
61 7 248 78 356 130 360 430 82 
62 7 188 171 84 128 274 110 207 
63 7 16 314 47 167 140 142 230 
64 7 219 258 75 284 71 161 97 
65 7 117 52 269 164 357 365 439 
66 7 90 209 345 30 141 337 178 
67 7 91 4 393 234 239 374 362 
68 5 260 199 86 450 244 
69 5 264 234 239 154 273 
70 7 121 125 197 451 460 157 110 
71 7 258 219 284 161 64 18 226 
72 7 459 115 375 331 192 85 180 
73 7 411 243 77 291 279 233 10 
74 7 263 6 116 151 206 462 310 
75 7 64 219 258 97 284 122 268 
76 7 339 216 230 47 427 152 455 
77 7 243 411 291 73 279 233 156 
78 7 356 61 248 255 130 114 360 
79 7 307 303 436 150 399 306 463 
80 7 426 136 135 453 92 325 401 
81 7 236 286 20 193 217 5 51 
82 7 434 430 130 134 61 22 248 
83 7 170 278 42 256 38 285 177 
84 7 128 207 274 162 62 188 313 
85 7 55 375 459 115 292 72 380 
86 6 244 199 68 260 450 40 
87 7 272 283 445 177 344 111 196 
88 7 211 259 379 249 192 331 368 
89 7 31 187 237 153 127 25 22 
90 7 66 209 345 30 141 337 178 
91 7 67 393 4 374 113 234 37 
92 7 325 426 80 352 401 453 318 
93 7 428 383 432 381 12 259 290 
94 7 293 225 60 279 250 350 95 
95 7 250 168 225 238 60 350 281 
96 7 224 181 147 161 191 75 122 
97 7 268 107 3 75 287 64 122 
98 7 319 362 186 262 239 234 4 
99 5 235 457 169 390 358 
100 7 41 204 212 301 184 56 145 
101 7 49 193 205 20 29 254 286 
102 7 123 237 129 153 400 89 328 
103 7 365 164 117 357 252 43 231 
104 7 174 290 35 385 32 227 282 
105 7 195 27 176 254 220 277 241 
106 7 354 13 297 276 158 397 290 
107 7 3 268 97 287 133 301 184 
108 7 119 455 138 152 189 427 305 
109 7 53 415 324 317 341 194 447 
110 7 125 460 197 70 406 155 121 
111 7 177 445 87 272 300 283 196 
112 7 118 223 296 218 217 58 179 
113 7 44 5 257 91 296 58 374 
114 7 370 159 376 130 430 78 255 
115 7 375 459 55 72 85 348 180 
116 7 206 263 388 437 449 34 74 
117 7 164 365 65 357 103 52 269 
118 7 296 217 257 5 112 44 58 
119 7 455 108 152 189 427 138 414 
120 7 149 58 374 44 37 354 276 
121 7 70 197 125 288 157 460 451 
122 7 287 75 268 97 224 3 64 
123 7 129 102 400 237 59 153 328 
124 7 366 21 433 407 247 9 190 
125 6 197 460 70 121 110 288 
126 7 391 253 389 321 315 435 311 
127 7 31 89 299 59 129 123 237 
128 7 84 207 274 162 62 313 188 
129 7 400 123 102 59 328 237 425 
130 7 430 114 61 370 82 78 356 
131 7 196 300 344 445 267 283 271 
132 7 42 278 170 256 83 38 272 
133 7 301 184 204 100 3 107 41 
134 7 22 434 82 299 31 430 130 
135 7 136 80 426 453 92 325 401 
136 7 135 80 426 453 423 92 325 
137 7 173 25 147 181 153 187 89 
138 7 108 47 455 119 152 427 230 
139 7 280 19 179 222 172 223 81 
140 7 443 142 343 138 63 144 108 
141 3 337 209 66 
142 7 398 213 443 144 140 322 373 
143 4 8 405 378 322 
144 7 373 443 213 17 142 398 140 
145 7 10 41 56 100 204 184 73 
146 7 392 295 135 24 424 136 339 
147 7 181 137 173 25 96 187 218 
148 7 46 166 7 162 275 182 207 
149 7 37 374 120 35 32 393 354 
150 7 307 79 408 340 303 28 436 
151 7 462 281 206 263 74 116 6 
152 7 427 455 119 108 189 138 47 
153 7 237 89 102 25 187 173 31 
154 4 273 264 69 241 
155 6 409 406 333 2 110 171 
156 7 240 281 233 291 77 225 462 
157 7 33 251 265 451 121 70 288 
158 7 397 13 11 297 323 404 12 
159 4 376 370 114 424 
160 7 334 346 403 417 361 54 309 
161 7 258 191 71 219 64 224 75 
162 7 128 207 84 46 274 148 7 
163 7 458 315 389 126 351 391 321 
164 7 365 357 117 103 252 65 43 
165 7 368 271 379 249 267 211 88 
166 7 148 46 7 162 207 275 182 
167 6 50 214 314 355 16 386 
168 7 95 250 238 60 225 350 109 
169 3 358 235 99 
170 7 42 278 256 83 132 38 285 
171 6 62 155 110 409 406 188 
172 7 19 226 222 139 18 280 205 
173 7 25 137 147 153 187 181 89 
174 2 381 104 
175 7 56 233 240 291 347 328 41 
176 7 27 195 105 220 277 254 241 
177 7 111 272 83 87 445 170 42 
178 3 371 345 30 
179 7 223 280 139 191 222 217 226 
180 7 348 201 115 383 375 192 331 
181 7 147 137 218 173 25 96 246 
182 7 289 275 57 232 313 274 7 
183 7 369 26 28 408 297 340 255 
184 7 301 204 133 100 41 10 145 
185 6 14 59 425 400 310 129 
186 7 319 312 48 98 227 452 413 
187 7 89 31 25 153 173 237 22 
188 7 62 274 460 110 190 313 171 
189 7 119 455 108 152 414 427 412 
190 6 247 433 21 454 124 9 
191 7 161 223 258 71 179 222 219 
192 7 331 211 88 72 180 259 348 
193 7 20 286 205 81 49 236 51 
194 4 329 324 415 53 
195 7 254 105 176 27 220 277 29 
196 7 131 300 445 344 283 267 111 
197 6 125 121 460 70 288 110 
198 5 372 231 43 252 229 
199 5 450 86 68 244 260 
200 7 294 439 52 269 65 117 40 
201 7 348 180 115 375 383 416 381 
202 7 228 279 94 293 243 73 77 
203 4 387 432 12 11 
204 7 184 301 133 100 41 10 145 
205 7 20 193 19 49 101 286 81 
206 7 116 388 263 462 437 151 449 
207 7 128 84 274 162 313 182 188 
208 6 24 342 295 216 448 339 
209 7 90 66 141 337 345 57 275 
210 6 440 54 309 402 403 361 
211 7 88 192 331 259 379 249 368 
212 7 100 56 41 204 287 301 184 
213 7 17 144 398 322 142 373 443 
214 6 386 50 167 261 355 394 
215 3 422 39 458 
216 7 76 339 427 208 152 342 24 
217 7 296 118 257 5 81 236 179 
218 7 181 246 147 112 96 363 137 
219 7 258 64 71 284 161 75 18 
220 7 277 27 176 105 241 195 254 
221 2 326 2 
222 7 226 18 172 71 139 280 179 
223 7 179 191 280 139 222 161 112 
224 7 96 161 75 191 122 258 64 
225 7 60 250 95 168 293 94 350 
226 7 222 18 172 71 19 139 258 
227 5 452 385 312 48 413 
228 7 202 279 94 293 243 77 60 
229 4 231 252 198 43 
230 7 47 76 339 138 427 152 63 
231 5 198 43 252 372 229 
232 7 289 57 366 275 182 124 407 
233 7 291 240 156 77 175 243 411 
234 5 239 362 4 264 262 
235 5 457 99 169 390 358 
236 7 286 81 245 51 5 193 266 
237 7 153 102 123 89 31 129 187 
238 7 95 168 250 281 225 60 206 
239 5 234 362 264 262 4 
240 7 156 233 281 291 462 151 77 
241 7 29 277 176 266 220 69 154 
242 5 353 394 336 261 8 
243 7 77 411 73 291 279 233 156 
244 6 86 199 68 260 450 40 
245 7 51 266 236 5 286 29 81 
246 7 360 363 248 61 434 218 82 
247 6 190 21 433 124 454 9 
248 7 61 360 356 78 363 130 255 
249 7 379 368 165 88 271 211 30 
250 7 95 168 225 60 238 350 293 
251 6 265 451 33 378 405 157 
252 7 43 231 229 357 103 198 365 
253 7 391 126 389 435 315 321 311 
254 7 195 176 105 27 29 241 101 
255 7 78 356 370 150 114 26 376 
256 7 278 42 170 38 83 285 132 
257 7 296 5 118 44 217 113 58 
258 7 219 71 161 64 284 75 191 
259 7 88 211 383 192 93 331 180 
260 2 68 199 
261 4 394 386 50 214 
262 5 362 239 234 98 264 
263 7 74 116 206 34 388 151 449 
264 5 239 234 69 362 262 
265 7 451 251 157 33 70 378 405 
266 7 51 245 29 286 236 241 193 
267 7 131 165 196 368 300 271 331 
268 7 97 3 107 287 75 122 64 
269 7 52 65 439 117 200 294 164 
270 3 17 213 373 
271 7 165 368 379 249 267 344 131 
272 7 87 283 177 445 111 344 132 
273 4 154 264 69 241 
274 7 313 207 128 84 182 188 289 
275 7 57 289 182 232 7 366 313 
276 7 354 106 297 120 13 183 149 
277 7 220 27 176 241 105 195 154 
278 7 42 170 256 132 83 38 285 
279 7 243 77 94 411 73 293 291 
280 7 139 179 19 223 222 81 172 
281 7 462 151 240 156 238 206 95 
282 7 32 35 37 385 393 227 4 
283 7 344 445 87 196 131 272 300 
284 7 219 64 71 258 18 75 161 
285 7 38 256 83 278 170 42 132 
286 7 236 193 81 20 51 266 245 
287 7 122 268 3 97 107 75 212 
288 6 121 197 364 125 460 70 
289 7 232 57 182 275 366 313 124 
290 7 12 432 428 104 93 397 174 
291 7 233 77 243 411 240 156 73 
292 5 441 380 55 416 85 
293 7 94 60 225 350 250 279 95 
294 7 200 439 52 269 65 40 117 
295 7 24 208 342 392 448 146 216 
296 7 118 257 217 5 44 236 81 
297 7 13 158 369 183 106 276 397 
298 7 437 388 429 449 447 34 341 
299 7 22 134 127 434 31 448 392 
300 7 131 196 445 344 283 267 111 
301 7 184 133 204 100 41 3 10 
302 3 413 48 312 
303 7 436 399 79 307 306 463 456 
304 6 45 410 431 419 359 420 
305 4 343 412 414 108 
306 7 36 399 463 367 436 456 303 
307 6 79 303 150 436 399 306 
308 3 338 15 9 
309 7 403 54 417 346 210 440 361 
310 2 14 74 
311 4 327 321 126 435 
312 7 48 452 227 413 186 302 385 
313 7 274 182 433 289 190 124 247 
314 7 167 16 63 50 398 353 214 
315 7 389 126 391 253 321 163 351 
316 4 395 330 23 396 
317 5 341 447 53 109 194 
318 3 418 352 92 
319 7 186 98 48 312 413 362 302 
320 6 384 367 36 306 396 399 
321 6 389 126 311 391 327 253 
322 7 398 213 142 17 8 144 314 
323 7 404 23 330 396 395 316 11 
324 6 415 194 329 53 109 317 
325 6 92 426 80 352 453 401 
326 3 221 2 333 
327 4 311 321 435 126 
328 7 347 400 425 129 6 59 14 
329 4 194 324 415 53 
330 6 23 404 395 323 396 316 
331 7 192 211 72 180 459 88 115 
332 6 421 456 442 463 36 399 
333 6 2 406 326 155 409 221 
334 4 160 349 45 346 
335 4 336 33 364 15 
336 4 335 242 33 394 
337 1 141 
338 6 308 15 454 9 364 382 
339 7 76 216 230 47 427 24 146 
340 7 408 28 150 26 79 307 369 
341 5 447 317 53 109 298 
342 5 208 24 295 216 448 
343 5 305 140 108 412 138 
344 7 283 196 131 445 300 87 271 
345 5 30 178 371 66 90 
346 6 417 403 160 461 309 54 
347 7 328 6 425 400 74 129 14 
348 7 201 180 115 375 383 416 381 
349 3 334 420 45 
350 7 60 250 168 225 95 293 94 
351 6 315 253 391 126 389 435 
352 4 318 418 325 92 
353 6 242 394 50 261 214 386 
354 7 106 276 149 120 37 297 35 
355 5 167 214 386 50 401 
356 7 78 248 61 255 360 130 114 
357 7 164 365 117 103 252 65 43 
358 3 169 235 99 
359 6 431 419 45 461 304 410 
360 7 363 248 61 356 78 246 255 
361 5 440 54 403 160 309 
362 5 234 239 262 98 4 
363 7 360 248 356 61 78 246 255 
364 6 15 454 338 288 308 335 
365 7 164 103 117 357 252 65 43 
366 7 124 407 21 232 433 9 247 
367 7 36 306 463 456 442 399 320 
368 7 165 379 249 271 267 88 211 
369 7 183 26 28 408 340 297 150 
370 6 114 376 159 130 430 255 
371 3 178 345 30 
372 4 198 231 43 229 
373 6 144 443 17 213 142 398 
374 7 393 37 149 91 120 32 35 
375 7 115 55 459 85 72 348 416 
376 3 159 370 114 
377 3 444 429 34 
378 6 405 33 251 157 265 8 
379 7 249 368 165 88 271 211 192 
380 5 416 441 55 292 375 
381 6 174 383 428 93 201 348 
382 4 407 9 124 338 
383 7 180 259 93 348 381 201 428 
384 5 320 367 396 36 306 
385 5 227 452 312 48 413 
386 5 214 50 261 167 355 
387 4 203 11 12 432 
388 7 437 449 116 298 34 206 429 
389 6 126 315 391 321 253 311 
390 3 457 235 99 
391 7 253 126 389 435 315 321 311 
392 7 146 295 448 24 299 424 208 
393 7 374 91 37 67 149 32 4 
394 4 353 242 261 50 
395 6 330 23 396 316 404 323 
396 6 23 395 330 404 384 323 
397 7 158 11 13 12 387 203 432 
398 7 322 213 142 17 144 314 443 
399 7 436 463 306 303 456 36 79 
400 7 129 123 59 328 425 102 14 
401 5 92 80 325 418 426 
402 4 440 210 361 54 
403 7 417 309 54 346 160 361 440 
404 7 323 23 330 396 395 316 320 
405 6 378 33 251 157 265 8 
406 6 155 409 333 2 110 326 
407 5 382 9 124 366 21 
408 7 340 28 150 26 307 79 369 
409 5 155 406 333 2 221 
410 5 419 304 431 359 45 
411 7 243 73 77 291 233 279 145 
412 4 414 305 189 108 
413 3 302 48 312 
414 5 412 189 305 119 108 
415 7 324 53 109 194 329 317 341 
416 4 380 55 441 292 
417 6 403 309 346 54 160 361 
418 4 318 352 92 325 
419 6 410 431 359 304 45 461 
420 4 304 45 349 410 
421 5 332 442 456 463 36 
422 4 39 215 458 163 
423 3 453 136 426 
424 4 159 376 423 114 
425 7 14 59 185 328 400 347 129 
426 7 80 453 136 92 325 135 423 
427 7 152 455 119 108 189 138 47 
428 7 93 432 290 381 12 383 174 
429 5 377 444 449 34 298 
430 7 130 114 82 370 61 159 78 
431 6 359 419 45 304 410 461 
432 7 12 203 290 428 387 93 397 
433 7 21 247 124 190 366 9 313 
434 7 82 134 22 430 130 61 299 
435 5 253 391 126 311 327 
436 7 303 399 463 306 456 79 307 
437 7 388 298 449 34 116 429 206 
438 3 48 302 319 
439 7 200 294 52 269 65 117 164 
440 6 361 54 210 402 309 403 
441 4 292 380 416 55 
442 6 367 36 456 332 463 421 
443 7 144 373 142 140 213 17 398 
444 3 377 429 34 
445 7 196 283 300 344 111 131 87 
446 5 189 152 455 427 119 
447 5 341 317 53 298 109 
448 7 295 392 299 24 208 342 127 
449 7 34 388 437 429 444 298 116 
450 5 199 68 86 402 210 
451 7 265 251 157 70 2 33 121 
452 5 227 385 312 413 48 
453 6 426 136 423 80 135 325 
454 6 338 15 364 9 247 21 
455 7 152 119 427 108 189 138 47 
456 7 463 36 399 306 436 367 332 
457 3 390 235 99 
458 7 163 315 389 215 321 126 422 
459 7 72 375 115 85 55 331 180 
460 6 197 125 110 121 70 288 
461 6 359 431 45 419 304 346 
462 7 151 281 206 116 263 74 238 
463 7 456 36 399 306 436 367 303 
DEPOT_SECTION
   1
   -1
EOF
