NAME :  X-n749-kX-w299-c7.cctp
COMMENT : 	Adapted by Maziero, Usberti and Cavellucci from the Uchoa, Pecin, Pessoa, Poggi, Subramanian, and Vidal (2013)
TYPE :  CCTP
DIMENSION :    744
EDGE_WEIGHT_TYPE : 	EUC_2D	
CAPACITY : 	396
VERTICES_WITHIN_COVERAGE :  7
VERTICES_WITH_DEMAND : 	299
NODE_COORD_SECTION
1 643 512
2 707 407
3 394 355
4 140 470
5 364 215
6 493 857
7 117 466
8 462 38
9 551 479
10 545 460
11 423 274
12 440 602
13 525 357
14 574 994
15 387 377
16 583 424
17 16 481
18 615 427
19 511 799
20 110 518
21 223 506
22 163 520
23 834 419
24 442 482
25 42 547
26 478 421
27 372 108
28 320 252
29 731 372
30 341 234
31 787 331
32 433 254
33 555 397
34 640 350
35 565 185
36 320 196
37 64 374
38 283 411
39 46 582
40 328 453
41 779 448
42 602 152
43 466 934
44 280 317
45 403 425
46 482 80
47 504 575
48 649 348
49 388 331
50 518 731
51 550 364
52 745 421
53 384 205
54 236 226
55 602 498
56 670 80
57 380 177
58 135 333
59 594 841
60 189 250
61 682 470
62 515 19
63 311 39
64 398 363
65 217 615
66 530 879
67 410 679
68 382 240
69 146 456
70 543 339
71 316 436
72 397 382
73 507 783
74 436 314
75 88 469
76 127 428
77 158 431
78 639 444
79 722 341
80 121 445
81 470 876
82 452 69
83 82 446
84 353 318
85 220 551
86 534 495
87 502 5
88 411 463
89 338 218
90 282 593
91 457 514
92 321 215
93 363 948
94 524 256
95 642 783
96 722 576
97 265 503
98 113 541
99 638 920
100 523 805
101 722 444
102 364 408
103 310 484
104 519 392
105 240 338
106 662 429
107 603 451
108 336 290
109 759 337
110 64 496
111 490 148
112 297 386
113 167 488
114 402 351
115 424 152
116 472 108
117 580 538
118 157 385
119 695 410
120 104 462
121 404 98
122 114 450
123 456 111
124 756 305
125 446 59
126 711 772
127 86 489
128 557 516
129 440 70
130 44 553
131 618 456
132 404 261
133 460 908
134 542 837
135 379 268
136 633 383
137 331 210
138 706 444
139 570 378
140 218 347
141 47 445
142 514 367
143 175 505
144 198 390
145 586 552
146 386 95
147 855 567
148 734 396
149 301 140
150 93 530
151 791 501
152 417 932
153 389 341
154 479 232
155 527 829
156 378 185
157 447 23
158 665 479
159 306 896
160 527 14
161 517 904
162 441 419
163 325 83
164 766 356
165 213 449
166 337 208
167 62 529
168 523 506
169 470 121
170 510 286
171 620 439
172 79 545
173 426 246
174 335 881
175 772 362
176 486 62
177 156 404
178 418 385
179 393 293
180 511 494
181 650 348
182 830 577
183 271 262
184 411 558
185 691 255
186 646 356
187 696 414
188 728 486
189 445 131
190 123 427
191 832 697
192 452 828
193 373 318
194 502 188
195 202 424
196 424 669
197 37 391
198 527 551
199 467 76
200 47 399
201 519 673
202 177 563
203 694 337
204 123 536
205 451 780
206 432 394
207 379 160
208 343 284
209 661 442
210 513 508
211 545 767
212 109 240
213 512 821
214 398 332
215 178 479
216 604 453
217 446 505
218 662 382
219 98 478
220 619 86
221 516 265
222 138 412
223 440 331
224 111 379
225 313 75
226 391 814
227 378 124
228 345 109
229 140 505
230 369 214
231 411 92
232 471 938
233 295 494
234 406 535
235 674 546
236 507 9
237 337 217
238 557 465
239 694 200
240 143 453
241 488 429
242 68 566
243 594 723
244 397 360
245 671 843
246 801 435
247 142 482
248 323 793
249 6 644
250 515 950
251 119 570
252 367 377
253 147 488
254 414 917
255 339 119
256 108 87
257 96 431
258 666 440
259 605 490
260 575 507
261 532 463
262 691 613
263 115 540
264 202 497
265 48 487
266 452 152
267 518 830
268 45 426
269 5 557
270 473 812
271 655 506
272 571 78
273 98 491
274 468 325
275 452 156
276 65 509
277 493 503
278 128 283
279 439 366
280 542 852
281 722 697
282 327 183
283 689 497
284 643 790
285 87 460
286 518 247
287 595 425
288 329 840
289 345 290
290 69 439
291 358 159
292 121 388
293 719 414
294 577 932
295 644 669
296 487 810
297 456 549
298 419 419
299 220 574
300 396 468
301 527 214
302 458 24
303 527 678
304 91 444
305 634 503
306 355 117
307 660 435
308 149 516
309 121 467
310 365 233
311 564 673
312 643 335
313 948 666
314 594 567
315 368 64
316 448 908
317 470 869
318 305 267
319 354 303
320 469 868
321 582 349
322 727 340
323 735 436
324 460 476
325 715 554
326 461 906
327 179 434
328 498 36
329 456 827
330 304 429
331 367 144
332 212 389
333 479 327
334 188 416
335 604 443
336 558 409
337 489 275
338 371 88
339 513 866
340 77 520
341 388 135
342 277 459
343 412 274
344 629 454
345 187 463
346 403 56
347 537 411
348 693 319
349 603 794
350 371 214
351 506 171
352 98 529
353 476 2
354 404 102
355 415 273
356 646 464
357 578 488
358 404 330
359 80 541
360 512 538
361 13 417
362 109 606
363 482 173
364 654 46
365 14 285
366 483 231
367 501 824
368 95 565
369 526 585
370 664 331
371 56 415
372 560 452
373 398 275
374 388 344
375 350 350
376 148 546
377 419 366
378 37 552
379 510 758
380 154 358
381 588 23
382 317 496
383 610 553
384 101 531
385 597 86
386 123 393
387 682 434
388 779 374
389 118 357
390 478 137
391 458 252
392 496 396
393 235 313
394 725 432
395 492 69
396 443 349
397 429 390
398 443 58
399 340 304
400 361 281
401 358 258
402 289 187
403 313 208
404 497 189
405 297 425
406 443 516
407 543 458
408 797 465
409 513 45
410 416 336
411 564 201
412 435 16
413 357 400
414 537 509
415 364 62
416 709 500
417 539 440
418 179 201
419 492 865
420 429 5
421 126 408
422 667 984
423 265 491
424 541 338
425 399 351
426 100 480
427 327 163
428 678 434
429 173 106
430 438 63
431 327 276
432 98 557
433 346 168
434 135 440
435 386 214
436 345 84
437 79 687
438 516 484
439 773 468
440 244 603
441 45 401
442 87 537
443 261 108
444 390 262
445 451 812
446 384 935
447 448 83
448 515 532
449 489 973
450 657 919
451 338 317
452 114 522
453 334 393
454 293 326
455 648 460
456 420 336
457 393 348
458 334 288
459 672 434
460 177 517
461 350 158
462 643 781
463 514 33
464 662 863
465 254 350
466 402 378
467 332 925
468 710 395
469 388 325
470 256 400
471 207 297
472 532 516
473 800 371
474 64 440
475 574 924
476 398 75
477 509 86
478 455 472
479 478 223
480 31 603
481 120 491
482 141 450
483 468 101
484 268 677
485 85 472
486 387 214
487 426 270
488 381 324
489 178 485
490 457 865
491 562 354
492 567 453
493 640 442
494 413 912
495 403 427
496 523 918
497 348 343
498 389 370
499 453 486
500 573 379
501 191 580
502 666 551
503 423 683
504 319 275
505 612 413
506 459 44
507 683 490
508 786 466
509 428 878
510 596 138
511 473 859
512 592 373
513 381 210
514 127 314
515 716 359
516 384 243
517 93 482
518 760 471
519 194 604
520 377 303
521 768 315
522 727 512
523 421 623
524 109 807
525 409 79
526 55 365
527 508 407
528 399 120
529 729 403
530 197 490
531 492 445
532 338 393
533 146 443
534 241 369
535 641 437
536 716 603
537 646 486
538 598 569
539 132 542
540 384 384
541 617 237
542 609 513
543 449 444
544 808 393
545 626 449
546 773 960
547 670 376
548 777 492
549 146 551
550 449 809
551 828 575
552 360 508
553 94 660
554 473 382
555 470 821
556 434 322
557 763 520
558 170 460
559 354 262
560 44 445
561 301 175
562 717 388
563 123 484
564 843 415
565 69 466
566 796 452
567 332 777
568 413 237
569 351 384
570 721 522
571 821 294
572 185 440
573 396 325
574 272 191
575 419 258
576 391 760
577 515 18
578 637 988
579 876 412
580 327 110
581 90 512
582 630 373
583 680 354
584 224 510
585 564 151
586 528 173
587 474 967
588 414 347
589 135 481
590 455 897
591 453 24
592 332 558
593 516 867
594 562 814
595 418 933
596 511 480
597 551 776
598 725 450
599 641 263
600 469 558
601 101 446
602 43 517
603 517 138
604 123 383
605 567 415
606 399 115
607 99 504
608 209 156
609 724 617
610 570 935
611 664 488
612 479 56
613 432 59
614 755 709
615 649 209
616 351 149
617 387 178
618 80 463
619 360 169
620 541 838
621 640 488
622 298 260
623 287 721
624 382 315
625 659 867
626 322 258
627 205 652
628 616 354
629 218 21
630 529 714
631 828 384
632 630 396
633 374 408
634 558 250
635 477 75
636 43 364
637 404 366
638 590 632
639 526 74
640 353 335
641 571 270
642 83 360
643 459 934
644 196 555
645 202 337
646 200 385
647 123 437
648 682 409
649 409 376
650 476 39
651 461 174
652 531 448
653 467 127
654 566 402
655 549 831
656 379 273
657 133 461
658 469 68
659 302 430
660 66 510
661 517 292
662 557 57
663 380 411
664 89 524
665 544 311
666 429 219
667 539 887
668 498 861
669 451 15
670 445 659
671 400 240
672 298 186
673 437 355
674 250 655
675 534 558
676 456 479
677 506 804
678 148 404
679 308 962
680 296 419
681 368 320
682 466 505
683 388 190
684 577 164
685 417 375
686 535 830
687 784 347
688 435 53
689 393 173
690 520 751
691 611 658
692 644 335
693 683 655
694 111 557
695 453 44
696 215 464
697 416 198
698 491 848
699 261 548
700 334 468
701 558 308
702 180 394
703 535 942
704 656 628
705 446 325
706 647 503
707 624 371
708 271 71
709 364 389
710 468 103
711 217 249
712 550 410
713 339 322
714 532 826
715 96 395
716 543 380
717 30 452
718 60 500
719 357 65
720 358 152
721 577 491
722 718 433
723 232 501
724 346 235
725 358 411
726 663 543
727 459 113
728 49 567
729 436 854
730 136 439
731 765 305
732 529 87
733 130 452
734 490 841
735 592 865
736 283 390
737 357 323
738 323 281
739 533 53
740 746 699
741 358 957
742 400 325
743 150 462
744 395 247
DEMAND_SECTION
2 86
3 42
4 29
5 22
6 21
7 61
8 22
9 12
10 72
11 71
12 28
13 16
14 14
15 4
16 74
17 64
18 40
19 38
20 64
21 46
22 65
23 82
24 99
25 65
26 53
27 1
28 13
29 29
30 68
31 64
32 37
33 52
34 47
35 7
36 86
37 88
38 9
39 36
40 80
41 91
42 75
43 42
44 75
45 94
46 23
47 48
48 33
49 22
50 63
51 80
52 6
53 21
54 39
55 61
56 55
57 15
58 56
59 35
60 86
61 93
62 32
63 5
64 15
65 14
66 71
67 10
68 57
69 39
70 70
71 19
72 40
73 90
74 42
75 48
76 43
77 35
78 68
79 9
80 63
81 92
82 76
83 79
84 100
85 63
86 37
87 94
88 76
89 93
90 99
91 73
92 68
93 53
94 33
95 59
96 79
97 45
98 10
99 91
100 20
101 39
102 6
103 100
104 29
105 26
106 24
107 29
108 9
109 5
110 52
111 79
112 92
113 89
114 30
115 76
116 25
117 38
118 62
119 71
120 90
121 15
122 35
123 57
124 38
125 74
126 75
127 17
128 55
129 62
130 18
131 89
132 52
133 55
134 20
135 70
136 76
137 13
138 77
139 26
140 52
141 69
142 77
143 48
144 48
145 29
146 80
147 12
148 59
149 11
150 18
151 82
152 27
153 97
154 18
155 28
156 74
157 23
158 60
159 69
160 73
161 80
162 48
163 47
164 32
165 51
166 17
167 20
168 9
169 68
170 52
171 80
172 51
173 93
174 48
175 6
176 60
177 29
178 79
179 27
180 80
181 48
182 6
183 18
184 13
185 54
186 99
187 26
188 54
189 64
190 91
191 7
192 61
193 15
194 54
195 5
196 39
197 95
198 98
199 40
200 55
201 6
202 3
203 32
204 82
205 43
206 66
207 46
208 55
209 2
210 79
211 62
212 67
213 14
214 31
215 70
216 77
217 2
218 33
219 91
220 56
221 64
222 73
223 21
224 46
225 81
226 87
227 3
228 49
229 51
230 68
231 21
232 44
233 43
234 84
235 21
236 25
237 84
238 36
239 56
240 62
241 66
242 34
243 58
244 96
245 76
246 96
247 28
248 48
249 56
250 73
251 64
252 59
253 88
254 7
255 1
256 57
257 96
258 2
259 82
260 42
261 85
262 28
263 54
264 3
265 94
266 46
267 89
268 57
269 82
270 61
271 29
272 9
273 35
274 98
275 55
276 47
277 98
278 3
279 83
280 53
281 33
282 71
283 87
284 40
285 1
286 97
287 38
288 22
289 74
290 52
291 82
292 96
293 62
294 83
295 28
296 61
297 75
298 44
299 76
300 56
COVERAGE_SECTION
2 7 119 468 187 293 562 529 648 
3 7 244 425 457 64 114 374 153 
4 7 657 247 589 743 69 240 253 
5 7 230 350 310 513 53 435 486 
6 7 668 419 698 734 511 339 593 
7 7 309 120 122 657 563 733 80 
8 7 506 695 650 302 591 157 612 
9 7 238 10 407 86 261 357 372 
10 7 407 238 261 372 652 9 417 
11 7 487 355 343 575 32 132 373 
12 7 523 184 600 297 670 47 196 
13 7 142 70 424 51 716 104 491 
14 7 610 294 578 703 475 250 449 
15 7 498 540 72 466 64 244 252 
16 7 287 605 335 654 336 505 18 
17 7 717 265 602 560 141 718 110 
18 7 171 505 335 287 545 107 216 
19 7 677 100 73 213 296 367 267 
20 7 452 352 384 607 150 581 204 
21 7 584 723 264 530 97 696 85 
22 7 460 308 143 229 376 113 549 
23 7 564 631 246 544 579 566 408 
24 7 499 676 478 324 217 682 406 
25 7 130 378 728 167 602 242 39 
26 7 241 531 392 527 162 543 554 
27 7 227 146 306 338 228 606 528 
28 7 626 318 504 622 431 30 738 
29 7 515 562 148 468 529 79 322 
30 7 724 89 237 310 137 166 28 
31 7 687 521 109 164 175 731 124 
32 7 173 575 487 11 391 355 568 
33 7 336 654 712 716 605 347 139 
34 7 186 48 181 312 692 628 582 
35 7 411 684 585 586 301 42 510 
36 7 403 282 137 92 166 672 237 
37 7 526 636 642 200 197 441 715 
38 7 680 405 736 659 330 112 470 
39 7 728 480 242 130 378 25 269 
40 7 700 71 330 659 103 405 382 
41 7 566 508 439 408 246 518 52 
42 7 510 684 585 35 411 385 220 
43 7 232 643 133 326 316 587 590 
44 5 454 465 105 393 183 
45 7 495 298 663 633 162 88 206 
46 7 635 395 199 176 658 612 483 
47 7 369 198 675 360 600 448 297 
48 7 181 34 186 312 692 370 582 
49 7 469 153 214 488 573 374 742 
50 7 630 690 379 211 73 303 597 
51 7 491 716 139 13 70 500 424 
52 7 323 394 529 148 293 722 101 
53 7 513 435 486 350 683 230 156 
54 7 711 183 574 60 418 402 622 
55 7 259 542 357 721 260 305 621 
56 7 364 220 385 510 42 272 381 
57 7 617 156 689 683 207 619 53 
58 7 514 389 380 278 604 224 118 
59 7 735 594 655 349 134 280 620 
60 7 711 418 471 54 278 393 212 
61 7 158 507 611 283 258 138 209 
62 7 577 160 236 463 87 328 409 
63 7 225 163 708 719 436 415 315 
64 7 244 637 3 498 425 114 457 
65 7 519 440 627 299 501 674 85 
66 7 667 593 339 161 280 668 419 
67 7 503 196 670 523 12 576 201 
68 7 516 744 310 671 444 435 486 
69 7 240 743 482 533 657 4 733 
70 7 424 491 13 51 665 701 142 
71 7 330 659 40 405 680 700 38 
72 7 466 15 540 649 498 637 64 
73 7 19 677 379 100 296 690 213 
74 7 556 705 223 456 410 274 358 
75 7 485 285 618 219 517 426 120 
76 7 190 647 434 730 80 222 421 
77 7 533 327 730 434 482 177 240 
78 7 493 535 344 545 455 171 356 
79 7 322 515 203 29 348 109 583 
80 7 647 122 733 434 730 76 190 
81 7 317 320 490 511 419 590 6 
82 7 125 129 398 430 447 199 658 
83 7 304 285 290 618 474 601 257 
84 7 737 319 451 681 713 640 399 
85 7 299 644 501 584 699 21 202 
86 7 414 168 438 472 9 180 210 
87 7 236 577 62 353 160 463 328 
88 7 300 24 495 45 543 298 478 
89 7 237 166 137 30 92 724 5 
90 7 440 699 592 299 65 674 85 
91 7 682 217 406 499 24 297 676 
92 7 137 403 237 89 166 36 30 
93 7 741 446 467 152 595 679 254 
94 7 286 221 170 634 661 337 301 
95 7 462 284 349 245 126 59 243 
96 7 325 536 609 262 570 235 502 
97 7 423 233 723 21 584 699 342 
98 7 263 204 384 694 352 452 539 
99 7 450 625 294 464 475 578 422 
100 7 19 677 213 714 155 267 73 
101 7 598 394 722 323 138 293 52 
102 7 725 633 413 663 709 569 532 
103 7 382 233 700 40 342 423 71 
104 7 527 392 142 347 716 13 33 
105 7 465 140 393 534 645 44 471 
106 7 307 459 258 209 428 387 535 
107 7 216 335 131 171 545 344 18 
108 7 458 208 289 399 738 431 319 
109 7 164 521 687 175 31 124 322 
110 7 718 276 660 265 127 340 565 
111 7 390 363 351 603 653 169 266 
112 7 736 38 680 453 405 532 470 
113 7 489 215 143 253 247 558 530 
114 7 425 3 457 244 64 588 637 
115 7 266 275 189 689 341 528 651 
116 7 710 483 169 727 123 653 46 
117 7 145 260 128 314 383 538 542 
118 7 177 678 702 380 222 604 386 
119 7 187 2 648 468 293 387 428 
120 7 7 122 601 75 219 285 309 
121 7 354 231 146 606 525 528 476 
122 7 80 601 7 120 647 733 309 
123 7 727 710 116 483 169 653 189 
124 7 731 521 109 31 322 79 687 
125 7 398 430 82 129 688 613 695 
126 7 462 95 284 281 614 245 740 
127 7 517 273 219 426 485 75 607 
128 7 260 414 472 86 117 721 168 
129 7 430 82 398 125 613 447 688 
130 7 25 378 728 242 39 167 172 
131 7 344 545 216 107 171 335 78 
132 7 444 343 373 575 355 744 671 
133 7 326 316 590 643 43 232 81 
134 7 620 655 686 280 714 155 267 
135 7 656 444 373 400 401 516 132 
136 7 582 632 707 218 186 34 628 
137 7 166 237 89 92 36 403 30 
138 7 101 722 598 394 387 323 428 
139 7 500 512 33 51 654 491 716 
140 7 645 105 534 465 393 332 646 
141 7 560 474 717 268 290 565 371 
142 7 13 104 716 392 51 70 424 
143 7 460 22 113 489 215 530 264 
144 7 646 332 702 334 195 118 177 
145 7 117 314 538 383 542 128 260 
146 7 338 121 27 354 476 606 231 
147 7 182 551 151 557 548 408 508 
148 7 529 562 293 29 468 52 2 
149 7 427 561 580 255 672 402 282 
150 7 352 664 384 442 359 581 340 
151 7 548 557 508 408 439 518 566 
152 7 595 254 494 446 316 643 43 
153 7 374 457 49 214 425 3 114 
154 7 366 479 391 286 337 404 194 
155 7 714 686 267 134 213 620 655 
156 7 57 617 683 689 53 619 207 
157 7 591 669 302 412 8 695 506 
158 7 611 61 537 507 356 455 621 
159 7 174 467 288 679 93 741 446 
160 7 62 577 236 463 87 409 328 
161 7 496 66 667 593 339 703 250 
162 7 298 543 206 397 26 45 495 
163 7 225 436 580 228 719 255 415 
164 7 175 109 687 388 31 473 29 
165 7 696 195 572 345 327 334 530 
166 7 137 237 89 92 36 403 30 
167 7 340 660 276 359 602 172 442 
168 7 210 472 414 86 180 438 448 
169 7 653 116 727 123 390 710 483 
170 7 661 221 337 94 286 665 333 
171 7 545 18 335 131 344 78 493 
172 7 359 442 150 432 167 664 242 
173 7 32 575 568 487 132 666 671 
174 7 159 288 467 93 446 741 494 
175 7 164 388 687 109 473 31 29 
176 7 395 612 635 46 658 199 650 
177 7 678 118 222 702 77 421 334 
178 7 685 397 649 206 466 377 72 
179 7 373 520 656 624 343 135 355 
180 7 438 210 596 168 277 86 414 
181 7 48 186 34 692 312 370 583 
182 7 551 147 151 557 548 96 609 
183 7 622 318 28 54 504 626 738 
184 7 234 297 12 406 600 91 217 
185 7 599 239 615 348 541 370 124 
186 7 34 48 181 312 692 582 707 
187 7 119 2 648 293 387 468 428 
188 7 416 522 518 598 570 283 101 
189 7 266 653 123 727 275 169 115 
190 7 76 647 80 434 730 421 222 
191 7 614 740 281 182 313 551 147 
192 7 329 445 550 555 270 729 490 
193 7 681 624 488 520 469 737 49 
194 7 404 351 363 586 301 111 479 
195 7 334 572 327 165 144 332 702 
196 7 503 67 670 523 12 201 576 
197 7 200 441 636 371 37 526 361 
198 7 675 360 448 47 369 472 414 
199 7 658 635 46 82 447 612 176 
200 7 441 197 371 268 37 526 636 
201 7 303 630 311 50 670 690 638 
202 7 644 501 549 376 299 519 22 
203 7 348 583 79 370 515 322 181 
204 7 263 98 539 452 20 384 694 
205 7 550 445 270 555 296 329 192 
206 7 397 178 685 162 298 279 649 
207 7 57 689 331 617 291 619 720 
208 7 289 108 458 400 431 399 738 
209 7 258 307 106 459 428 493 535 
210 7 168 180 277 472 414 438 448 
211 7 597 690 379 73 100 50 19 
212 7 278 514 418 60 58 365 711 
213 7 267 367 155 677 100 714 19 
214 7 358 573 742 49 469 153 374 
215 7 489 113 345 558 530 143 264 
216 7 107 335 131 171 545 344 18 
217 7 406 91 499 682 24 676 324 
218 7 547 136 186 582 583 648 632 
219 7 426 517 75 273 485 127 120 
220 7 385 272 56 364 510 42 662 
221 7 94 286 170 661 337 634 366 
222 7 421 678 76 177 190 386 730 
223 7 705 556 74 396 456 673 410 
224 7 292 604 386 715 389 421 642 
225 7 163 436 63 580 708 719 228 
226 7 576 550 445 729 192 329 288 
227 7 341 27 528 331 606 306 146 
228 7 255 306 580 436 27 163 338 
229 7 308 253 247 481 589 22 563 
230 7 350 5 513 53 435 486 310 
231 7 121 354 525 476 146 606 528 
232 7 43 643 587 133 326 316 449 
233 7 103 382 423 97 342 700 40 
234 7 184 406 217 297 552 91 24 
235 7 502 726 325 271 283 706 570 
236 7 87 577 62 160 463 328 353 
237 7 89 137 166 92 30 724 403 
238 7 10 372 9 407 492 261 357 
239 6 615 185 599 541 42 510 
240 7 69 482 533 743 657 733 434 
241 7 26 531 527 392 543 652 104 
242 7 728 172 39 130 368 359 432 
243 7 311 211 630 691 597 349 295 
244 7 64 3 425 637 114 457 498 
245 7 464 625 284 95 462 59 450 
246 7 566 41 408 508 23 439 544 
247 7 589 253 4 563 743 229 657 
248 7 567 288 226 576 623 174 159 
249 7 480 39 437 269 728 553 378 
250 7 703 496 449 587 161 232 43 
251 7 694 368 432 98 263 539 549 
252 7 709 569 540 15 498 413 72 
253 7 247 589 229 4 113 563 743 
254 7 494 152 595 316 446 509 590 
255 7 228 580 306 616 27 436 331 
256 7 429 608 629 418 212 443 708 
257 7 304 601 83 122 190 290 647 
258 7 209 307 459 106 428 387 535 
259 7 55 542 357 721 305 260 621 
260 7 721 357 128 55 117 259 542 
261 7 407 10 652 417 9 238 438 
262 7 536 609 704 693 96 325 502 
263 7 98 204 384 539 694 452 352 
264 7 530 21 584 489 143 215 723 
265 7 110 718 276 660 565 602 17 
266 7 275 189 651 115 653 390 169 
267 7 155 213 714 686 367 620 100 
268 7 371 141 560 474 441 200 290 
269 7 378 25 130 728 39 480 602 
270 7 555 296 445 329 550 192 367 
271 7 706 611 305 537 621 158 507 
272 7 662 385 732 639 739 220 381 
273 7 517 426 127 219 607 481 581 
274 7 333 705 223 74 556 396 673 
275 7 266 651 189 115 390 653 363 
276 7 660 718 110 340 167 602 581 
277 7 180 210 682 596 168 438 448 
278 7 514 212 58 60 389 380 471 
279 7 673 396 377 685 397 178 206 
280 7 620 134 655 686 155 714 66 
281 7 740 614 693 126 609 295 262 
282 7 36 427 433 137 166 561 403 
283 7 507 416 611 61 158 271 188 
284 7 95 462 349 245 126 59 464 
285 7 618 75 485 83 304 120 565 
286 7 94 221 301 366 170 337 634 
287 7 16 18 335 505 107 171 216 
288 7 174 248 159 567 226 467 576 
289 7 208 108 458 399 319 400 431 
290 7 474 83 141 304 560 618 268 
291 7 720 461 619 616 433 331 207 
292 7 386 604 224 421 715 222 389 
293 7 2 529 394 722 468 148 187 
294 7 610 475 703 496 667 14 99 
295 7 691 693 704 638 262 243 311 
296 7 270 367 555 677 19 213 734 
297 7 600 91 406 217 682 184 234 
298 7 45 495 162 206 397 178 543 
299 7 85 501 644 440 519 65 202 
300 7 88 495 45 24 298 552 543 
301 7 286 194 404 411 586 94 366 
302 7 591 157 669 8 506 695 650 
303 7 201 630 311 50 690 638 243 
304 7 83 601 257 285 120 618 290 
305 7 706 621 271 537 542 55 259 
306 7 228 255 27 227 580 331 616 
307 7 106 209 258 459 428 535 493 
308 7 229 22 143 253 460 376 539 
309 7 7 657 563 733 120 122 4 
310 7 5 68 230 724 350 516 30 
311 7 303 201 638 691 630 243 50 
312 7 692 48 34 181 186 370 628 
313 7 191 147 182 551 614 740 151 
314 7 538 145 383 117 542 675 128 
315 7 415 719 338 436 476 146 346 
316 7 133 326 590 643 43 254 494 
317 7 320 81 511 490 419 6 668 
318 7 622 504 626 28 738 431 183 
319 7 399 84 289 737 451 108 208 
320 7 317 81 511 490 419 6 668 
321 7 491 512 139 500 628 51 70 
322 7 79 515 29 109 203 348 164 
323 7 394 101 598 722 52 293 138 
324 7 676 478 499 24 682 217 543 
325 7 96 570 235 522 502 536 726 
326 7 133 590 316 43 643 81 232 
327 7 572 334 77 195 558 345 533 
328 7 463 409 650 62 577 236 612 
329 7 192 555 445 550 270 729 296 
330 7 659 405 680 71 38 40 342 
331 7 720 291 616 207 461 227 341 
332 7 646 144 702 534 195 334 140 
333 7 274 705 223 396 74 556 673 
334 7 195 327 702 572 144 646 77 
335 7 107 216 171 18 131 287 545 
336 7 712 605 654 33 347 16 139 
337 7 170 221 661 391 94 286 154 
338 7 146 27 315 436 415 719 476 
339 7 593 668 66 419 6 698 280 
340 7 664 581 660 276 167 150 442 
341 7 227 528 331 606 207 27 720 
342 7 423 659 233 405 330 103 680 
343 7 355 11 373 132 487 575 444 
344 7 545 131 78 493 171 356 455 
345 7 558 215 572 489 696 530 165 
346 7 476 525 613 688 315 430 231 
347 7 712 336 33 104 417 527 605 
348 7 203 370 79 583 322 515 181 
349 7 284 95 462 594 59 597 211 
350 7 230 5 513 435 53 486 310 
351 7 194 404 586 363 111 603 390 
352 7 384 150 664 442 20 452 98 
353 7 87 302 669 236 591 157 650 
354 7 121 231 606 146 528 525 476 
355 7 343 11 487 132 575 373 32 
356 7 455 344 78 537 493 158 545 
357 7 721 260 55 259 9 238 128 
358 7 214 742 573 410 49 456 469 
359 7 172 442 150 664 340 167 352 
360 7 448 198 210 472 675 168 47 
361 7 268 197 441 200 717 560 371 
362 7 251 368 694 432 553 242 98 
363 7 651 404 351 194 111 275 390 
364 7 56 220 381 385 272 662 510 
365 7 636 526 37 642 212 197 278 
366 7 154 479 391 286 337 404 194 
367 7 213 267 296 734 677 155 698 
368 7 432 694 251 172 242 359 442 
369 7 47 675 198 360 448 600 145 
370 7 692 312 181 48 583 34 186 
371 7 268 200 441 474 290 141 197 
372 7 492 238 10 407 417 9 652 
373 7 343 132 444 355 179 656 135 
374 7 153 457 3 49 425 114 214 
375 5 497 640 737 713 84 
376 7 549 539 204 22 308 202 263 
377 7 685 649 637 178 279 588 64 
378 7 25 130 728 39 269 167 242 
379 7 690 73 50 211 19 597 677 
380 7 118 58 389 604 702 292 177 
381 7 662 272 160 739 385 220 364 
382 7 103 233 700 40 552 97 423 
383 7 538 314 145 117 542 726 305 
384 7 352 150 664 442 20 98 452 
385 7 220 272 662 510 381 42 732 
386 7 292 604 421 224 222 678 715 
387 7 428 459 258 106 209 307 187 
388 7 175 473 164 687 544 109 31 
389 7 224 604 58 292 642 380 386 
390 7 653 111 169 116 266 727 275 
391 7 32 154 173 366 479 487 337 
392 7 527 104 554 26 142 241 347 
393 7 105 471 140 645 465 44 534 
394 7 722 323 101 598 293 138 52 
395 7 176 46 635 612 658 477 199 
396 7 673 279 223 705 456 556 377 
397 7 206 178 685 649 279 377 466 
398 7 125 430 688 613 129 82 695 
399 7 451 319 108 289 458 713 84 
400 7 208 289 559 656 135 319 401 
401 7 559 135 400 310 656 724 30 
402 7 672 561 574 36 403 282 92 
403 7 92 36 137 166 237 89 672 
404 7 194 351 363 586 301 479 651 
405 7 680 659 330 38 71 736 112 
406 7 217 91 682 499 24 297 676 
407 7 10 261 238 652 372 417 9 
408 7 508 566 439 41 246 548 151 
409 7 463 328 739 62 577 176 395 
410 7 456 588 358 214 742 114 425 
411 7 35 301 684 586 634 585 42 
412 7 420 157 669 591 302 695 8 
413 7 102 725 709 569 633 532 453 
414 7 472 86 168 128 210 180 448 
415 7 315 719 338 436 476 346 146 
416 7 283 522 188 570 507 61 611 
417 7 652 407 10 261 372 347 238 
418 7 60 608 711 54 212 574 429 
419 7 668 6 698 511 339 317 320 
420 7 412 669 157 591 302 695 8 
421 7 222 386 190 76 292 678 604 
422 7 578 450 99 14 294 546 610 
423 7 97 233 342 723 21 584 103 
424 7 70 13 491 665 51 701 142 
425 7 114 3 457 244 64 374 153 
426 7 219 517 273 75 127 485 120 
427 7 282 433 461 616 561 291 720 
428 7 387 459 258 106 307 209 648 
429 7 608 256 443 418 629 708 574 
430 7 129 398 613 125 688 82 447 
431 7 738 504 458 108 208 626 289 
432 7 368 694 98 172 442 263 359 
433 7 461 619 291 427 616 720 282 
434 7 730 533 482 647 733 76 80 
435 7 486 513 53 350 230 5 683 
436 7 163 719 228 338 415 315 580 
437 6 553 249 362 480 39 242 
438 7 596 180 86 168 210 261 277 
439 7 508 518 41 408 548 566 151 
440 7 65 299 90 519 674 85 501 
441 7 200 197 371 268 37 361 526 
442 7 359 150 172 664 352 384 340 
443 7 708 149 225 580 163 608 561 
444 7 135 132 373 656 744 516 68 
445 7 550 192 329 555 270 205 296 
446 7 93 152 595 741 254 494 467 
447 7 82 129 199 430 125 398 658 
448 7 360 198 472 210 168 414 675 
449 7 587 250 232 43 643 703 496 
450 7 99 625 464 422 578 245 294 
451 5 713 399 84 737 319 
452 7 20 384 204 352 263 98 150 
453 7 532 569 413 709 725 102 252 
454 4 44 451 465 713 
455 7 356 78 344 493 209 535 158 
456 7 410 588 358 556 223 214 114 
457 7 374 3 425 153 114 244 64 
458 7 108 208 289 738 431 399 504 
459 7 428 258 387 106 307 209 648 
460 7 143 22 308 113 264 489 530 
461 7 291 616 720 433 619 331 427 
462 7 95 284 349 245 126 243 59 
463 7 409 62 577 328 160 236 739 
464 7 625 245 450 99 735 59 284 
465 7 105 534 140 44 393 454 736 
466 7 72 649 637 15 498 685 64 
467 7 93 159 741 174 679 446 254 
468 7 562 2 119 293 529 148 187 
469 7 49 488 573 214 624 742 153 
470 7 38 736 534 112 680 332 405 
471 7 393 645 711 60 140 105 465 
472 7 414 168 86 210 448 128 180 
473 7 388 544 175 687 631 164 31 
474 7 290 141 83 560 268 371 565 
475 7 294 610 703 496 667 161 735 
476 7 525 346 231 146 121 354 338 
477 7 732 639 395 46 176 635 409 
478 7 324 676 499 24 543 217 682 
479 7 154 366 391 404 194 286 666 
480 7 39 728 249 378 130 242 269 
481 7 563 589 273 426 229 247 309 
482 7 240 69 533 733 434 730 657 
483 7 710 116 727 123 169 46 199 
484 7 674 623 627 440 65 90 519 
485 7 75 618 285 517 219 127 426 
486 7 435 513 53 350 230 5 683 
487 7 11 355 575 343 32 132 173 
488 7 469 624 49 193 681 573 153 
489 7 215 113 143 530 345 558 264 
490 7 320 317 81 511 729 509 590 
491 7 51 321 70 139 424 500 716 
492 7 372 238 10 407 9 417 16 
493 7 78 535 344 545 171 455 209 
494 7 254 152 595 316 446 509 590 
495 7 45 298 663 633 88 162 300 
496 7 161 703 250 667 66 610 475 
497 5 375 640 737 713 84 
498 7 15 64 244 72 466 540 3 
499 7 676 24 324 478 217 682 91 
500 7 139 512 654 33 51 491 716 
501 7 202 519 644 299 85 65 549 
502 7 235 726 271 325 706 383 305 
503 7 67 196 670 523 12 576 201 
504 7 738 431 318 626 458 28 108 
505 7 18 287 632 171 16 335 136 
506 7 695 8 650 125 302 398 591 
507 7 283 611 61 158 416 271 537 
508 7 408 439 566 41 518 548 246 
509 7 729 490 590 316 494 254 81 
510 7 42 684 585 385 35 220 272 
511 7 317 320 81 490 6 419 698 
512 7 500 139 321 628 707 491 582 
513 7 53 435 486 350 230 5 683 
514 7 58 278 389 380 642 224 604 
515 7 79 29 322 562 203 468 583 
516 7 68 744 671 444 310 135 132 
517 7 219 426 127 273 485 75 120 
518 7 439 508 548 41 188 408 566 
519 7 501 65 299 202 627 644 440 
520 7 624 193 179 681 488 319 469 
521 7 731 124 109 31 687 164 175 
522 7 570 416 188 557 283 325 507 
523 7 12 670 196 67 503 184 600 
524 6 437 553 627 249 623 362 
525 7 476 231 121 346 354 146 613 
526 7 636 37 642 197 200 441 371 
527 7 392 104 347 241 26 142 531 
528 7 606 341 354 227 121 146 27 
529 7 148 293 562 468 2 52 394 
530 7 264 489 215 143 345 113 21 
531 7 241 26 652 596 527 543 261 
532 7 453 569 413 709 725 102 252 
533 7 482 240 434 730 69 77 733 
534 7 465 105 140 470 332 646 736 
535 7 493 78 307 545 171 209 344 
536 7 609 262 96 325 693 704 235 
537 7 621 706 611 158 305 271 356 
538 7 314 383 145 117 542 638 675 
539 7 204 376 263 549 98 694 452 
540 7 15 72 498 252 466 709 64 
541 6 599 615 641 634 411 35 
542 7 55 259 305 260 117 706 721 
543 7 162 478 324 676 26 24 298 
544 7 631 473 388 23 564 246 175 
545 7 344 131 171 78 493 535 216 
546 7 422 450 578 99 464 625 245 
547 7 218 583 186 181 48 648 136 
548 7 151 439 518 508 557 408 41 
549 7 376 539 204 202 251 263 98 
550 7 445 192 329 270 555 205 296 
551 7 182 147 151 557 548 96 609 
552 7 382 700 234 300 103 592 40 
553 7 437 362 480 249 39 251 368 
554 7 392 279 26 206 527 142 396 
555 7 270 329 192 296 445 550 734 
556 7 74 223 705 456 410 396 358 
557 7 548 151 522 570 188 518 439 
558 7 345 743 215 69 572 489 113 
559 7 401 400 208 135 656 724 289 
560 7 141 717 268 474 290 371 565 
561 7 672 402 282 36 427 574 149 
562 7 468 148 529 2 29 293 515 
563 7 481 589 309 7 247 4 426 
564 7 23 579 631 544 246 566 473 
565 7 618 485 75 285 83 474 290 
566 7 408 41 508 246 439 518 548 
567 7 248 576 288 226 623 174 205 
568 7 671 173 744 575 666 32 132 
569 7 709 532 252 413 453 102 725 
570 7 522 416 325 188 283 557 507 
571 7 31 521 731 687 124 109 473 
572 7 327 195 345 334 558 77 165 
573 7 742 214 469 358 49 488 153 
574 7 402 672 561 403 36 54 92 
575 7 173 487 32 132 11 355 343 
576 7 226 567 205 248 550 445 67 
577 7 62 236 160 463 87 328 409 
578 7 422 14 99 450 294 610 475 
579 7 564 23 631 544 246 473 566 
580 7 255 228 163 306 436 225 149 
581 7 607 664 340 150 352 20 273 
582 7 707 136 186 632 628 34 48 
583 7 203 547 370 181 48 218 186 
584 7 21 723 264 530 85 97 423 
585 7 684 35 510 42 586 603 411 
586 7 351 194 404 603 35 301 585 
587 7 449 232 43 643 250 133 326 
588 7 410 114 456 425 358 377 244 
589 7 247 4 563 253 481 309 657 
590 7 326 133 316 81 317 320 490 
591 7 302 157 669 8 412 695 506 
592 7 552 90 382 699 233 103 234 
593 7 339 66 668 419 6 280 667 
594 7 655 134 686 620 714 155 100 
595 7 152 254 494 446 316 643 43 
596 7 438 180 86 261 210 168 277 
597 7 211 100 594 690 73 379 19 
598 7 101 323 394 722 138 52 188 
599 6 541 185 615 641 312 370 
600 7 297 47 91 360 406 12 448 
601 7 304 122 120 257 83 80 285 
602 7 167 276 660 718 25 110 265 
603 7 111 351 586 390 363 585 169 
604 7 292 386 224 421 389 715 222 
605 7 336 654 16 712 33 287 347 
606 7 528 354 121 227 341 146 231 
607 7 581 273 20 127 664 452 517 
608 7 418 429 443 574 54 402 149 
609 7 536 262 96 693 325 704 281 
610 7 294 475 703 496 250 667 14 
611 7 158 537 507 271 706 621 61 
612 7 176 658 650 395 635 199 506 
613 7 430 688 398 125 129 82 695 
614 7 740 281 126 191 693 609 536 
615 6 541 239 599 185 42 411 
616 7 720 461 291 331 433 619 427 
617 7 57 689 156 683 207 53 619 
618 7 285 75 485 565 83 304 219 
619 7 291 433 461 720 207 57 616 
620 7 134 686 655 280 714 155 267 
621 7 537 305 706 271 611 356 158 
622 7 318 28 626 504 183 431 738 
623 7 484 567 674 248 627 576 288 
624 7 193 488 469 520 681 49 573 
625 7 464 245 450 99 735 59 284 
626 7 28 504 318 431 738 622 30 
627 7 65 674 519 440 484 501 299 
628 7 707 34 582 186 512 312 48 
629 7 708 63 429 443 225 163 256 
630 7 50 303 690 201 379 311 211 
631 7 544 473 564 23 388 579 687 
632 7 136 582 505 707 18 218 535 
633 7 663 102 725 413 709 540 252 
634 6 641 94 286 221 301 411 
635 7 46 199 658 176 395 612 82 
636 7 526 37 197 200 441 642 371 
637 7 64 244 649 466 3 114 377 
638 7 691 311 538 295 314 704 303 
639 7 732 477 739 409 395 662 176 
640 6 497 737 375 84 713 681 
641 6 634 701 94 665 221 541 
642 7 37 526 224 389 715 636 604 
643 7 43 232 133 316 326 587 590 
644 7 202 85 501 299 460 22 376 
645 7 140 105 471 393 646 534 380 
646 7 144 332 702 334 195 140 118 
647 7 80 76 190 434 730 122 733 
648 7 119 187 2 387 428 459 106 
649 7 466 685 637 72 178 377 64 
650 7 8 612 506 328 302 695 176 
651 7 275 363 266 111 404 390 115 
652 7 417 261 407 10 372 238 492 
653 7 169 390 727 123 116 189 710 
654 7 336 33 605 712 139 500 16 
655 7 134 620 686 714 594 155 280 
656 7 135 444 373 400 179 401 559 
657 7 733 4 240 309 69 482 7 
658 7 199 635 612 82 46 176 395 
659 7 330 405 680 71 38 40 342 
660 7 276 718 110 340 167 581 602 
661 7 170 221 337 665 94 701 286 
662 7 739 272 639 732 381 409 385 
663 7 633 102 725 413 45 540 709 
664 7 150 352 581 340 442 384 359 
665 7 701 424 70 661 170 491 641 
666 7 568 697 173 32 671 575 486 
667 7 66 161 593 339 280 496 620 
668 7 6 419 698 339 593 734 511 
669 7 157 591 302 412 420 8 353 
670 7 196 503 67 523 12 201 303 
671 7 744 568 516 68 132 444 575 
672 7 402 561 36 574 403 282 92 
673 7 396 279 377 223 588 456 410 
674 7 484 627 65 440 90 519 623 
675 7 198 369 360 448 47 472 128 
676 7 324 478 499 24 217 682 91 
677 7 19 100 213 296 73 367 267 
678 7 177 222 118 421 386 77 292 
679 7 467 741 93 159 446 174 152 
680 7 405 330 659 38 71 736 112 
681 7 193 737 488 84 624 520 469 
682 7 91 217 499 406 277 676 324 
683 7 156 617 57 53 689 513 435 
684 7 585 35 42 510 411 586 603 
685 7 649 377 178 466 637 397 72 
686 7 714 155 134 620 655 267 280 
687 7 31 175 164 109 388 473 521 
688 7 613 398 430 125 129 695 82 
689 7 617 57 683 156 207 53 619 
690 7 379 50 211 73 630 597 19 
691 7 638 295 311 704 243 693 303 
692 7 312 48 181 34 370 186 628 
693 7 704 295 262 609 281 536 691 
694 7 432 251 98 263 368 204 539 
695 7 506 8 125 398 591 688 302 
696 7 165 345 530 264 572 215 723 
697 7 666 683 53 486 435 689 617 
698 7 734 6 668 419 511 367 339 
699 7 85 97 299 90 584 723 21 
700 7 40 103 382 71 233 552 330 
701 7 665 70 424 641 661 491 321 
702 7 144 646 334 118 177 332 678 
703 7 250 496 610 161 294 475 449 
704 7 262 693 295 691 536 638 609 
705 7 223 556 74 274 396 456 673 
706 7 271 305 537 621 611 158 507 
707 7 582 136 628 34 632 186 512 
708 7 443 225 63 163 580 629 149 
709 7 252 413 569 102 540 633 725 
710 7 483 116 727 123 169 653 46 
711 7 60 54 471 183 418 393 574 
712 7 336 347 33 605 654 716 417 
713 5 451 84 399 737 640 
714 7 686 155 134 267 620 655 213 
715 7 224 292 386 604 421 257 642 
716 7 51 33 104 139 13 500 712 
717 7 560 141 268 17 474 265 361 
718 7 110 276 660 265 602 340 127 
719 7 415 315 436 338 163 146 476 
720 7 291 616 461 331 619 433 207 
721 7 357 260 55 259 9 128 238 
722 7 394 101 138 323 598 293 2 
723 7 21 584 264 97 423 530 696 
724 7 30 89 310 237 401 5 166 
725 7 102 413 633 663 709 532 569 
726 7 502 235 271 706 305 283 325 
727 7 123 710 116 169 483 653 189 
728 7 39 130 242 378 25 172 167 
729 7 490 509 192 329 320 317 511 
730 7 434 533 482 647 76 733 80 
731 7 124 521 109 31 687 164 322 
732 7 639 477 739 395 662 272 409 
733 7 657 80 482 240 434 730 69 
734 7 698 6 367 668 419 511 555 
735 7 59 280 655 134 667 620 594 
736 7 112 38 470 680 405 330 659 
737 7 84 681 640 193 713 319 451 
738 7 431 504 458 108 208 318 626 
739 7 409 639 662 463 732 62 160 
740 7 614 281 693 126 609 191 536 
741 7 93 446 467 679 152 595 254 
742 7 573 358 214 469 49 153 410 
743 7 69 240 4 482 657 533 558 
744 7 671 516 68 444 132 568 135 
DEPOT_SECTION
   1
   -1
EOF
