NAME :  X-n766-kX-w153-c7.cctp
COMMENT : 	Adapted by Maziero, Usberti and Cavellucci from the Uchoa, Pecin, Pessoa, Poggi, Subramanian, and Vidal (2013)
TYPE :  CCTP
DIMENSION :    569
EDGE_WEIGHT_TYPE : 	EUC_2D	
CAPACITY : 	166
VERTICES_WITHIN_COVERAGE :  7
VERTICES_WITH_DEMAND : 	153
NODE_COORD_SECTION
1 0 0
2 409 418
3 378 220
4 469 585
5 91 695
6 455 648
7 86 403
8 493 292
9 124 630
10 43 202
11 961 668
12 538 143
13 114 523
14 273 287
15 884 865
16 551 791
17 609 232
18 69 625
19 191 484
20 562 650
21 858 506
22 688 951
23 174 158
24 175 404
25 314 484
26 210 517
27 574 158
28 76 499
29 136 195
30 47 593
31 87 897
32 526 650
33 683 60
34 437 962
35 863 428
36 866 335
37 16 391
38 948 422
39 1 945
40 13 299
41 404 889
42 974 290
43 59 281
44 966 52
45 815 145
46 238 897
47 546 414
48 297 370
49 421 143
50 292 86
51 420 958
52 661 796
53 98 757
54 15 722
55 599 669
56 287 134
57 925 251
58 115 179
59 449 945
60 487 960
61 683 779
62 628 855
63 290 322
64 145 109
65 356 887
66 416 654
67 899 981
68 228 187
69 634 10
70 673 503
71 999 237
72 280 64
73 407 977
74 417 841
75 773 52
76 922 376
77 270 503
78 998 123
79 353 527
80 352 21
81 19 697
82 590 322
83 326 401
84 851 668
85 156 557
86 700 423
87 232 556
88 272 248
89 383 472
90 659 930
91 62 513
92 551 459
93 108 723
94 127 359
95 765 936
96 199 264
97 942 980
98 595 746
99 736 127
100 808 393
101 194 803
102 879 138
103 329 531
104 544 840
105 384 143
106 622 102
107 350 231
108 656 364
109 730 846
110 800 218
111 556 454
112 967 994
113 654 141
114 213 582
115 158 64
116 381 518
117 281 153
118 991 305
119 322 68
120 378 996
121 941 397
122 89 16
123 666 113
124 518 249
125 665 277
126 796 357
127 759 988
128 938 366
129 688 589
130 224 487
131 626 118
132 852 200
133 948 17
134 816 580
135 243 75
136 55 873
137 585 640
138 841 326
139 41 67
140 418 268
141 445 424
142 897 432
143 404 444
144 391 537
145 574 728
146 411 117
147 167 197
148 502 596
149 724 799
150 137 619
151 121 457
152 857 627
153 847 277
154 658 690
155 508 997
156 601 692
157 884 98
158 610 664
159 845 965
160 554 127
161 817 205
162 612 861
163 142 905
164 735 77
165 990 120
166 63 415
167 97 810
168 664 488
169 148 748
170 876 902
171 30 706
172 434 176
173 734 742
174 390 613
175 879 972
176 957 393
177 351 361
178 614 200
179 840 412
180 162 699
181 166 217
182 640 833
183 309 407
184 468 408
185 663 357
186 560 636
187 29 716
188 885 881
189 819 918
190 818 716
191 657 620
192 28 821
193 639 287
194 973 213
195 37 615
196 669 338
197 273 325
198 716 872
199 517 434
200 0 537
201 843 863
202 705 899
203 207 798
204 911 610
205 339 859
206 612 102
207 365 275
208 760 848
209 393 15
210 313 107
211 104 662
212 860 699
213 517 239
214 982 715
215 27 603
216 71 270
217 301 17
218 376 970
219 618 71
220 451 280
221 322 295
222 21 95
223 552 836
224 756 914
225 911 695
226 456 521
227 216 642
228 266 379
229 23 325
230 157 140
231 689 733
232 420 309
233 187 599
234 160 281
235 736 235
236 283 191
237 243 947
238 701 533
239 688 457
240 882 105
241 880 403
242 727 763
243 570 595
244 623 916
245 841 842
246 950 982
247 752 33
248 853 91
249 224 467
250 252 39
251 184 424
252 117 489
253 956 1000
254 972 425
255 895 182
256 668 858
257 289 178
258 490 992
259 958 336
260 308 253
261 270 351
262 654 299
263 143 955
264 423 495
265 288 575
266 647 818
267 585 134
268 874 685
269 812 27
270 346 184
271 225 623
272 306 312
273 66 672
274 692 808
275 873 625
276 406 262
277 592 596
278 78 96
279 406 574
280 218 533
281 779 657
282 615 657
283 721 148
284 447 492
285 468 394
286 486 290
287 579 792
288 58 395
289 290 79
290 729 421
291 656 508
292 743 847
293 454 572
294 49 808
295 902 700
296 801 148
297 968 613
298 309 508
299 484 528
300 417 871
301 590 883
302 588 906
303 85 837
304 50 718
305 939 795
306 105 219
307 679 87
308 637 841
309 43 674
310 3 542
311 783 185
312 539 977
313 605 590
314 960 56
315 587 221
316 194 248
317 207 151
318 273 573
319 234 860
320 206 726
321 602 361
322 859 230
323 550 353
324 249 328
325 725 828
326 81 319
327 806 233
328 417 151
329 29 337
330 28 797
331 903 544
332 180 278
333 894 511
334 708 654
335 146 870
336 537 706
337 622 795
338 951 148
339 104 80
340 775 9
341 789 686
342 227 95
343 978 354
344 894 959
345 648 116
346 560 381
347 337 243
348 555 699
349 348 195
350 725 18
351 672 142
352 534 484
353 547 135
354 503 150
355 525 398
356 542 437
357 650 135
358 942 842
359 584 443
360 718 266
361 533 231
362 674 161
363 669 79
364 638 718
365 34 333
366 403 892
367 384 624
368 575 146
369 648 154
370 656 373
371 883 410
372 415 834
373 655 565
374 747 331
375 985 962
376 659 480
377 775 47
378 520 443
379 643 534
380 610 14
381 527 229
382 559 497
383 856 433
384 367 202
385 959 121
386 437 871
387 898 946
388 848 841
389 623 349
390 562 292
391 933 277
392 557 736
393 909 533
394 522 831
395 638 100
396 498 835
397 554 269
398 771 974
399 542 759
400 781 219
401 236 287
402 375 290
403 538 500
404 432 394
405 950 392
406 519 148
407 535 229
408 406 224
409 912 370
410 893 908
411 402 173
412 515 391
413 525 148
414 763 808
415 557 729
416 976 323
417 541 414
418 260 372
419 398 168
420 574 448
421 931 992
422 361 158
423 538 113
424 491 269
425 908 293
426 683 466
427 699 366
428 562 673
429 610 675
430 630 119
431 328 389
432 372 101
433 858 6
434 584 463
435 317 132
436 604 158
437 983 457
438 511 585
439 627 247
440 901 332
441 689 533
442 546 156
443 355 930
444 588 246
445 404 127
446 388 924
447 930 112
448 686 332
449 395 917
450 615 262
451 876 977
452 435 108
453 809 927
454 521 849
455 601 80
456 48 799
457 717 125
458 546 482
459 322 236
460 905 895
461 166 836
462 618 125
463 539 424
464 787 969
465 919 958
466 477 915
467 420 79
468 839 150
469 766 234
470 673 566
471 442 171
472 639 371
473 837 336
474 885 892
475 384 474
476 862 505
477 309 275
478 992 289
479 697 410
480 390 123
481 359 186
482 629 740
483 544 788
484 974 260
485 602 118
486 770 156
487 353 228
488 502 232
489 859 428
490 561 324
491 595 357
492 998 458
493 829 360
494 449 277
495 908 981
496 502 274
497 923 363
498 698 99
499 909 979
500 986 411
501 698 294
502 668 73
503 556 420
504 557 187
505 552 849
506 346 216
507 769 505
508 919 370
509 989 314
510 945 932
511 479 893
512 639 494
513 948 942
514 372 659
515 542 251
516 342 391
517 789 947
518 683 440
519 927 980
520 602 251
521 628 134
522 346 250
523 558 601
524 768 185
525 631 104
526 966 113
527 600 127
528 807 418
529 975 299
530 649 646
531 640 109
532 989 457
533 341 236
534 936 356
535 720 140
536 943 386
537 485 338
538 788 498
539 443 245
540 332 64
541 668 266
542 408 844
543 687 234
544 937 404
545 864 155
546 503 291
547 385 875
548 789 895
549 415 607
550 621 144
551 371 45
552 407 837
553 640 104
554 671 15
555 978 976
556 269 160
557 403 3
558 482 896
559 924 466
560 922 957
561 744 71
562 393 41
563 409 313
564 737 602
565 432 103
566 429 662
567 358 858
568 512 303
569 360 105
DEMAND_SECTION
2 85
3 89
4 71
5 68
6 52
7 76
8 57
9 73
10 89
11 100
12 61
13 92
14 99
15 56
16 91
17 71
18 69
19 79
20 93
21 61
22 94
23 63
24 89
25 88
26 100
27 96
28 92
29 75
30 69
31 72
32 86
33 77
34 68
35 81
36 100
37 95
38 68
39 71
40 79
41 55
42 73
43 82
44 67
45 91
46 96
47 62
48 76
49 53
50 78
51 53
52 61
53 100
54 70
55 57
56 99
57 61
58 55
59 66
60 57
61 70
62 73
63 84
64 80
65 84
66 94
67 53
68 99
69 61
70 96
71 80
72 67
73 87
74 91
75 58
76 84
77 96
78 96
79 97
80 68
81 100
82 60
83 90
84 81
85 60
86 91
87 97
88 55
89 64
90 75
91 65
92 67
93 51
94 60
95 56
96 62
97 85
98 73
99 68
100 81
101 80
102 100
103 64
104 84
105 78
106 54
107 9
108 6
109 4
110 3
111 5
112 7
113 5
114 6
115 10
116 4
117 1
118 4
119 9
120 5
121 2
122 5
123 1
124 7
125 7
126 10
127 1
128 9
129 9
130 5
131 8
132 2
133 3
134 8
135 8
136 9
137 9
138 5
139 1
140 1
141 5
142 2
143 1
144 5
145 7
146 10
147 10
148 6
149 9
150 3
151 2
152 3
153 2
154 2
COVERAGE_SECTION
2 6 143 404 141 89 184 475 
3 7 384 487 408 107 506 349 481 
4 6 293 148 438 549 299 279 
5 7 93 273 211 304 309 53 171 
6 5 566 66 549 4 148 
7 7 166 288 94 151 37 326 329 
8 5 286 546 496 568 424 
9 7 150 211 18 233 273 5 180 
10 7 306 216 58 43 29 40 222 
11 6 214 297 225 295 204 268 
12 7 353 413 442 406 160 423 354 
13 7 252 28 91 85 151 19 26 
14 7 401 197 477 63 88 272 324 
15 7 188 474 460 170 201 388 410 
16 5 483 287 399 223 104 
17 6 520 439 315 444 450 178 
18 7 195 30 215 273 211 9 309 
19 7 130 249 26 280 251 252 151 
20 7 186 428 137 32 55 348 523 
21 7 476 333 393 331 538 383 559 
22 7 90 202 244 224 95 127 198 
23 7 230 317 147 29 64 181 68 
24 7 251 94 151 249 19 7 418 
25 7 298 77 103 79 89 475 116 
26 7 280 130 19 87 249 77 114 
27 7 368 267 442 436 504 353 160 
28 7 91 252 13 151 166 200 310 
29 7 58 147 181 306 23 230 316 
30 7 215 195 18 310 200 91 273 
31 7 136 163 303 335 263 167 192 
32 6 20 186 428 336 348 148 
33 4 502 363 307 498 
34 7 51 59 73 60 258 218 446 
35 7 489 383 371 179 241 142 528 
36 4 138 473 440 493 
37 7 288 166 329 365 229 7 40 
38 7 544 254 121 176 405 536 500 
39 7 136 31 192 303 263 294 163 
40 7 229 365 329 43 216 326 37 
41 7 366 300 547 449 386 446 542 
42 7 529 478 118 509 484 416 391 
43 7 216 326 40 229 365 329 306 
44 7 314 133 526 385 447 165 78 
45 7 296 468 486 545 311 161 524 
46 7 319 237 461 163 335 101 203 
47 7 417 463 503 356 355 199 346 
48 7 228 261 431 418 183 83 63 
49 7 328 445 146 419 172 471 411 
50 7 289 72 210 119 540 56 135 
51 7 34 73 59 218 446 449 120 
52 7 266 61 274 337 182 308 256 
53 7 93 169 167 5 304 456 294 
54 7 187 171 81 304 309 273 330 
55 7 158 429 282 156 137 428 20 
56 7 117 435 556 210 257 50 289 
57 6 391 425 484 194 42 322 
58 7 29 306 147 230 23 181 10 
59 7 34 51 60 466 73 558 511 
60 6 258 59 155 466 34 312 
61 7 52 274 149 231 242 266 173 
62 7 162 308 182 256 266 301 337 
63 7 197 272 261 14 324 221 48 
64 7 230 115 339 23 278 317 58 
65 7 567 547 205 443 366 41 446 
66 6 566 6 367 514 549 174 
67 7 495 499 175 344 451 519 465 
68 7 317 556 236 23 147 257 117 
69 2 380 554 
70 6 168 291 376 441 512 426 
71 7 484 194 478 42 529 118 57 
72 7 289 50 250 135 119 217 540 
73 7 51 218 34 120 59 446 449 
74 7 372 542 552 300 386 547 41 
75 7 377 247 561 340 164 269 350 
76 7 508 409 497 128 536 534 121 
77 7 298 25 130 249 280 26 87 
78 7 165 526 385 338 447 314 44 
79 7 103 116 144 298 25 475 89 
80 7 551 209 562 540 217 557 119 
81 7 171 187 54 309 304 273 5 
82 6 490 491 321 390 389 323 
83 7 431 183 516 48 177 228 418 
84 7 268 212 152 275 190 295 341 
85 7 233 13 114 150 280 26 87 
86 6 479 518 290 239 426 427 
87 7 280 114 318 26 265 233 77 
88 7 260 14 477 459 401 236 347 
89 7 475 143 116 264 2 79 144 
90 7 22 244 202 256 302 62 198 
91 7 28 13 252 200 310 30 151 
92 7 111 356 458 420 352 434 378 
93 7 5 53 169 304 180 211 273 
94 7 7 326 24 288 166 234 251 
95 7 224 517 398 464 453 548 127 
96 7 316 332 234 401 181 147 88 
97 7 246 519 421 253 112 560 465 
98 7 145 482 392 415 287 364 156 
99 6 457 535 283 486 498 164 
100 7 528 179 126 493 383 489 473 
101 7 203 461 319 169 320 335 167 
102 7 545 240 157 468 255 248 447 
103 7 79 298 25 116 265 144 77 
104 6 223 505 394 454 396 16 
105 7 480 445 422 419 328 411 49 
106 7 525 206 131 395 553 430 531 
107 7 487 533 506 347 522 459 3 
108 7 370 185 472 196 389 427 448 
109 7 292 325 198 208 149 414 274 
110 7 327 400 161 311 469 524 132 
111 7 92 420 356 434 359 458 463 
112 7 253 246 555 97 421 375 519 
113 6 357 369 351 345 521 362 
114 7 233 87 271 280 227 318 85 
115 7 64 339 230 342 122 135 278 
116 7 144 79 475 89 264 103 279 
117 7 556 56 257 236 435 210 68 
118 7 509 478 529 42 416 259 484 
119 7 540 289 50 210 72 569 551 
120 7 218 73 51 34 443 446 449 
121 7 544 405 536 176 38 76 128 
122 7 339 139 278 115 222 64 230 
123 6 345 531 357 553 307 113 
124 6 213 381 361 488 515 407 
125 7 541 262 193 501 439 543 450 
126 7 493 100 473 138 374 528 179 
127 7 398 464 517 95 224 453 22 
128 7 534 497 76 508 536 409 405 
129 6 470 373 191 564 441 238 
130 7 249 19 26 280 77 87 251 
131 7 430 462 525 106 521 531 553 
132 7 322 161 255 545 468 110 327 
133 7 44 314 433 447 526 157 385 
134 7 152 275 564 21 281 538 476 
135 7 342 250 72 289 50 56 210 
136 7 31 303 192 294 456 167 330 
137 7 20 186 55 282 158 428 429 
138 6 473 36 493 153 126 440 
139 7 222 278 339 122 64 115 58 
140 5 276 494 539 220 232 
141 5 184 404 2 285 143 
142 7 371 35 241 489 383 559 544 
143 7 2 89 475 141 264 404 284 
144 7 116 79 279 264 103 475 89 
145 7 415 392 98 348 336 156 399 
146 7 445 480 565 452 49 328 105 
147 7 181 29 23 58 230 316 317 
148 5 438 4 293 523 32 
149 7 325 274 242 414 61 109 292 
150 7 9 211 233 85 18 227 180 
151 7 252 28 7 13 251 166 19 
152 7 275 84 204 268 134 212 281 
153 7 138 322 327 473 36 425 110 
154 7 364 530 429 231 282 158 156 
155 6 258 312 60 34 59 466 
156 7 429 55 158 282 428 145 364 
157 7 240 248 102 447 545 468 385 
158 7 282 429 55 156 137 530 428 
159 6 451 175 344 453 189 67 
160 6 353 423 12 368 442 267 
161 7 110 327 132 311 400 322 524 
162 6 62 301 308 182 302 266 
163 7 335 263 31 461 303 136 46 
164 7 561 498 75 247 99 377 457 
165 7 78 526 385 338 447 314 44 
166 7 288 7 37 151 28 94 329 
167 7 303 294 456 53 192 330 461 
168 5 376 70 291 512 426 
169 7 93 53 180 320 101 203 5 
170 6 474 410 188 460 15 387 
171 7 187 81 54 304 309 273 5 
172 4 471 328 411 49 
173 6 242 231 149 61 414 274 
174 6 367 549 279 66 514 566 
175 7 451 344 67 495 499 387 159 
176 6 405 121 536 544 38 128 
177 6 516 431 83 48 183 272 
178 2 17 315 
179 7 489 383 35 528 100 241 371 
180 7 169 320 93 211 5 9 227 
181 7 147 29 316 96 23 306 332 
182 7 308 266 62 256 162 337 52 
183 7 83 431 516 48 228 418 177 
184 4 285 141 404 412 
185 7 108 370 196 472 448 427 389 
186 7 20 137 523 32 428 243 55 
187 7 171 54 81 304 309 273 5 
188 7 474 15 170 460 410 201 388 
189 5 453 548 517 159 95 
190 5 341 212 84 268 281 
191 6 530 129 373 282 470 313 
192 7 330 294 456 136 303 167 53 
193 7 262 125 450 541 439 520 196 
194 7 71 484 57 338 391 42 478 
195 7 215 30 18 309 273 310 211 
196 6 448 185 108 370 427 262 
197 7 63 324 261 272 14 418 48 
198 7 202 109 292 325 208 256 224 
199 6 378 463 356 417 47 355 
200 7 310 91 215 30 28 195 18 
201 4 245 388 15 188 
202 7 198 224 22 90 256 109 292 
203 6 101 461 319 320 169 335 
204 5 275 152 297 331 11 
205 5 567 65 547 542 552 
206 7 106 485 525 131 462 430 455 
207 7 402 522 276 347 107 533 221 
208 6 292 109 325 414 198 548 
209 4 557 562 551 80 
210 7 435 50 289 56 119 540 569 
211 7 5 9 273 18 150 93 309 
212 7 268 84 295 190 225 152 341 
213 5 124 381 488 361 407 
214 7 11 225 295 305 297 268 212 
215 7 195 30 18 310 200 309 273 
216 7 43 326 306 40 229 365 10 
217 7 72 80 250 119 540 289 50 
218 7 120 73 443 51 446 449 34 
219 2 455 106 
220 5 494 140 286 539 424 
221 7 272 477 63 260 207 14 522 
222 7 139 278 339 122 10 64 58 
223 7 104 505 394 454 16 483 287 
224 7 95 548 517 202 453 198 398 
225 7 295 268 212 11 84 214 275 
226 6 299 284 264 293 4 144 
227 5 271 233 114 180 150 
228 7 418 261 48 183 197 324 63 
229 7 329 365 40 43 326 37 216 
230 7 23 64 317 58 147 29 115 
231 7 61 173 242 154 364 482 52 
232 4 563 140 220 494 
233 7 114 271 85 227 150 87 9 
234 7 332 96 316 181 401 306 147 
235 6 469 360 400 543 524 110 
236 7 257 556 117 68 56 88 459 
237 7 46 319 263 163 443 335 65 
238 7 441 70 470 291 373 129 168 
239 6 426 518 86 376 168 70 
240 7 157 248 102 447 545 468 45 
241 7 371 35 489 142 383 179 409 
242 7 173 149 61 231 274 414 325 
243 5 523 277 313 186 137 
244 5 302 90 301 162 62 
245 3 388 201 15 
246 7 97 253 112 421 519 555 560 
247 7 377 75 350 340 561 164 269 
248 7 157 240 102 468 545 45 269 
249 7 130 19 26 77 251 280 24 
250 7 135 72 217 289 342 50 119 
251 7 24 249 19 151 130 94 418 
252 7 151 13 28 91 19 85 7 
253 7 112 246 97 421 555 519 375 
254 6 500 38 437 176 532 405 
255 7 545 102 132 322 468 338 57 
256 7 308 182 62 266 198 202 274 
257 7 236 117 556 56 435 270 349 
258 7 155 60 312 34 59 51 466 
259 5 416 343 534 128 509 
260 7 459 477 347 88 533 522 221 
261 7 418 197 228 324 48 63 272 
262 6 193 125 541 196 501 448 
263 7 163 31 335 237 46 136 461 
264 7 284 226 475 89 116 144 143 
265 3 318 87 103 
266 7 182 308 52 337 62 256 274 
267 6 368 527 485 27 436 160 
268 7 212 84 295 225 152 275 190 
269 7 340 377 75 433 247 248 561 
270 7 349 481 384 422 506 487 107 
271 6 227 114 233 87 318 265 
272 7 63 221 197 477 14 261 48 
273 7 309 5 211 18 304 171 81 
274 7 61 52 149 325 266 109 256 
275 7 152 204 84 268 134 212 225 
276 6 140 408 539 402 207 494 
277 4 313 243 523 137 
278 7 339 139 222 64 122 115 230 
279 7 549 144 174 293 367 116 4 
280 7 26 87 130 114 19 77 85 
281 6 341 564 190 334 84 152 
282 7 158 429 55 137 530 156 20 
283 6 535 457 99 351 362 486 
284 6 264 226 299 143 475 89 
285 3 184 404 141 
286 6 8 546 424 496 568 220 
287 7 16 483 337 98 399 223 104 
288 7 166 7 37 329 365 94 229 
289 7 50 72 119 210 540 135 56 
290 7 86 479 518 239 427 426 528 
291 6 70 168 512 376 379 441 
292 7 109 208 325 198 414 149 202 
293 6 4 279 226 549 299 148 
294 7 456 330 192 303 167 136 53 
295 7 225 268 212 84 11 275 214 
296 7 45 486 468 311 524 161 545 
297 4 11 204 331 275 
298 7 25 103 77 79 265 116 318 
299 5 226 284 293 4 403 
300 7 386 41 366 542 74 547 552 
301 5 302 162 62 244 505 
302 4 301 244 162 62 
303 7 167 294 136 456 192 31 335 
304 7 187 171 54 81 309 5 273 
305 2 358 15 
306 7 29 58 181 216 10 147 43 
307 5 363 502 498 33 123 
308 7 182 62 266 162 256 337 52 
309 7 273 81 171 187 304 5 18 
310 7 200 91 215 30 195 28 18 
311 7 524 486 400 110 161 296 45 
312 4 155 258 60 302 
313 4 277 243 523 137 
314 7 44 133 526 447 385 165 78 
315 4 17 444 178 520 
316 7 96 332 181 234 401 147 68 
317 7 23 68 230 342 147 556 117 
318 5 265 87 114 280 271 
319 6 46 203 101 461 237 335 
320 5 180 169 203 101 227 
321 4 491 389 472 82 
322 7 132 153 161 327 110 255 57 
323 4 346 490 491 82 
324 7 197 261 63 401 418 14 228 
325 7 109 292 149 274 208 414 198 
326 7 43 365 216 329 229 94 40 
327 7 110 400 161 469 311 322 132 
328 7 49 419 411 445 172 471 105 
329 7 365 229 40 326 37 43 288 
330 7 456 192 294 167 303 54 53 
331 5 393 333 476 21 204 
332 7 234 96 316 401 181 147 324 
333 6 393 476 331 21 559 142 
334 6 530 564 191 154 129 281 
335 7 163 461 31 303 167 101 263 
336 5 348 415 392 428 145 
337 7 266 52 182 287 308 482 98 
338 7 385 526 447 165 78 255 194 
339 7 278 64 115 139 122 230 222 
340 7 247 377 269 75 350 561 164 
341 6 281 190 84 212 173 268 
342 7 135 317 72 250 289 50 56 
343 4 259 416 509 128 
344 7 387 175 67 451 465 499 495 
345 7 531 553 123 430 357 395 525 
346 3 323 47 417 
347 7 533 522 459 107 487 506 260 
348 6 336 428 415 145 392 156 
349 7 270 481 384 506 487 107 3 
350 7 247 340 554 561 377 33 75 
351 6 113 362 357 369 123 345 
352 5 458 403 382 92 111 
353 7 160 12 442 423 413 368 406 
354 3 406 413 12 
355 6 412 417 47 463 199 503 
356 7 463 111 503 47 378 417 92 
357 7 113 345 369 521 351 430 123 
358 2 305 15 
359 3 420 434 111 
360 5 501 235 543 541 125 
361 5 407 381 213 515 124 
362 4 351 369 113 357 
363 5 502 307 33 123 498 
364 7 482 154 156 98 429 231 158 
365 7 329 229 40 326 43 37 288 
366 7 41 300 547 449 446 386 65 
367 6 174 549 514 66 279 566 
368 6 27 267 160 353 436 442 
369 4 113 357 351 362 
370 6 108 185 472 196 389 427 
371 7 241 142 35 489 383 179 409 
372 6 74 552 542 300 386 547 
373 4 470 379 129 441 
374 6 126 427 448 501 360 196 
375 7 555 112 246 513 97 253 510 
376 5 168 512 70 291 426 
377 7 75 247 340 561 269 164 350 
378 7 199 356 463 92 417 111 47 
379 5 291 373 512 70 470 
380 1 69 
381 5 361 407 213 124 488 
382 4 458 403 352 92 
383 7 489 35 179 371 241 142 528 
384 7 481 349 3 506 270 487 107 
385 7 526 338 447 165 78 314 44 
386 7 300 74 41 366 542 372 552 
387 7 344 465 560 175 67 499 495 
388 4 245 201 15 188 
389 6 321 472 491 108 185 370 
390 4 397 490 82 515 
391 5 57 425 42 484 529 
392 5 415 145 399 336 348 
393 5 331 333 476 21 559 
394 5 454 104 396 223 505 
395 6 553 525 531 106 345 430 
396 3 394 454 104 
397 4 515 390 124 444 
398 7 464 127 517 95 453 224 189 
399 4 392 483 16 415 
400 7 110 469 327 311 524 161 235 
401 7 14 324 96 88 197 316 332 
402 7 207 563 276 140 232 522 221 
403 4 352 458 382 92 
404 4 2 141 285 184 
405 7 176 536 121 544 128 38 76 
406 5 413 354 12 442 353 
407 5 361 381 213 515 124 
408 5 3 276 539 384 140 
409 6 508 76 497 128 534 536 
410 6 170 460 474 188 387 15 
411 7 419 328 172 105 49 471 422 
412 5 355 417 47 463 199 
413 6 406 12 354 442 353 160 
414 6 149 208 325 292 109 242 
415 5 392 145 336 348 399 
416 7 509 259 118 529 343 42 478 
417 7 47 463 503 355 356 199 412 
418 7 228 261 48 324 197 63 183 
419 7 411 328 105 49 172 422 445 
420 5 359 434 111 92 503 
421 7 519 97 246 495 253 499 67 
422 7 105 481 270 419 349 384 411 
423 4 160 353 12 413 
424 4 496 286 8 546 
425 4 391 440 57 36 
426 6 239 518 376 168 70 86 
427 6 448 185 196 108 370 479 
428 7 20 348 55 186 137 336 32 
429 7 158 55 156 282 137 428 530 
430 7 131 462 531 521 525 345 553 
431 7 83 516 183 48 177 228 261 
432 7 569 480 445 146 105 467 540 
433 7 269 340 248 133 377 157 75 
434 3 420 359 111 
435 7 210 56 117 422 569 50 257 
436 4 550 27 267 368 
437 6 532 492 254 500 38 559 
438 5 148 4 523 293 243 
439 6 450 17 520 444 193 541 
440 4 36 497 409 425 
441 7 238 70 470 291 379 373 168 
442 6 12 353 413 27 406 160 
443 7 446 449 65 218 366 547 41 
444 5 520 17 315 450 439 
445 7 146 480 49 105 328 452 565 
446 7 449 443 366 41 51 218 65 
447 7 385 526 338 157 240 102 165 
448 6 196 185 427 501 108 262 
449 7 446 366 41 443 547 51 65 
450 6 520 439 17 444 193 315 
451 7 175 67 344 495 159 499 387 
452 4 565 146 467 445 
453 6 189 517 548 95 464 159 
454 5 394 104 396 505 223 
455 3 219 206 106 
456 7 294 330 192 167 303 53 136 
457 6 535 99 283 498 351 164 
458 5 352 382 403 92 111 
459 7 347 533 260 107 522 506 487 
460 5 410 474 188 170 15 
461 7 335 101 203 319 163 167 303 
462 7 131 430 521 485 527 550 106 
463 7 417 47 356 503 199 378 355 
464 7 398 517 127 95 453 159 189 
465 7 560 499 519 387 344 495 67 
466 5 558 511 59 60 386 
467 3 565 452 146 
468 7 45 545 296 102 132 161 248 
469 6 400 235 110 327 524 311 
470 5 373 129 441 238 379 
471 3 172 328 49 
472 5 370 108 389 185 321 
473 7 138 493 36 126 153 100 440 
474 7 188 170 410 460 15 201 387 
475 7 89 143 116 264 2 79 144 
476 7 21 333 393 331 383 559 538 
477 7 260 221 272 14 459 347 522 
478 7 118 42 529 509 484 416 71 
479 7 86 518 290 427 239 370 426 
480 7 445 105 146 432 569 49 328 
481 7 270 349 384 422 506 3 487 
482 7 364 98 337 145 156 154 231 
483 5 16 399 287 394 223 
484 7 42 71 478 529 391 194 118 
485 6 527 462 206 267 131 106 
486 7 524 296 311 99 45 283 535 
487 7 107 506 533 347 522 3 384 
488 3 213 124 381 
489 7 35 383 179 371 241 142 528 
490 4 82 323 390 491 
491 5 321 389 82 346 323 
492 5 532 437 254 500 38 
493 7 473 126 138 100 36 179 528 
494 4 220 140 539 286 
495 7 499 67 519 421 465 344 560 
496 6 424 546 8 286 124 568 
497 6 508 76 409 128 534 536 
498 7 307 457 123 363 502 33 164 
499 7 495 67 519 465 344 421 560 
500 5 254 176 38 405 437 
501 6 360 125 448 541 262 196 
502 3 363 307 33 
503 6 47 417 463 356 420 111 
504 2 442 27 
505 7 104 223 454 394 301 396 16 
506 7 487 107 349 533 384 347 459 
507 7 538 238 441 21 134 290 476 
508 6 76 409 497 128 534 536 
509 7 118 416 529 478 42 259 343 
510 4 513 560 465 97 
511 4 558 466 386 59 
512 4 291 376 168 70 
513 4 510 560 465 97 
514 3 367 66 174 
515 6 361 397 407 124 381 213 
516 6 431 83 177 183 48 2 
517 7 464 95 453 398 189 224 127 
518 6 239 86 426 479 376 290 
519 7 421 97 499 495 246 465 560 
520 5 444 450 17 439 315 
521 5 550 462 430 131 357 
522 7 347 533 107 487 459 207 506 
523 6 243 277 186 137 313 20 
524 7 311 486 400 110 469 296 161 
525 7 395 106 553 531 131 430 206 
526 7 385 165 78 447 338 314 44 
527 6 485 267 462 550 131 206 
528 7 100 179 383 489 35 126 493 
529 7 42 118 478 509 416 484 259 
530 7 191 282 158 154 429 55 334 
531 7 553 395 525 345 430 131 106 
532 6 437 492 254 500 38 559 
533 7 347 107 487 522 459 506 260 
534 7 128 497 508 76 409 259 536 
535 6 283 457 99 498 351 362 
536 7 405 121 176 544 128 76 508 
537 3 568 8 286 
538 7 507 21 476 528 134 238 383 
539 2 494 140 
540 7 119 551 289 50 80 210 569 
541 6 125 193 262 543 501 439 
542 7 552 74 372 300 547 386 41 
543 4 541 360 125 235 
544 7 121 405 536 38 176 76 128 
545 7 102 468 255 132 45 240 157 
546 5 8 568 286 496 424 
547 7 41 366 65 300 567 542 449 
548 4 189 224 453 95 
549 7 174 279 367 66 293 6 566 
550 4 521 462 436 131 
551 5 562 80 209 540 557 
552 6 542 372 74 300 547 386 
553 6 395 531 525 345 106 430 
554 4 69 33 350 502 
555 7 375 112 246 253 97 513 421 
556 7 117 257 56 236 68 435 317 
557 4 209 562 551 80 
558 4 511 466 386 59 
559 7 142 38 333 437 254 544 532 
560 7 465 519 387 499 344 495 97 
561 7 164 75 247 377 498 350 99 
562 4 551 209 557 80 
563 4 232 402 140 276 
564 7 129 334 281 470 238 134 191 
565 4 452 146 467 445 
566 5 66 6 514 549 367 
567 7 205 65 547 542 552 41 366 
568 5 546 8 286 496 424 
569 7 432 480 105 210 445 540 435 
DEPOT_SECTION
   1
   -1
EOF
