NAME :  X-n716-kX-w71-c9.cctp
COMMENT : 	Adapted by Maziero, Usberti and Cavellucci from the Uchoa, Pecin, Pessoa, Poggi, Subramanian, and Vidal (2013)
TYPE :  CCTP
DIMENSION :    481
EDGE_WEIGHT_TYPE : 	EUC_2D	
CAPACITY : 	1007
VERTICES_WITHIN_COVERAGE :  9
VERTICES_WITH_DEMAND : 	71
NODE_COORD_SECTION
1 377 105
2 535 93
3 820 625
4 689 745
5 807 568
6 589 169
7 649 756
8 821 693
9 567 240
10 517 211
11 598 141
12 903 670
13 713 679
14 574 89
15 395 116
16 829 560
17 409 30
18 804 653
19 918 527
20 829 641
21 828 559
22 559 118
23 591 816
24 985 650
25 510 71
26 528 66
27 556 132
28 568 115
29 692 731
30 877 663
31 703 728
32 820 568
33 716 754
34 790 391
35 613 71
36 898 518
37 838 501
38 465 142
39 440 163
40 859 635
41 907 620
42 532 157
43 791 140
44 463 11
45 894 947
46 883 591
47 718 559
48 697 747
49 928 495
50 877 488
51 732 699
52 747 648
53 541 167
54 801 767
55 817 673
56 495 114
57 853 634
58 769 733
59 592 630
60 481 157
61 832 750
62 630 650
63 858 405
64 774 793
65 393 33
66 918 650
67 842 625
68 781 709
69 670 731
70 698 682
71 888 510
72 691 227
73 607 583
74 684 755
75 719 538
76 561 258
77 801 588
78 651 724
79 558 156
80 679 745
81 815 769
82 544 45
83 884 664
84 700 661
85 765 754
86 743 668
87 677 739
88 821 657
89 627 767
90 597 221
91 564 124
92 619 81
93 841 603
94 807 381
95 817 571
96 822 587
97 547 622
98 861 546
99 981 603
100 506 265
101 535 190
102 951 510
103 802 650
104 813 632
105 541 571
106 782 710
107 734 199
108 708 753
109 516 250
110 724 727
111 813 655
112 341 76
113 390 94
114 533 205
115 871 644
116 953 650
117 972 653
118 426 136
119 462 6
120 799 558
121 856 548
122 426 177
123 650 737
124 698 750
125 882 489
126 500 9
127 706 709
128 618 687
129 769 171
130 493 12
131 569 840
132 814 628
133 761 651
134 444 124
135 780 712
136 743 689
137 757 743
138 935 662
139 703 732
140 446 133
141 840 701
142 689 226
143 544 125
144 719 724
145 542 166
146 698 689
147 763 420
148 791 644
149 688 744
150 913 536
151 703 717
152 883 666
153 812 727
154 483 119
155 458 155
156 569 802
157 818 695
158 680 669
159 777 847
160 849 641
161 793 567
162 785 663
163 494 71
164 723 547
165 817 501
166 682 664
167 819 644
168 568 904
169 825 582
170 805 573
171 619 286
172 734 438
173 802 575
174 611 583
175 882 653
176 432 156
177 941 611
178 517 50
179 673 241
180 873 575
181 805 702
182 538 133
183 873 905
184 382 39
185 572 101
186 724 757
187 696 688
188 528 89
189 458 136
190 474 156
191 395 137
192 464 23
193 787 798
194 449 182
195 472 104
196 719 534
197 826 574
198 510 126
199 564 190
200 576 211
201 827 635
202 531 155
203 553 135
204 532 92
205 524 221
206 831 657
207 573 132
208 786 9
209 397 88
210 528 185
211 614 113
212 370 164
213 676 561
214 810 607
215 839 712
216 791 642
217 497 60
218 897 655
219 933 544
220 905 584
221 796 690
222 619 848
223 794 660
224 701 755
225 659 216
226 479 165
227 762 652
228 635 649
229 961 442
230 830 674
231 610 158
232 908 677
233 380 165
234 898 676
235 647 742
236 523 98
237 981 544
238 680 745
239 645 758
240 686 747
241 799 670
242 516 261
243 507 53
244 785 686
245 495 73
246 375 182
247 398 104
248 587 644
249 632 164
250 530 37
251 708 738
252 420 201
253 832 651
254 834 40
255 790 543
256 971 447
257 758 803
258 578 210
259 721 751
260 708 762
261 622 645
262 701 683
263 537 199
264 734 650
265 841 717
266 488 202
267 788 773
268 991 514
269 640 746
270 849 646
271 879 660
272 865 695
273 537 90
274 652 757
275 588 132
276 553 791
277 863 485
278 811 641
279 653 665
280 417 157
281 732 557
282 877 596
283 520 80
284 719 547
285 833 635
286 682 720
287 717 744
288 576 805
289 724 645
290 624 678
291 420 66
292 603 661
293 565 102
294 657 772
295 685 550
296 420 118
297 611 73
298 477 191
299 739 646
300 696 742
301 499 127
302 458 130
303 703 731
304 540 79
305 794 695
306 809 734
307 636 81
308 667 716
309 866 744
310 908 653
311 537 119
312 592 805
313 805 793
314 611 127
315 579 90
316 524 75
317 758 738
318 489 114
319 494 94
320 528 65
321 547 656
322 559 88
323 522 61
324 488 816
325 817 608
326 890 512
327 995 478
328 544 195
329 814 524
330 801 670
331 901 581
332 709 580
333 924 348
334 945 660
335 607 77
336 695 744
337 531 66
338 854 545
339 850 405
340 956 623
341 674 735
342 522 149
343 668 719
344 884 343
345 738 650
346 669 715
347 839 634
348 535 155
349 681 673
350 612 153
351 680 186
352 508 183
353 854 424
354 752 788
355 609 792
356 682 693
357 539 196
358 657 736
359 621 216
360 786 784
361 941 669
362 629 62
363 799 640
364 512 85
365 790 810
366 659 773
367 814 655
368 904 688
369 614 81
370 724 690
371 553 87
372 728 755
373 545 91
374 759 838
375 828 706
376 947 526
377 571 297
378 891 583
379 617 861
380 684 261
381 857 723
382 549 106
383 771 552
384 669 741
385 496 70
386 548 78
387 864 673
388 952 875
389 651 752
390 709 747
391 724 748
392 266 39
393 894 666
394 928 560
395 707 731
396 511 817
397 805 653
398 508 130
399 773 560
400 528 154
401 534 55
402 820 653
403 618 298
404 798 672
405 614 45
406 493 26
407 747 740
408 757 655
409 845 653
410 551 125
411 705 719
412 463 8
413 576 77
414 574 577
415 490 168
416 757 397
417 873 635
418 629 137
419 778 727
420 701 727
421 878 620
422 629 757
423 834 753
424 883 622
425 852 520
426 828 545
427 737 691
428 660 626
429 710 688
430 725 765
431 653 735
432 829 553
433 853 652
434 759 729
435 598 56
436 931 436
437 877 690
438 692 743
439 560 127
440 418 158
441 610 838
442 406 120
443 509 118
444 852 709
445 742 669
446 616 172
447 700 223
448 687 680
449 769 686
450 810 979
451 891 663
452 917 552
453 580 241
454 845 598
455 494 195
456 903 617
457 652 236
458 573 182
459 716 702
460 535 124
461 480 176
462 661 559
463 520 195
464 887 583
465 536 133
466 609 48
467 533 641
468 929 673
469 906 679
470 887 598
471 990 612
472 927 659
473 654 624
474 552 100
475 846 570
476 525 68
477 892 591
478 462 157
479 863 795
480 619 603
481 869 503
DEMAND_SECTION
2 47
3 21
4 19
5 37
6 40
7 79
8 60
9 88
10 84
11 75
12 12
13 42
14 21
15 91
16 6
17 57
18 7
19 66
20 7
21 99
22 75
23 4
24 85
25 10
26 29
27 6
28 20
29 7
30 50
31 26
32 29
33 99
34 45
35 57
36 14
37 33
38 2
39 38
40 43
41 64
42 85
43 84
44 46
45 53
46 45
47 48
48 48
49 85
50 60
51 2
52 17
53 12
54 99
55 43
56 40
57 29
58 13
59 29
60 26
61 66
62 45
63 34
64 33
65 6
66 72
67 34
68 16
69 36
70 69
71 10
72 10
COVERAGE_SECTION
2 9 204 273 188 373 236 304 474 371 382 
3 8 132 104 201 285 325 20 278 167 
4 9 149 240 438 336 48 300 238 80 124 
5 9 170 173 95 32 120 161 197 77 16 
6 9 458 231 446 350 11 199 79 275 207 
7 8 274 239 389 269 235 294 123 366 
8 9 157 375 181 55 141 230 221 215 305 
9 8 453 76 200 258 90 205 114 199 
10 9 205 463 114 263 357 101 210 455 352 
11 9 275 350 314 231 207 6 418 211 446 
12 9 234 232 469 393 451 218 310 368 83 
13 9 429 262 70 370 146 187 84 459 448 
14 8 315 185 413 322 293 371 474 28 
15 8 247 442 191 113 296 209 118 280 
16 9 21 432 32 197 426 95 475 169 5 
17 9 65 184 291 192 44 119 412 209 113 
18 9 397 103 111 367 223 278 363 148 402 
19 9 150 36 219 452 376 326 49 71 394 
20 9 201 285 167 253 347 402 206 3 88 
21 9 16 432 32 426 197 95 475 5 169 
22 9 91 28 439 410 27 382 143 293 203 
23 8 312 288 156 441 355 131 222 276 
24 9 117 116 471 340 334 99 361 138 177 
25 9 283 364 385 245 316 476 163 323 217 
26 9 320 337 476 323 316 401 283 304 25 
27 9 203 439 410 91 22 143 207 182 465 
28 9 22 91 293 439 185 207 410 27 382 
29 9 420 31 139 303 300 438 336 4 149 
30 9 271 83 152 175 451 387 393 115 218 
31 9 420 303 139 395 411 29 151 251 144 
32 9 95 197 16 21 5 169 170 432 96 
33 9 259 108 186 287 390 391 260 372 430 
34 7 94 416 147 339 63 353 172 
35 9 297 335 369 92 362 435 466 307 405 
36 8 326 71 19 150 125 481 50 49 
37 9 165 425 277 481 329 50 426 125 338 
38 9 189 302 155 478 190 140 60 226 134 
39 9 176 122 155 194 440 478 280 118 140 
40 9 57 160 417 115 270 433 67 347 409 
41 9 456 424 421 470 66 310 477 177 218 
42 8 202 348 400 53 145 342 465 182 
43 3 129 107 254 
44 6 412 119 192 130 406 126 
45 3 183 450 388 
46 8 282 470 464 477 378 180 331 220 
47 8 284 164 281 75 332 196 295 213 
48 9 124 336 300 438 4 149 224 240 390 
49 9 102 19 376 36 326 71 150 125 219 
50 9 125 277 481 71 326 36 37 425 49 
51 6 427 370 136 459 429 13 
52 9 299 345 408 264 133 227 86 445 289 
53 9 145 42 348 202 400 79 210 101 342 
54 9 81 267 360 313 193 306 61 423 64 
55 9 230 88 330 111 241 367 404 8 402 
56 8 318 154 301 443 198 319 398 195 
57 9 40 160 270 67 347 433 285 417 115 
58 8 419 434 317 137 85 407 135 106 
59 9 248 292 261 480 62 97 228 73 174 
60 9 190 226 415 461 478 38 155 189 298 
61 9 423 81 306 153 265 54 309 381 215 
62 8 228 261 279 290 292 473 428 128 
63 9 339 353 94 344 34 436 277 50 125 
64 7 193 360 257 354 365 267 313 
65 9 184 17 291 209 113 112 247 192 44 
66 9 310 472 138 218 12 468 232 334 393 
67 9 347 285 57 160 201 40 20 3 93 
68 9 106 135 419 305 244 221 181 449 58 
69 8 341 384 87 343 358 308 286 346 
70 9 262 187 146 448 429 13 349 356 84 
71 9 326 36 481 125 50 19 277 150 425 
72 8 142 447 179 225 380 457 351 107 
73 7 174 480 414 59 462 473 248 
74 5 240 4 80 238 149 
75 8 196 284 164 47 281 295 332 213 
76 9 9 453 377 242 109 200 258 90 205 
77 5 173 170 5 96 214 
78 9 431 123 358 235 308 343 69 346 269 
79 9 145 53 203 348 27 42 202 207 439 
80 6 238 87 240 149 4 74 
81 9 54 61 423 313 267 360 306 193 153 
82 6 401 250 337 26 320 178 
83 9 152 271 30 451 393 175 218 234 12 
84 6 166 70 13 158 262 349 
85 4 137 317 58 407 
86 8 445 345 408 52 264 136 299 427 
87 6 341 80 238 384 69 149 
88 9 402 367 111 206 167 253 55 397 18 
89 5 422 239 7 269 274 
90 8 258 200 359 453 9 199 458 76 
91 9 439 22 28 27 207 410 203 143 293 
92 6 369 297 35 335 307 362 
93 4 454 67 96 325 
94 8 34 339 416 63 147 353 344 172 
95 9 32 197 5 170 169 16 21 173 96 
96 4 169 197 95 32 
97 6 467 321 59 248 105 414 
98 8 121 338 425 475 180 426 432 16 
99 9 471 340 177 24 117 116 237 334 394 
100 5 242 109 205 10 76 
101 9 357 210 263 328 114 463 53 145 10 
102 9 376 49 19 219 268 237 150 36 327 
103 9 18 397 363 111 148 223 278 367 216 
104 9 132 278 3 167 201 363 20 285 103 
105 7 414 97 73 467 174 59 480 
106 9 68 135 419 305 181 221 244 58 449 
107 8 447 129 72 142 351 179 225 380 
108 8 390 224 33 260 124 48 259 287 
109 8 242 100 205 10 76 114 9 263 
110 5 144 395 287 251 31 
111 9 367 402 88 397 18 103 167 278 55 
112 9 113 184 209 247 15 65 442 291 191 
113 8 209 247 15 442 296 291 191 112 
114 8 263 357 101 328 463 10 205 210 
115 9 417 175 40 271 30 433 57 160 270 
116 9 334 117 138 361 340 472 24 468 66 
117 9 24 116 334 340 361 138 471 472 468 
118 8 296 140 176 134 280 440 442 39 
119 6 412 44 192 130 406 126 
120 8 161 5 170 173 255 95 32 399 
121 9 338 98 475 432 425 426 16 21 180 
122 8 39 440 176 280 194 252 155 118 
123 9 431 235 358 78 269 389 7 384 274 
124 9 48 224 336 300 438 4 108 390 149 
125 9 50 277 481 71 326 36 425 37 49 
126 6 130 406 44 412 119 192 
127 6 151 411 459 31 420 144 
128 3 290 292 62 
129 6 43 107 447 351 72 142 
130 6 126 406 44 412 192 119 
131 9 23 288 156 441 312 222 276 379 355 
132 9 104 3 278 201 167 363 20 285 325 
133 6 227 408 52 299 345 86 
134 6 140 302 189 118 296 38 
135 9 68 106 419 305 58 244 181 221 434 
136 8 427 51 370 445 86 449 459 13 
137 5 317 407 85 434 58 
138 9 361 472 334 468 66 116 310 232 12 
139 9 303 31 395 420 251 29 300 411 336 
140 7 134 189 302 118 38 155 176 
141 9 215 375 444 265 8 157 272 381 230 
142 8 72 447 179 225 380 457 351 107 
143 9 410 311 460 182 465 203 27 439 22 
144 6 110 395 411 31 151 303 
145 9 53 42 348 202 400 79 210 101 342 
146 8 187 70 262 429 448 356 13 127 
147 4 416 172 34 94 
148 8 216 363 103 18 223 397 162 278 
149 8 4 240 438 336 238 300 48 80 
150 7 19 452 219 36 394 326 376 
151 8 411 127 420 31 303 139 395 144 
152 9 83 30 271 451 393 175 218 234 12 
153 9 306 181 375 61 215 265 157 106 419 
154 7 318 56 301 195 443 302 319 
155 9 478 38 190 189 39 60 226 140 302 
156 8 288 276 312 23 131 355 441 396 
157 9 8 181 375 55 141 221 230 305 215 
158 5 349 166 448 70 84 
159 5 374 365 257 193 64 
160 9 270 57 40 347 433 409 67 285 20 
161 8 120 173 170 5 399 77 95 255 
162 6 223 241 404 330 148 18 
163 4 245 385 217 25 
164 9 284 75 47 281 196 332 295 383 213 
165 7 37 329 425 426 277 255 481 
166 6 158 349 448 84 70 262 
167 9 278 402 20 201 367 88 104 111 253 
168 5 131 379 222 441 23 
169 6 96 197 95 32 16 170 
170 8 173 5 95 161 32 77 120 197 
171 8 403 377 453 457 76 9 90 179 
172 3 147 416 34 
173 7 170 5 161 77 95 120 32 
174 7 73 480 414 59 462 473 261 
175 9 271 30 83 152 451 115 218 393 417 
176 9 39 440 280 118 122 155 140 478 194 
177 9 340 41 456 99 116 66 220 334 471 
178 8 243 323 250 401 26 320 476 337 
179 9 142 457 72 380 225 447 351 359 171 
180 7 464 46 378 282 477 470 475 
181 9 305 157 221 8 375 106 68 153 244 
182 7 465 460 143 311 203 410 27 
183 2 45 388 
184 8 65 17 291 209 112 113 247 15 
185 9 293 14 315 28 322 474 22 91 371 
186 7 372 259 430 33 391 287 108 
187 7 146 70 262 448 429 356 13 
188 9 204 2 273 236 283 316 304 364 373 
189 7 302 38 140 134 155 478 190 
190 9 60 226 478 155 38 415 461 189 302 
191 9 442 15 280 118 296 440 233 247 212 
192 6 44 412 119 406 130 126 
193 9 365 64 360 313 267 257 54 354 81 
194 8 39 122 155 478 298 176 461 226 
195 4 154 318 319 56 
196 8 75 284 164 47 281 295 332 213 
197 8 32 169 95 16 96 21 5 475 
198 7 398 443 301 56 318 460 342 
199 8 458 328 200 258 357 263 101 6 
200 8 258 90 199 458 9 453 328 357 
201 9 20 285 3 167 347 104 132 253 278 
202 8 42 400 348 342 53 145 182 465 
203 9 27 410 439 143 182 91 465 22 207 
204 9 2 188 273 236 373 304 283 316 364 
205 9 10 114 263 463 357 109 101 328 210 
206 9 253 88 402 409 20 230 367 111 167 
207 9 91 439 275 27 28 22 203 410 11 
208 2 254 43 
209 8 113 247 15 291 442 296 191 184 
210 9 101 463 357 263 328 352 114 53 145 
211 5 314 418 11 92 275 
212 9 233 246 191 280 440 15 122 442 252 
213 8 295 462 332 47 284 75 164 196 
214 2 325 3 
215 9 265 141 375 444 381 8 157 153 272 
216 8 148 363 103 18 223 397 278 162 
217 5 385 163 243 245 25 
218 9 451 310 393 175 12 83 152 271 234 
219 7 394 452 150 19 376 102 36 
220 7 331 378 477 464 46 470 282 
221 8 305 244 181 404 241 330 157 68 
222 4 379 441 23 131 
223 9 162 241 18 330 103 397 404 148 216 
224 7 124 108 48 260 390 336 300 
225 8 457 179 142 72 351 359 447 380 
226 9 60 190 415 461 478 155 298 38 194 
227 7 133 408 52 299 345 86 162 
228 7 62 261 279 290 473 292 428 
229 9 256 436 327 49 102 268 376 125 19 
230 9 55 206 88 8 253 402 157 111 367 
231 9 350 446 11 249 6 418 314 275 458 
232 8 469 12 234 368 393 468 451 310 
233 9 212 246 191 280 440 122 15 442 176 
234 9 12 469 232 393 368 451 83 152 218 
235 9 123 269 431 389 358 7 239 274 78 
236 8 188 204 2 273 364 283 316 373 
237 9 268 376 102 219 394 99 452 19 327 
238 6 80 240 87 149 4 74 
239 9 7 274 389 269 235 422 294 89 366 
240 7 4 149 238 80 438 74 336 
241 9 330 404 223 162 18 55 397 103 221 
242 7 100 109 205 76 10 9 114 
243 6 178 217 323 25 385 163 
244 6 221 305 449 404 241 68 
245 6 163 385 217 25 319 364 
246 9 233 212 191 252 280 440 122 176 39 
247 8 15 113 209 442 296 191 118 291 
248 8 59 292 261 321 62 97 228 290 
249 7 446 231 350 418 11 6 314 
250 7 82 178 401 323 243 320 26 
251 9 395 139 303 390 31 287 300 420 48 
252 7 122 194 39 440 280 176 246 
253 9 206 20 402 88 409 167 285 201 270 
254 3 208 43 129 
255 7 120 383 161 399 5 329 170 
256 9 229 327 436 49 102 268 376 19 125 
257 6 354 64 193 365 360 374 
258 8 200 90 199 458 453 9 328 357 
259 9 391 33 186 287 372 108 390 430 260 
260 5 108 224 33 390 124 
261 9 62 228 292 290 59 248 279 473 128 
262 9 70 146 187 429 13 448 356 84 349 
263 8 357 114 328 101 210 463 10 205 
264 7 345 299 289 52 86 445 408 
265 9 215 444 141 375 381 8 153 157 272 
266 8 455 298 461 352 10 463 415 226 
267 7 360 54 64 193 313 81 85 
268 9 237 327 102 376 219 49 256 19 229 
269 7 235 7 123 239 389 274 422 
270 9 160 433 409 57 40 347 253 285 20 
271 9 30 83 152 175 451 393 115 218 387 
272 8 437 444 387 141 381 215 265 30 
273 9 2 204 373 188 304 236 371 386 474 
274 8 7 389 239 235 269 294 366 123 
275 9 11 207 314 91 28 439 22 27 211 
276 8 156 288 312 23 396 131 355 324 
277 9 50 125 481 37 71 425 326 36 165 
278 9 104 167 363 103 132 397 18 111 367 
279 5 228 62 158 166 349 
280 9 440 176 122 118 39 191 140 233 296 
281 8 164 47 284 75 196 332 383 399 
282 9 46 470 464 477 378 180 421 424 331 
283 9 316 364 188 25 476 26 204 320 236 
284 8 164 75 47 196 281 295 332 213 
285 9 201 347 20 67 3 253 160 167 270 
286 7 343 346 29 69 308 341 87 
287 9 259 391 390 33 251 108 186 372 395 
288 8 156 312 23 276 355 131 441 222 
289 4 264 299 345 52 
290 4 128 292 62 228 
291 6 209 17 113 65 247 184 
292 7 248 261 290 62 128 59 228 
293 9 185 28 474 322 14 382 22 315 371 
294 5 366 274 7 239 389 
295 9 213 462 47 284 75 164 196 332 281 
296 7 442 118 15 134 247 140 191 
297 9 35 335 369 92 362 435 466 307 405 
298 8 461 266 455 226 415 194 352 60 
299 8 345 264 52 289 408 86 133 445 
300 9 336 438 48 4 124 149 240 29 139 
301 7 398 198 443 56 318 154 342 
302 6 189 140 38 134 155 154 
303 9 139 31 395 420 251 29 411 300 151 
304 9 386 273 373 2 204 371 188 316 337 
305 8 221 181 244 68 106 135 404 157 
306 9 153 61 423 181 419 54 375 81 106 
307 5 92 362 369 35 297 
308 6 346 343 69 286 78 341 
309 6 381 423 61 265 444 215 
310 9 66 218 12 393 451 472 232 234 83 
311 7 460 143 182 465 410 382 22 
312 7 23 288 355 156 441 276 131 
313 8 193 360 365 54 81 267 64 257 
314 6 211 11 418 275 350 231 
315 8 14 185 413 293 322 371 28 474 
316 9 283 476 26 320 337 323 25 188 304 
317 6 137 434 407 58 85 419 
318 7 56 154 301 195 443 319 198 
319 7 56 364 245 318 163 195 385 
320 9 26 337 476 323 316 401 283 304 25 
321 4 467 97 248 59 
322 8 371 373 474 14 293 386 185 315 
323 9 320 26 476 337 178 401 316 25 243 
324 6 396 276 156 131 288 23 
325 2 214 3 
326 9 71 36 481 125 50 19 150 277 425 
327 9 268 256 229 102 237 376 49 436 19 
328 8 357 263 101 114 210 199 463 53 
329 8 165 426 255 37 432 120 21 425 
330 9 241 404 223 55 18 162 397 111 103 
331 6 220 378 477 464 46 470 
332 4 47 281 284 164 
333 9 344 63 436 339 229 353 256 94 34 
334 8 138 361 116 472 468 117 66 310 
335 8 297 35 369 92 435 362 307 466 
336 9 300 438 48 4 124 149 240 29 224 
337 9 26 320 476 323 316 401 304 283 178 
338 9 121 98 425 426 432 475 16 21 180 
339 9 63 353 94 34 344 277 50 436 147 
340 9 177 116 99 117 471 334 24 138 472 
341 6 87 69 384 80 238 149 
342 8 400 202 42 348 465 182 398 53 
343 7 308 346 69 286 341 78 358 
344 9 333 63 339 94 353 436 34 229 256 
345 8 264 299 52 289 86 445 408 133 
346 6 308 343 286 69 78 341 
347 9 285 67 20 160 201 57 270 253 40 
348 9 42 202 400 53 145 342 182 465 79 
349 5 158 166 448 70 356 
350 9 231 11 446 249 418 314 6 275 211 
351 8 225 142 72 447 249 179 107 457 
352 9 463 455 210 415 101 266 10 461 298 
353 9 63 339 277 94 50 125 34 436 37 
354 2 257 64 
355 6 312 23 89 288 422 156 
356 5 448 187 146 70 349 
357 8 263 328 101 114 210 463 199 10 
358 8 431 123 235 78 384 69 341 389 
359 9 90 457 225 258 446 200 453 249 6 
360 9 267 193 64 313 54 365 81 257 354 
361 8 138 334 468 472 116 66 232 117 
362 7 35 307 92 297 405 369 466 
363 8 216 148 103 278 18 397 104 132 
364 9 283 25 188 316 236 319 204 245 476 
365 8 193 64 313 360 257 267 159 374 
366 4 294 274 7 239 
367 9 111 402 88 397 18 167 103 278 206 
368 4 469 232 234 12 
369 7 92 335 297 35 307 362 435 
370 9 51 427 429 459 13 136 262 127 146 
371 8 322 373 386 474 304 273 2 293 
372 6 186 259 391 430 33 287 
373 9 273 371 2 474 204 304 386 322 382 
374 5 159 257 365 64 193 
375 9 141 215 8 157 265 181 444 153 230 
376 9 102 219 19 150 49 237 394 452 268 
377 9 76 403 171 9 453 242 100 109 90 
378 8 464 477 331 46 220 470 282 180 
379 4 222 441 23 131 
380 9 179 72 142 447 457 225 171 351 403 
381 9 444 265 215 309 141 272 375 61 423 
382 9 474 22 293 373 311 2 371 410 143 
383 6 399 255 161 120 5 173 
384 6 87 341 69 80 238 358 
385 5 163 245 217 25 243 
386 8 304 371 373 322 273 2 204 337 
387 9 30 152 271 437 83 272 433 175 409 
388 2 183 45 
389 8 7 274 239 235 269 123 358 431 
390 9 108 251 287 33 124 224 48 259 300 
391 9 259 287 372 186 33 390 108 430 251 
392 9 112 184 65 113 209 17 247 15 291 
393 9 451 12 83 152 218 234 271 30 175 
394 6 452 219 150 220 19 331 
395 9 139 303 31 251 420 411 144 29 151 
396 7 324 276 156 131 288 23 312 
397 9 18 103 111 367 223 278 363 402 88 
398 7 198 301 443 56 342 318 154 
399 7 383 161 255 120 173 5 170 
400 8 202 42 348 342 53 145 465 182 
401 9 337 320 26 323 82 476 178 250 316 
402 9 88 367 111 167 206 253 20 278 397 
403 8 171 377 453 76 457 380 9 179 
404 8 241 330 223 162 221 55 244 18 
405 4 466 435 362 35 
406 6 130 126 192 243 44 178 
407 5 137 317 434 58 85 
408 8 133 227 52 86 299 345 445 264 
409 9 270 433 160 253 206 20 347 57 285 
410 9 143 27 439 203 22 91 182 311 460 
411 8 151 31 420 127 303 395 139 144 
412 6 119 44 192 130 406 126 
413 8 14 315 322 185 371 293 386 435 
414 7 73 105 174 97 480 59 248 
415 9 226 461 60 190 352 298 455 478 266 
416 5 147 34 172 94 339 
417 9 115 40 421 424 57 175 160 270 271 
418 6 314 350 249 211 231 11 
419 9 58 135 106 68 434 317 137 85 306 
420 9 31 303 139 395 411 29 151 251 300 
421 9 424 417 40 282 470 115 456 41 46 
422 6 89 239 269 7 235 274 
423 9 61 81 306 309 153 54 265 381 215 
424 9 421 417 456 41 470 115 40 282 46 
425 9 37 481 338 98 121 426 71 277 329 
426 9 432 21 16 32 329 338 95 121 197 
427 8 136 51 370 445 86 459 13 429 
428 4 473 228 62 279 
429 9 13 262 146 70 187 370 459 127 448 
430 6 186 372 33 259 260 391 
431 9 123 358 235 78 69 269 384 389 7 
432 9 21 16 426 32 197 95 475 338 5 
433 9 270 409 160 40 57 115 253 206 347 
434 6 317 58 137 407 419 85 
435 7 466 405 35 297 335 369 413 
436 9 229 256 49 125 50 102 327 353 63 
437 8 272 387 152 234 30 83 368 393 
438 9 336 4 149 300 48 240 124 29 238 
439 9 91 27 22 410 203 28 207 143 182 
440 9 280 176 122 39 118 191 140 194 233 
441 6 222 379 23 312 131 355 
442 8 15 296 247 191 118 113 209 134 
443 7 198 398 301 56 318 236 154 
444 9 215 141 265 381 272 375 437 8 157 
445 8 86 345 136 264 408 52 299 427 
446 9 231 249 350 6 11 418 359 458 314 
447 8 72 142 179 380 107 225 351 457 
448 8 349 70 187 158 146 262 356 166 
449 5 244 68 136 106 221 
450 2 45 183 
451 9 393 83 152 218 271 175 12 30 234 
452 6 394 150 219 19 331 220 
453 8 9 76 90 200 258 359 199 377 
454 4 93 96 169 67 
455 9 266 298 352 461 463 415 10 226 210 
456 9 41 424 421 470 477 46 220 282 417 
457 9 225 179 359 142 72 380 447 90 351 
458 8 199 6 258 200 79 328 53 145 
459 6 127 370 429 51 151 411 
460 7 311 143 182 465 410 203 27 
461 9 226 415 298 60 190 455 478 266 352 
462 6 213 295 332 174 47 73 
463 9 210 10 101 114 263 352 357 328 205 
464 8 378 46 477 331 470 180 282 220 
465 7 182 460 143 311 203 410 27 
466 5 405 435 35 362 297 
467 4 321 97 248 59 
468 8 138 361 472 232 334 469 66 12 
469 7 232 12 234 368 393 451 468 
470 9 46 477 282 464 378 331 220 421 424 
471 9 99 340 24 117 177 116 334 237 138 
472 9 138 66 468 361 334 310 12 232 116 
473 5 428 228 62 261 279 
474 9 382 373 293 371 322 2 273 22 185 
475 8 16 197 21 121 169 432 32 338 
476 9 26 320 337 316 323 283 25 401 304 
477 8 378 46 464 470 331 220 282 180 
478 9 155 190 38 60 226 189 39 461 302 
479 5 309 423 61 81 313 
480 8 174 73 59 473 261 428 62 228 
481 9 50 125 277 71 326 425 37 36 98 
DEPOT_SECTION
   1
   -1
EOF
