NAME :  X-n766-kX-w306-c11.cctp
COMMENT : 	Adapted by Maziero, Usberti and Cavellucci from the Uchoa, Pecin, Pessoa, Poggi, Subramanian, and Vidal (2013)
TYPE :  CCTP
DIMENSION :    723
EDGE_WEIGHT_TYPE : 	EUC_2D	
CAPACITY : 	166
VERTICES_WITHIN_COVERAGE :  11
VERTICES_WITH_DEMAND : 	306
NODE_COORD_SECTION
1 0 0
2 409 418
3 378 220
4 469 585
5 91 695
6 455 648
7 86 403
8 493 292
9 124 630
10 43 202
11 961 668
12 538 143
13 114 523
14 273 287
15 884 865
16 551 791
17 609 232
18 69 625
19 191 484
20 562 650
21 858 506
22 688 951
23 174 158
24 175 404
25 314 484
26 210 517
27 574 158
28 76 499
29 136 195
30 47 593
31 87 897
32 526 650
33 683 60
34 437 962
35 863 428
36 866 335
37 16 391
38 948 422
39 1 945
40 13 299
41 404 889
42 974 290
43 59 281
44 966 52
45 815 145
46 238 897
47 546 414
48 297 370
49 421 143
50 292 86
51 420 958
52 661 796
53 98 757
54 15 722
55 599 669
56 287 134
57 925 251
58 115 179
59 449 945
60 487 960
61 683 779
62 628 855
63 290 322
64 145 109
65 356 887
66 416 654
67 899 981
68 228 187
69 634 10
70 673 503
71 999 237
72 280 64
73 407 977
74 417 841
75 773 52
76 922 376
77 270 503
78 998 123
79 353 527
80 352 21
81 19 697
82 590 322
83 326 401
84 851 668
85 156 557
86 700 423
87 232 556
88 272 248
89 383 472
90 659 930
91 62 513
92 551 459
93 108 723
94 127 359
95 765 936
96 199 264
97 942 980
98 595 746
99 736 127
100 808 393
101 194 803
102 879 138
103 329 531
104 544 840
105 384 143
106 622 102
107 350 231
108 656 364
109 730 846
110 800 218
111 556 454
112 967 994
113 654 141
114 213 582
115 158 64
116 381 518
117 281 153
118 991 305
119 322 68
120 378 996
121 941 397
122 89 16
123 666 113
124 518 249
125 665 277
126 796 357
127 759 988
128 938 366
129 688 589
130 224 487
131 626 118
132 852 200
133 948 17
134 816 580
135 243 75
136 55 873
137 585 640
138 841 326
139 41 67
140 418 268
141 445 424
142 897 432
143 404 444
144 391 537
145 574 728
146 411 117
147 167 197
148 502 596
149 724 799
150 137 619
151 121 457
152 857 627
153 847 277
154 658 690
155 508 997
156 638 579
157 601 692
158 884 98
159 524 729
160 610 664
161 845 965
162 554 127
163 817 205
164 612 861
165 142 905
166 735 77
167 990 120
168 63 415
169 259 715
170 322 763
171 97 810
172 459 337
173 664 488
174 538 13
175 148 748
176 876 902
177 30 706
178 434 176
179 604 49
180 464 151
181 734 742
182 390 613
183 879 972
184 957 393
185 351 361
186 614 200
187 840 412
188 162 699
189 166 217
190 640 833
191 309 407
192 468 408
193 663 357
194 834 918
195 560 636
196 338 624
197 29 716
198 885 881
199 819 918
200 818 716
201 657 620
202 315 660
203 767 710
204 28 821
205 639 287
206 973 213
207 37 615
208 669 338
209 273 325
210 533 9
211 716 872
212 517 434
213 561 232
214 0 537
215 843 863
216 929 542
217 705 899
218 207 798
219 911 610
220 339 859
221 612 102
222 316 810
223 365 275
224 760 848
225 393 15
226 313 107
227 104 662
228 280 739
229 860 699
230 517 239
231 982 715
232 570 26
233 27 603
234 71 270
235 301 17
236 376 970
237 618 71
238 451 280
239 322 295
240 21 95
241 552 836
242 957 868
243 756 914
244 911 695
245 456 521
246 216 642
247 266 379
248 23 325
249 157 140
250 689 733
251 971 840
252 420 309
253 187 599
254 160 281
255 942 581
256 736 235
257 283 191
258 243 947
259 701 533
260 688 457
261 882 105
262 880 403
263 727 763
264 570 595
265 623 916
266 841 842
267 950 982
268 752 33
269 853 91
270 224 467
271 252 39
272 184 424
273 117 489
274 956 1000
275 972 425
276 895 182
277 668 858
278 289 178
279 397 772
280 490 992
281 958 336
282 308 253
283 270 351
284 654 299
285 143 955
286 423 495
287 288 575
288 647 818
289 585 134
290 874 685
291 599 498
292 812 27
293 346 184
294 225 623
295 306 312
296 66 672
297 692 808
298 873 625
299 963 854
300 406 262
301 592 596
302 541 20
303 78 96
304 406 574
305 218 533
306 779 657
307 615 657
308 721 148
309 447 492
310 468 394
311 486 290
312 579 792
313 356 736
314 315 612
315 58 395
316 290 79
317 729 421
318 356 702
319 656 508
320 743 847
321 548 92
322 454 572
323 49 808
324 902 700
325 801 148
326 968 613
327 309 508
328 484 528
329 417 871
330 590 883
331 588 906
332 85 837
333 50 718
334 939 795
335 105 219
336 679 87
337 935 858
338 637 841
339 43 674
340 3 542
341 783 185
342 539 977
343 605 590
344 960 56
345 587 221
346 581 900
347 194 248
348 207 151
349 293 630
350 273 573
351 422 318
352 234 860
353 301 713
354 206 726
355 602 361
356 859 230
357 962 915
358 550 353
359 249 328
360 725 828
361 81 319
362 549 215
363 585 62
364 806 233
365 417 151
366 29 337
367 28 797
368 903 544
369 180 278
370 894 511
371 708 654
372 146 870
373 537 706
374 622 795
375 951 148
376 492 839
377 104 80
378 775 9
379 789 686
380 227 95
381 452 189
382 488 244
383 605 462
384 978 354
385 894 959
386 648 116
387 596 57
388 560 381
389 337 243
390 555 699
391 556 92
392 348 195
393 725 18
394 672 142
395 534 484
396 595 369
397 547 135
398 503 150
399 588 394
400 525 398
401 542 437
402 650 135
403 942 842
404 552 921
405 466 261
406 584 443
407 626 568
408 439 321
409 718 266
410 533 231
411 674 161
412 669 79
413 428 5
414 638 718
415 34 333
416 403 892
417 384 624
418 575 146
419 648 154
420 656 373
421 436 227
422 883 410
423 415 834
424 655 565
425 747 331
426 985 962
427 659 480
428 775 47
429 520 443
430 546 530
431 643 534
432 410 356
433 920 324
434 610 14
435 527 229
436 641 50
437 491 20
438 559 497
439 856 433
440 638 485
441 537 185
442 367 202
443 959 121
444 586 434
445 303 743
446 377 740
447 437 871
448 638 183
449 898 946
450 654 71
451 535 8
452 816 858
453 848 841
454 623 349
455 562 292
456 469 187
457 933 277
458 502 750
459 557 736
460 909 533
461 522 831
462 986 393
463 638 100
464 498 835
465 590 404
466 554 269
467 771 974
468 542 759
469 781 219
470 466 370
471 236 287
472 375 290
473 538 500
474 637 176
475 432 394
476 500 734
477 950 392
478 519 148
479 535 229
480 406 224
481 912 370
482 893 908
483 402 173
484 515 391
485 525 148
486 763 808
487 557 729
488 500 29
489 637 159
490 976 323
491 541 414
492 260 372
493 398 168
494 633 412
495 514 765
496 574 448
497 931 992
498 361 158
499 539 292
500 538 113
501 491 269
502 549 360
503 497 533
504 733 250
505 548 50
506 908 293
507 683 466
508 699 366
509 562 673
510 467 137
511 610 675
512 625 465
513 641 54
514 630 119
515 431 793
516 328 389
517 372 101
518 524 908
519 858 6
520 435 784
521 525 509
522 584 463
523 519 733
524 317 132
525 604 158
526 983 457
527 511 585
528 907 343
529 627 247
530 901 332
531 689 533
532 546 156
533 355 930
534 588 246
535 404 127
536 601 493
537 388 924
538 600 73
539 930 112
540 686 332
541 395 917
542 507 405
543 615 262
544 876 977
545 435 108
546 809 927
547 521 849
548 601 80
549 48 799
550 717 125
551 546 482
552 322 236
553 905 895
554 511 215
555 166 836
556 498 231
557 481 19
558 618 125
559 539 424
560 787 969
561 919 958
562 409 768
563 477 915
564 420 79
565 568 275
566 839 150
567 355 725
568 615 191
569 766 234
570 673 566
571 423 762
572 442 171
573 403 55
574 639 371
575 837 336
576 885 892
577 384 474
578 862 505
579 309 275
580 992 289
581 697 410
582 390 123
583 305 640
584 359 186
585 629 740
586 544 788
587 499 737
588 974 260
589 339 757
590 602 118
591 770 156
592 989 366
593 353 228
594 441 358
595 497 210
596 539 312
597 576 115
598 502 232
599 373 696
600 859 428
601 561 324
602 595 357
603 998 458
604 806 797
605 485 162
606 829 360
607 449 277
608 526 761
609 908 981
610 335 791
611 502 274
612 923 363
613 698 99
614 909 979
615 986 411
616 614 151
617 413 713
618 698 294
619 668 73
620 446 237
621 556 420
622 557 187
623 544 515
624 552 849
625 346 216
626 769 505
627 569 541
628 919 370
629 699 319
630 989 314
631 455 187
632 945 932
633 479 893
634 639 494
635 634 166
636 948 927
637 820 824
638 652 92
639 948 942
640 372 659
641 542 251
642 342 391
643 789 947
644 683 440
645 973 865
646 943 907
647 551 554
648 633 204
649 426 745
650 927 980
651 602 251
652 481 4
653 628 134
654 346 250
655 656 459
656 558 601
657 768 185
658 631 104
659 966 113
660 809 870
661 494 697
662 600 127
663 807 418
664 477 744
665 416 19
666 975 299
667 649 646
668 640 109
669 610 549
670 482 113
671 989 457
672 341 236
673 493 862
674 523 10
675 936 356
676 720 140
677 943 386
678 485 338
679 788 498
680 587 435
681 443 245
682 571 95
683 332 64
684 668 266
685 408 844
686 687 234
687 937 404
688 864 155
689 499 203
690 503 291
691 987 528
692 385 875
693 789 895
694 415 607
695 537 223
696 621 144
697 371 45
698 407 837
699 484 378
700 710 162
701 640 104
702 671 15
703 978 976
704 669 224
705 269 160
706 403 3
707 482 896
708 499 14
709 628 69
710 984 364
711 924 466
712 922 957
713 744 71
714 393 41
715 418 720
716 914 314
717 409 313
718 737 602
719 432 103
720 429 662
721 358 858
722 512 303
723 360 105
DEMAND_SECTION
2 85
3 89
4 71
5 68
6 52
7 76
8 57
9 73
10 89
11 100
12 61
13 92
14 99
15 56
16 91
17 71
18 69
19 79
20 93
21 61
22 94
23 63
24 89
25 88
26 100
27 96
28 92
29 75
30 69
31 72
32 86
33 77
34 68
35 81
36 100
37 95
38 68
39 71
40 79
41 55
42 73
43 82
44 67
45 91
46 96
47 62
48 76
49 53
50 78
51 53
52 61
53 100
54 70
55 57
56 99
57 61
58 55
59 66
60 57
61 70
62 73
63 84
64 80
65 84
66 94
67 53
68 99
69 61
70 96
71 80
72 67
73 87
74 91
75 58
76 84
77 96
78 96
79 97
80 68
81 100
82 60
83 90
84 81
85 60
86 91
87 97
88 55
89 64
90 75
91 65
92 67
93 51
94 60
95 56
96 62
97 85
98 73
99 68
100 81
101 80
102 100
103 64
104 84
105 78
106 54
107 9
108 6
109 4
110 3
111 5
112 7
113 5
114 6
115 10
116 4
117 1
118 4
119 9
120 5
121 2
122 5
123 1
124 7
125 7
126 10
127 1
128 9
129 9
130 5
131 8
132 2
133 3
134 8
135 8
136 9
137 9
138 5
139 1
140 1
141 5
142 2
143 1
144 5
145 7
146 10
147 10
148 6
149 9
150 3
151 2
152 3
153 2
154 2
155 9
156 3
157 6
158 8
159 6
160 9
161 5
162 10
163 6
164 10
165 6
166 7
167 2
168 1
169 9
170 4
171 8
172 7
173 5
174 9
175 10
176 3
177 10
178 5
179 9
180 7
181 9
182 8
183 1
184 8
185 6
186 9
187 10
188 6
189 9
190 2
191 2
192 3
193 7
194 4
195 9
196 2
197 7
198 7
199 9
200 7
201 9
202 8
203 5
204 5
205 6
206 6
207 4
208 2
209 5
210 5
211 10
212 8
213 4
214 2
215 9
216 3
217 5
218 10
219 6
220 7
221 10
222 2
223 9
224 5
225 9
226 9
227 1
228 10
229 8
230 3
231 2
232 9
233 10
234 2
235 4
236 7
237 10
238 7
239 7
240 6
241 5
242 3
243 6
244 2
245 5
246 8
247 8
248 9
249 2
250 5
251 1
252 9
253 1
254 1
255 1
256 7
257 1
258 7
259 5
260 8
261 2
262 6
263 1
264 9
265 7
266 8
267 7
268 7
269 1
270 3
271 1
272 5
273 4
274 10
275 9
276 1
277 5
278 7
279 2
280 1
281 10
282 9
283 5
284 5
285 5
286 3
287 9
288 2
289 8
290 1
291 1
292 7
293 1
294 9
295 1
296 9
297 10
298 7
299 7
300 7
301 10
302 8
303 8
304 3
305 2
306 9
307 2
COVERAGE_SECTION
2 11 143 475 141 89 192 577 432 310 594 642 470 
3 11 442 593 480 107 625 392 584 672 654 389 293 
4 11 322 148 527 694 328 503 304 6 245 182 32 
5 11 93 296 227 333 339 53 177 197 188 81 9 
6 10 720 66 694 661 4 148 32 182 417 322 
7 11 168 315 94 151 37 361 366 415 24 273 28 
8 10 311 690 611 722 501 405 238 499 607 678 
9 11 150 227 18 253 296 5 188 85 30 207 339 
10 11 335 234 58 43 29 40 240 303 361 147 189 
11 11 231 326 244 324 219 255 290 298 229 84 152 
12 10 397 485 532 478 162 500 398 418 27 441 
13 11 273 28 91 85 151 19 26 30 150 305 253 
14 11 471 209 579 63 88 295 359 282 239 283 552 
15 11 198 576 553 176 215 453 482 266 337 403 452 
16 10 586 312 468 608 241 495 104 461 459 624 
17 10 651 529 345 534 543 186 648 568 213 448 
18 11 207 30 233 296 227 9 339 150 5 81 177 
19 11 130 270 26 305 272 273 151 77 85 24 87 
20 11 195 509 137 32 55 390 656 160 307 511 264 
21 11 578 370 460 368 679 439 711 35 600 216 142 
22 11 90 217 265 243 95 127 211 467 277 560 643 
23 11 249 348 147 29 64 189 68 58 380 335 347 
24 11 272 94 151 270 19 7 492 247 130 273 359 
25 11 327 77 103 79 89 577 116 191 83 130 270 
26 11 305 130 19 87 270 77 114 85 350 253 13 
27 11 418 289 532 525 622 397 162 12 662 616 597 
28 11 91 273 13 151 168 214 340 7 30 85 315 
29 11 58 147 189 335 23 249 347 348 64 254 68 
30 11 233 207 18 340 214 91 296 339 9 227 150 
31 11 136 165 332 372 285 171 204 323 39 555 549 
32 11 20 195 509 373 390 661 148 656 137 527 264 
33 11 619 412 336 450 513 613 436 638 702 166 123 
34 11 51 59 73 60 280 236 537 541 563 120 416 
35 11 600 439 422 187 262 142 663 100 711 481 606 
36 11 138 575 530 528 606 716 433 481 506 153 612 
37 11 315 168 366 415 248 7 40 361 94 43 28 
38 11 687 275 121 184 477 677 615 462 526 711 142 
39 11 136 31 204 332 285 323 165 367 549 372 171 
40 11 248 415 366 43 234 361 37 10 315 335 168 
41 11 416 329 692 541 447 537 685 65 74 698 721 
42 11 666 580 118 630 588 490 457 281 71 57 384 
43 11 234 361 40 248 415 366 335 10 254 94 315 
44 11 344 133 659 443 539 167 78 158 375 261 519 
45 11 325 566 591 688 341 163 657 102 132 269 110 
46 11 352 258 555 165 372 101 218 220 285 222 65 
47 11 491 559 621 401 400 212 388 429 484 542 111 
48 11 247 283 516 492 191 83 63 642 209 185 295 
49 11 365 535 146 493 178 572 483 105 582 545 719 
50 11 316 72 226 119 683 56 135 524 271 380 117 
51 11 34 73 59 236 537 541 120 60 416 41 533 
52 11 288 61 297 374 190 338 277 149 585 62 250 
53 11 93 175 171 5 333 549 323 197 332 367 177 
54 11 197 177 81 333 339 296 367 5 549 53 323 
55 11 160 511 307 157 137 509 20 195 390 667 154 
56 11 117 524 705 226 278 50 316 257 72 380 135 
57 11 457 506 588 206 42 716 356 666 433 71 276 
58 11 29 335 147 249 23 189 10 64 303 348 377 
59 11 34 51 60 563 73 707 633 541 280 537 416 
60 11 280 59 155 563 34 342 518 707 51 633 404 
61 11 52 297 149 250 263 288 181 374 360 585 190 
62 11 164 338 190 277 288 330 374 265 331 346 52 
63 11 209 295 283 14 359 239 48 579 492 247 471 
64 11 249 115 377 23 303 348 58 380 29 147 135 
65 11 721 692 220 533 416 41 537 541 329 685 698 
66 10 720 6 417 640 694 182 617 599 715 318 
67 11 609 614 183 385 544 650 561 712 497 449 97 
68 11 348 705 257 23 147 278 117 189 347 88 56 
69 11 434 702 436 513 179 709 387 237 450 232 33 
70 11 173 319 427 531 634 507 440 259 431 655 260 
71 11 588 206 580 42 666 118 57 457 630 490 375 
72 11 316 50 271 135 119 235 683 226 380 56 524 
73 11 51 236 34 120 59 537 541 533 60 280 416 
74 10 423 685 698 329 447 692 41 515 416 520 
75 11 428 268 713 378 166 292 393 99 269 613 33 
76 11 628 481 612 128 677 675 121 477 687 528 184 
77 11 327 25 130 270 305 26 87 103 350 287 19 
78 11 167 659 443 375 539 344 44 206 71 133 158 
79 11 103 116 144 327 25 577 89 304 286 287 77 
80 11 697 225 714 683 235 706 119 573 665 413 517 
81 11 177 197 54 339 333 296 5 207 18 227 93 
82 11 601 602 355 455 454 396 358 565 596 502 499 
83 11 516 191 642 48 185 247 492 283 25 2 63 
84 11 290 229 152 298 200 324 379 244 306 219 203 
85 11 253 13 114 150 305 26 87 273 9 19 294 
86 10 581 644 317 260 507 508 655 420 494 427 
87 11 305 114 350 26 287 253 77 294 130 85 19 
88 11 282 14 579 552 471 257 389 239 672 278 295 
89 11 577 143 116 286 2 79 144 309 25 141 103 
90 11 22 265 217 277 331 62 211 164 330 346 338 
91 11 28 13 273 214 340 30 151 233 168 85 207 
92 11 111 401 551 496 395 522 429 406 559 438 621 
93 11 5 53 175 333 188 227 296 197 177 339 171 
94 11 7 361 24 315 168 254 272 369 415 151 366 
95 11 243 643 467 560 546 693 127 199 217 194 22 
96 11 347 369 254 471 189 147 88 14 359 68 29 
97 11 267 650 497 274 112 712 561 614 609 703 639 
98 11 145 585 459 487 312 414 157 468 374 390 16 
99 11 550 676 308 700 591 613 166 713 394 657 325 
100 11 663 187 126 606 439 600 575 35 262 138 422 
101 11 218 555 352 175 354 372 171 46 53 228 169 
102 11 688 261 158 566 276 269 539 45 132 375 325 
103 11 79 327 25 116 287 144 77 350 577 89 314 
104 11 241 624 461 547 464 16 376 586 673 312 330 
105 11 582 535 498 493 365 483 49 146 517 723 584 
106 11 658 221 131 463 701 514 668 558 590 386 548 
107 11 593 672 625 389 654 552 3 442 392 223 584 
108 11 420 193 574 208 454 508 540 494 355 396 602 
109 11 320 360 211 224 149 486 297 217 277 243 693 
110 11 364 469 163 341 569 657 132 356 256 591 325 
111 11 92 496 401 522 406 551 559 621 444 680 395 
112 11 274 267 703 97 497 426 650 639 712 561 609 
113 11 402 419 394 489 386 653 411 123 635 514 696 
114 11 253 87 294 305 246 350 85 26 287 150 349 
115 11 64 377 249 380 122 135 303 23 271 348 139 
116 11 144 79 577 89 286 103 304 309 327 25 245 
117 11 705 56 278 257 524 226 68 50 293 348 316 
118 11 630 580 666 42 490 281 588 384 710 592 457 
119 11 683 316 50 226 72 723 697 235 80 517 524 
120 11 236 73 51 34 533 537 541 59 416 41 65 
121 11 687 477 677 184 38 76 128 628 612 481 675 
122 11 377 139 303 115 240 64 249 380 23 58 135 
123 11 386 638 668 402 701 336 113 394 463 412 613 
124 11 230 435 410 598 641 479 556 382 611 695 501 
125 11 684 284 205 618 529 686 543 704 409 629 540 
126 11 606 100 575 138 425 663 187 36 317 153 600 
127 11 467 560 643 95 243 546 22 161 199 693 194 
128 11 675 612 76 628 677 481 477 121 184 281 687 
129 11 570 424 201 156 718 531 259 407 371 667 431 
130 11 270 19 26 305 77 87 272 327 25 24 114 
131 11 514 558 658 106 653 668 701 221 386 463 590 
132 11 356 163 276 688 566 110 364 45 102 341 325 
133 11 44 344 519 539 659 158 443 261 167 78 269 
134 11 152 298 718 21 306 679 578 626 368 84 219 
135 11 380 271 72 316 50 56 226 119 235 348 115 
136 11 31 332 204 323 549 171 367 39 372 165 555 
137 11 20 195 55 307 160 509 511 301 264 656 157 
138 11 575 36 606 153 126 530 528 716 100 506 433 
139 11 240 303 377 122 64 115 58 10 249 29 23 
140 11 300 607 681 238 252 620 421 480 717 472 405 
141 11 192 475 2 310 143 470 699 542 594 309 212 
142 11 422 35 262 600 439 711 687 38 121 187 76 
143 11 2 89 577 141 286 475 309 192 116 310 642 
144 11 116 79 304 286 103 577 89 245 309 322 694 
145 11 487 459 98 390 373 157 468 159 523 509 585 
146 10 535 582 719 545 49 365 105 564 517 723 
147 11 189 29 23 58 249 347 348 68 335 96 369 
148 11 527 4 322 656 32 503 647 264 6 195 328 
149 11 360 297 263 486 61 109 320 181 224 52 211 
150 11 9 227 253 85 18 246 188 114 294 5 296 
151 11 273 28 7 13 272 168 19 24 91 315 94 
152 11 298 84 219 290 134 229 306 324 244 379 368 
153 11 138 356 364 575 36 506 110 132 530 716 163 
154 11 414 667 511 250 307 160 157 585 371 55 201 
155 11 280 342 60 34 59 404 563 518 51 73 707 
156 11 407 424 343 570 669 201 431 301 129 667 531 
157 11 511 55 160 307 509 145 414 390 98 137 585 
158 11 261 269 102 539 688 566 443 45 659 375 276 
159 11 523 476 373 587 458 608 487 459 468 495 390 
160 11 307 511 55 157 137 667 509 20 154 195 414 
161 11 544 183 194 385 546 199 67 449 560 643 609 
162 11 397 500 12 597 418 532 289 391 321 485 682 
163 11 110 364 132 341 469 356 657 325 566 569 45 
164 11 62 330 338 190 346 331 288 265 277 624 241 
165 11 372 285 31 555 332 136 46 352 171 258 101 
166 11 713 613 75 268 99 428 550 33 336 393 676 
167 11 78 659 443 375 539 344 44 206 158 261 133 
168 11 315 7 37 151 28 94 366 415 273 91 248 
169 11 228 353 445 354 202 170 246 583 589 349 567 
170 11 589 445 610 313 222 228 567 353 446 318 279 
171 11 332 323 549 53 204 367 555 136 372 175 31 
172 11 408 678 594 470 351 252 699 432 311 717 8 
173 11 427 70 319 440 634 507 655 260 512 431 531 
174 11 210 451 302 674 232 505 708 488 437 557 652 
175 11 93 53 188 354 101 218 5 171 555 227 333 
176 11 576 482 198 553 15 194 449 215 199 385 453 
177 11 197 81 54 333 339 296 5 93 53 227 18 
178 11 572 381 631 365 483 49 456 493 180 421 510 
179 11 387 363 538 237 548 709 434 436 513 232 69 
180 11 510 605 572 456 631 178 398 381 670 49 365 
181 11 263 203 250 149 61 486 297 379 360 200 52 
182 11 417 694 304 66 640 196 720 6 314 144 322 
183 11 544 385 67 609 614 449 161 561 712 650 497 
184 11 477 121 677 687 462 38 128 615 275 76 710 
185 11 642 516 83 48 432 191 295 63 239 472 717 
186 8 568 648 448 17 474 345 635 525 
187 11 600 439 35 663 100 262 422 606 142 126 575 
188 11 175 354 93 227 5 9 246 150 53 169 294 
189 11 147 29 347 96 23 335 369 58 254 68 249 
190 11 338 288 62 277 164 374 52 297 61 330 312 
191 11 83 516 642 48 247 492 185 283 25 63 209 
192 11 310 141 699 470 475 542 484 212 594 400 2 
193 11 108 420 208 574 540 508 454 629 284 355 494 
194 11 199 546 176 161 693 643 660 215 576 482 198 
195 11 20 137 656 32 509 264 55 301 160 307 390 
196 11 314 583 202 349 417 640 182 287 694 318 599 
197 11 177 54 81 333 339 296 5 93 53 367 549 
198 11 576 15 176 553 482 215 453 337 266 194 646 
199 11 546 194 693 643 660 161 95 176 215 452 560 
200 11 379 229 203 84 290 306 604 324 181 244 152 
201 11 667 129 156 424 307 570 343 371 407 160 301 
202 11 583 349 196 314 353 640 318 599 567 169 417 
203 11 379 181 200 306 263 250 371 84 229 604 486 
204 11 367 323 549 136 332 171 53 31 54 197 333 
205 11 284 125 543 684 529 651 208 618 82 17 454 
206 11 71 588 57 375 457 42 580 276 666 78 443 
207 11 233 30 18 339 296 340 227 81 214 9 177 
208 11 540 193 108 629 420 508 284 574 454 618 205 
209 11 63 359 283 295 14 492 48 471 247 239 579 
210 11 451 174 674 302 708 488 232 437 505 652 557 
211 11 217 109 320 360 224 277 243 297 149 693 486 
212 11 429 559 401 491 542 47 400 621 92 484 111 
213 11 362 479 695 641 345 410 534 435 466 565 230 
214 11 340 91 233 30 28 207 18 13 273 168 339 
215 11 266 453 452 660 15 637 198 176 576 194 199 
216 11 460 368 255 370 691 219 711 578 21 326 298 
217 11 211 243 22 90 277 109 320 95 360 224 265 
218 11 101 555 352 354 175 228 372 169 46 188 222 
219 11 298 255 152 326 368 216 11 460 84 290 244 
220 11 721 65 692 222 610 685 698 41 416 533 329 
221 11 106 590 658 131 558 514 548 463 662 701 668 
222 11 610 170 220 589 721 445 228 313 65 279 446 
223 11 472 654 300 389 107 672 239 593 140 579 3 
224 11 320 109 360 486 211 660 693 452 149 637 243 
225 8 706 665 714 413 697 80 573 564 
226 11 524 50 316 56 119 683 723 72 117 517 705 
227 11 5 9 296 18 150 93 339 188 333 207 177 
228 11 445 169 353 170 589 354 313 567 610 222 318 
229 11 290 84 324 200 244 152 379 298 306 203 219 
230 11 124 435 598 410 479 556 554 695 641 382 595 
231 11 11 244 324 334 326 290 229 251 219 403 84 
232 11 302 505 174 363 451 387 179 210 434 674 538 
233 11 207 30 18 340 214 339 296 81 91 227 9 
234 11 43 361 335 40 248 415 10 366 254 29 58 
235 11 72 80 271 119 683 316 50 697 135 226 225 
236 11 120 73 533 51 537 541 34 59 416 65 41 
237 11 709 538 548 179 387 513 106 436 221 363 463 
238 10 607 405 140 311 681 501 252 408 620 8 
239 11 295 579 63 282 223 14 654 472 389 209 552 
240 11 139 303 377 122 10 64 58 115 249 335 29 
241 11 104 624 461 547 16 586 312 464 330 376 673 
242 11 299 645 337 403 251 646 357 553 636 632 15 
243 11 95 693 643 217 546 211 467 199 560 224 320 
244 11 324 290 229 11 84 231 298 219 152 200 326 
245 11 328 309 286 503 322 4 144 521 304 116 527 
246 11 294 253 114 349 188 150 169 354 87 350 583 
247 11 492 283 48 191 209 359 63 516 83 642 295 
248 11 366 415 40 43 361 37 234 315 168 7 94 
249 11 23 64 348 58 147 29 115 189 377 380 68 
250 11 61 181 263 154 414 585 52 149 297 203 371 
251 11 299 645 403 242 337 334 646 357 553 636 15 
252 11 351 717 408 140 238 607 172 432 300 472 594 
253 11 114 294 85 246 150 87 9 305 26 350 188 
254 11 369 96 347 189 471 335 147 94 361 29 234 
255 11 216 326 219 368 460 691 298 370 11 152 578 
256 9 504 569 409 469 686 657 110 704 341 
257 11 278 705 117 68 56 88 552 293 392 282 524 
258 11 46 352 285 165 533 372 65 220 236 555 120 
259 11 531 70 570 319 424 129 173 431 427 507 634 
260 11 507 644 655 86 427 173 70 581 317 440 319 
261 11 158 269 102 539 688 566 45 276 443 375 659 
262 11 422 35 600 142 439 187 481 76 628 687 612 
263 11 181 149 61 250 297 486 360 203 52 109 320 
264 11 656 301 343 195 647 137 627 20 527 669 407 
265 11 331 90 346 330 164 62 404 277 22 338 217 
266 11 453 215 637 452 660 15 604 198 576 176 693 
267 11 97 274 112 497 650 703 712 561 426 639 614 
268 11 428 75 393 378 713 166 292 33 702 613 336 
269 11 158 261 102 566 688 45 292 325 539 519 75 
270 11 130 19 26 77 272 305 24 87 25 327 247 
271 11 135 72 235 316 380 50 119 683 226 115 56 
272 11 24 270 19 151 130 94 492 273 247 26 7 
273 11 151 13 28 91 19 85 7 168 272 26 24 
274 11 112 267 97 497 703 650 426 614 609 712 561 
275 11 615 38 526 184 462 671 477 687 121 603 677 
276 11 688 102 132 356 566 375 57 261 539 163 206 
277 11 338 190 62 288 211 217 297 164 52 109 360 
278 11 257 117 705 56 524 293 392 68 552 625 584 
279 10 562 571 446 515 520 649 313 715 589 617 
280 11 155 60 342 34 59 51 563 73 518 404 707 
281 11 490 384 675 128 630 710 433 666 592 612 118 
282 11 552 579 389 88 672 654 239 107 14 593 625 
283 11 492 209 247 359 48 63 295 14 191 516 471 
284 11 205 125 684 208 618 540 629 543 193 454 529 
285 11 165 31 372 258 46 136 555 332 352 39 171 
286 11 309 245 577 89 116 144 143 328 141 79 2 
287 11 350 314 349 87 103 583 196 327 77 114 294 
288 11 190 338 52 374 62 277 297 61 164 312 149 
289 11 418 662 597 590 27 525 162 558 616 696 397 
290 11 229 84 324 244 152 298 200 219 379 11 306 
291 10 536 383 522 438 634 440 512 627 669 551 
292 11 378 428 75 519 268 269 713 393 166 158 261 
293 11 392 584 442 498 625 593 107 3 672 493 105 
294 11 246 114 253 87 349 350 287 583 150 305 314 
295 11 63 239 209 579 14 283 48 282 359 185 223 
296 11 339 5 227 18 333 177 81 197 207 93 54 
297 11 61 52 149 360 288 109 277 263 190 320 338 
298 11 152 219 84 290 134 229 244 324 255 368 326 
299 11 242 645 251 403 337 646 357 334 553 636 15 
300 11 140 480 681 472 223 421 607 620 238 252 3 
301 11 343 264 656 407 137 156 669 195 647 627 20 
302 10 174 451 210 674 232 505 488 708 437 557 
303 11 377 139 240 64 122 115 249 58 10 23 29 
304 11 694 144 182 322 417 116 4 79 245 66 286 
305 11 26 87 130 114 19 77 85 270 350 253 287 
306 11 379 203 718 200 371 84 152 134 229 181 290 
307 11 160 511 55 137 667 157 20 154 509 201 195 
308 9 676 700 550 99 394 411 591 613 657 
309 11 286 245 328 143 503 577 89 141 116 144 322 
310 11 192 699 470 475 141 542 594 484 400 172 678 
311 10 8 690 501 611 722 405 238 607 382 678 
312 11 16 586 374 98 468 241 104 459 608 624 145 
313 11 567 446 589 318 170 599 445 279 610 353 617 
314 11 196 349 583 287 202 350 417 640 182 103 294 
315 11 168 7 37 366 415 94 248 361 151 28 40 
316 11 50 72 119 226 683 135 56 271 524 235 380 
317 11 86 581 644 260 508 507 663 655 100 420 193 
318 11 599 567 313 446 640 353 589 617 202 715 445 
319 11 70 173 634 427 431 440 531 655 507 259 512 
320 11 109 224 360 211 486 149 217 297 693 243 660 
321 8 391 500 682 162 597 505 397 363 
322 11 4 304 245 694 328 148 503 527 144 6 182 
323 11 549 367 204 332 171 136 53 333 54 197 31 
324 11 244 290 229 84 11 298 231 152 200 219 334 
325 11 45 591 566 341 657 163 688 99 110 132 469 
326 11 255 11 219 216 691 368 298 460 244 231 324 
327 11 25 103 77 79 287 116 350 89 577 144 130 
328 11 503 245 521 309 322 4 473 623 430 527 395 
329 11 447 41 416 685 74 692 698 423 541 537 721 
330 11 346 331 164 62 265 624 404 241 104 338 190 
331 11 346 330 265 404 164 518 62 624 90 104 241 
332 11 171 323 136 549 204 31 372 367 53 555 165 
333 11 197 177 54 81 339 5 296 93 53 227 549 
334 11 403 251 337 299 242 645 15 231 198 324 453 
335 11 29 58 189 234 10 147 43 254 23 347 249 
336 11 412 619 613 33 638 123 450 386 463 701 668 
337 11 403 242 299 645 251 553 646 15 198 576 334 
338 11 190 62 288 164 277 374 52 330 297 265 312 
339 11 296 81 177 197 333 5 18 54 207 227 233 
340 11 214 91 233 30 207 28 18 13 273 339 168 
341 11 657 591 469 110 163 325 45 569 364 566 256 
342 11 155 280 60 404 518 331 346 563 59 707 34 
343 11 301 407 156 264 669 656 137 424 201 627 195 
344 11 44 133 659 539 443 167 78 158 261 375 269 
345 11 17 534 213 186 651 362 568 622 529 648 543 
346 11 331 330 404 265 164 518 624 62 104 241 547 
347 11 96 369 189 254 471 147 68 88 29 14 23 
348 11 23 68 249 380 147 705 117 64 189 56 29 
349 11 583 314 202 196 287 350 294 246 353 640 417 
350 11 287 87 314 349 114 305 294 77 103 327 583 
351 11 252 717 408 432 172 594 238 607 140 472 300 
352 11 46 218 101 555 258 372 222 165 220 610 721 
353 11 445 228 169 170 202 567 318 589 313 583 599 
354 11 188 169 175 218 228 101 246 353 93 445 294 
355 11 602 396 454 399 574 82 465 388 358 502 108 
356 11 132 153 163 364 110 276 57 688 469 506 566 
357 11 636 646 632 639 242 645 426 712 553 299 561 
358 11 502 388 601 596 602 396 82 400 484 355 399 
359 11 209 283 63 471 492 14 247 295 48 239 579 
360 11 109 320 149 297 224 486 211 277 61 263 52 
361 11 43 415 234 366 248 94 40 315 7 254 37 
362 10 695 479 213 410 435 622 441 641 345 554 
363 11 387 538 179 548 237 682 232 505 391 709 221 
364 11 110 469 163 569 341 356 132 153 657 256 504 
365 11 49 493 483 535 178 572 105 146 582 180 545 
366 11 415 248 40 361 37 43 315 234 168 7 94 
367 11 549 204 323 171 332 54 53 136 197 333 177 
368 11 460 216 370 255 578 21 219 711 298 691 134 
369 11 254 96 347 471 189 147 359 14 29 335 88 
370 11 460 578 368 21 216 711 142 255 439 35 600 
371 11 667 718 201 154 129 306 203 250 379 181 307 
372 11 165 555 31 332 171 101 285 352 136 218 46 
373 11 390 159 487 523 459 509 145 661 476 587 468 
374 11 288 52 190 312 338 585 98 62 61 164 16 
375 11 443 659 539 167 78 276 206 102 261 158 688 
376 7 464 673 461 547 104 633 707 
377 11 303 64 115 139 122 249 240 58 23 29 380 
378 11 268 428 292 75 393 713 166 519 702 33 269 
379 11 306 203 200 84 229 181 290 371 152 263 718 
380 11 135 348 72 271 316 50 56 115 705 117 23 
381 8 631 456 572 178 180 421 605 620 
382 7 556 598 501 405 230 124 611 
383 9 512 522 406 536 680 444 496 291 440 
384 11 710 592 281 490 462 630 128 675 184 477 677 
385 11 449 183 67 544 561 614 609 712 650 161 497 
386 11 668 701 123 514 402 463 658 131 638 113 653 
387 11 179 363 538 548 237 709 232 434 513 682 436 
388 11 502 358 399 47 396 465 491 400 621 602 484 
389 11 672 654 552 107 593 625 282 223 579 3 392 
390 11 373 509 487 145 459 159 157 20 523 55 32 
391 10 321 682 500 597 162 363 505 397 548 538 
392 11 293 584 442 625 593 107 3 498 672 389 552 
393 11 268 378 702 713 428 33 75 166 619 336 412 
394 10 113 411 402 419 123 386 489 700 635 653 
395 11 551 473 521 438 92 623 111 429 401 430 212 
396 10 355 602 399 454 465 388 574 82 502 358 
397 11 162 12 532 500 485 418 478 27 597 289 321 
398 9 478 485 605 12 510 180 532 670 397 
399 10 465 396 388 355 602 444 621 680 47 494 
400 11 484 542 491 47 559 212 621 388 401 429 502 
401 11 559 111 621 47 429 491 92 212 496 406 400 
402 11 113 386 419 653 394 514 123 489 668 131 696 
403 11 337 299 251 242 645 334 15 553 646 198 357 
404 11 518 346 331 330 342 265 624 707 563 60 547 
405 7 607 238 501 382 681 620 311 
406 9 444 680 496 522 383 111 621 92 465 
407 11 156 669 424 343 431 301 570 201 264 627 129 
408 11 351 252 172 717 594 238 432 607 678 311 470 
409 11 504 618 256 686 684 125 629 569 704 425 284 
410 11 479 435 695 230 641 124 362 554 213 598 556 
411 7 394 419 113 402 700 489 474 
412 11 619 336 450 638 33 123 613 463 513 701 436 
413 7 665 706 225 714 652 557 573 
414 11 585 154 157 98 511 250 160 55 145 307 667 
415 11 366 248 40 361 43 37 315 234 7 168 94 
416 11 41 329 692 541 537 447 65 685 74 698 721 
417 11 182 694 640 66 196 304 720 314 599 6 202 
418 11 27 289 162 397 525 532 597 662 12 590 616 
419 10 489 113 635 402 474 394 411 653 696 448 
420 10 108 193 574 208 454 508 494 540 355 581 
421 7 620 681 480 381 631 140 405 
422 11 262 142 35 600 439 187 481 76 628 687 121 
423 10 74 698 685 329 447 515 692 520 41 416 
424 11 570 156 407 431 129 531 669 201 259 343 319 
425 11 629 126 508 540 618 409 208 504 100 606 193 
426 11 703 112 267 639 97 274 632 636 357 650 497 
427 10 173 655 440 634 70 319 507 260 512 644 
428 11 75 268 378 713 292 166 393 99 269 33 519 
429 11 212 401 559 92 491 111 47 542 395 621 400 
430 11 623 627 647 521 473 438 395 551 503 291 328 
431 11 319 424 669 407 634 70 570 156 531 440 173 
432 11 594 351 717 475 408 252 172 470 185 2 310 
433 11 716 530 528 506 675 612 281 128 628 481 457 
434 11 69 179 232 387 436 513 363 237 709 538 702 
435 11 410 479 695 230 554 124 598 362 641 556 213 
436 11 513 709 450 237 619 179 412 69 33 638 387 
437 8 557 708 488 652 674 210 451 174 
438 11 551 473 623 395 430 521 92 291 522 536 111 
439 11 600 35 187 422 262 142 663 100 578 21 711 
440 10 634 427 512 173 319 655 536 70 383 291 
441 8 622 532 362 695 485 554 478 12 
442 11 584 392 3 625 293 593 107 672 498 480 483 
443 11 659 375 539 167 78 344 44 158 261 102 276 
444 9 680 406 496 522 465 621 383 111 399 
445 11 228 170 353 589 169 313 567 610 318 222 446 
446 11 313 567 279 589 318 562 599 617 715 649 571 
447 11 329 74 41 416 685 423 698 633 707 692 673 
448 7 474 635 648 489 568 186 419 
449 11 385 561 712 183 67 614 609 482 544 650 176 
450 11 619 412 513 638 436 709 336 33 463 237 701 
451 11 210 174 674 302 708 232 488 505 437 652 557 
452 11 660 215 266 637 453 693 224 199 604 194 15 
453 11 266 215 637 452 15 660 198 604 576 176 194 
454 11 355 574 602 396 108 193 420 82 208 399 284 
455 11 565 499 466 596 601 82 641 722 534 651 690 
456 8 631 381 605 572 689 180 595 178 
457 11 57 506 716 42 588 666 433 580 490 118 281 
458 8 587 476 495 523 608 664 159 468 
459 11 487 145 468 159 373 390 523 98 608 495 586 
460 11 368 216 370 578 21 255 711 219 691 298 326 
461 9 547 104 464 241 376 624 673 586 16 
462 11 615 592 184 710 275 477 384 677 121 38 687 
463 11 701 658 668 106 638 386 514 131 221 123 558 
464 7 376 461 547 673 104 241 624 
465 9 399 444 680 396 388 621 406 494 47 
466 11 565 641 455 499 213 124 534 410 479 596 230 
467 11 560 127 643 95 546 243 199 161 693 194 22 
468 11 608 459 495 586 16 487 159 523 458 145 587 
469 11 110 569 364 341 657 163 256 504 591 132 325 
470 11 699 310 594 172 678 192 475 484 542 408 141 
471 11 14 359 96 88 209 347 369 63 283 295 579 
472 11 223 717 300 140 252 654 239 351 389 107 672 
473 11 395 521 623 551 438 430 92 111 627 503 647 
474 7 448 635 489 419 568 648 186 
475 11 2 141 310 594 192 470 432 699 143 172 408 
476 9 587 458 523 159 664 495 608 661 373 
477 11 184 677 121 687 128 38 76 462 628 675 275 
478 9 485 398 12 532 397 605 500 162 441 
479 11 410 695 435 362 230 641 124 213 554 598 556 
480 10 3 421 300 620 681 442 140 483 593 107 
481 11 628 76 612 128 528 675 677 121 530 687 477 
482 11 176 553 576 198 449 15 646 385 561 632 712 
483 11 493 365 178 105 49 572 498 442 584 535 480 
484 11 400 542 699 491 47 559 212 388 502 310 192 
485 9 478 12 398 532 397 162 500 441 605 
486 11 149 224 360 320 604 109 263 637 297 181 452 
487 11 459 145 373 390 159 468 523 98 608 495 509 
488 9 437 708 557 674 652 210 174 451 302 
489 9 635 419 474 696 448 616 113 402 653 
490 11 630 281 118 666 384 42 580 710 592 675 433 
491 11 47 559 621 400 401 212 484 542 429 388 111 
492 11 247 283 48 359 209 63 191 516 83 295 642 
493 11 483 365 105 49 178 498 535 584 572 442 582 
494 8 574 465 420 399 680 444 655 108 
495 10 608 458 468 523 587 476 159 586 664 16 
496 10 406 444 522 680 111 92 621 383 401 559 
497 11 650 97 267 609 274 614 67 112 561 712 385 
498 11 105 584 293 493 392 442 483 582 524 535 723 
499 11 596 455 466 722 565 690 601 611 641 8 124 
500 9 162 321 397 391 12 485 597 682 478 
501 9 611 311 8 382 690 405 124 556 598 
502 11 358 388 601 400 484 602 396 596 399 355 47 
503 11 328 521 245 430 623 473 527 322 647 4 395 
504 11 256 409 569 686 618 469 684 704 125 110 657 
505 10 302 232 174 363 321 391 210 451 674 387 
506 11 716 457 433 530 57 528 36 153 42 281 666 
507 11 260 644 427 655 173 70 86 440 319 634 512 
508 11 540 193 208 108 420 581 629 86 425 574 317 
509 11 20 390 55 195 137 373 32 157 511 160 307 
510 8 180 670 605 398 572 545 49 719 
511 11 160 55 157 307 137 509 667 154 414 20 390 
512 9 383 440 634 655 427 536 522 291 173 
513 11 436 709 450 237 619 179 412 638 33 69 387 
514 11 131 558 668 653 658 386 701 106 463 221 402 
515 8 520 571 562 279 423 649 74 698 
516 11 83 642 191 48 185 247 283 492 63 295 209 
517 11 723 582 535 146 105 564 683 573 697 498 226 
518 11 404 707 633 563 673 346 547 60 331 624 104 
519 11 292 378 269 133 428 158 75 261 268 344 44 
520 6 515 571 562 279 649 423 
521 11 473 623 395 430 551 438 503 328 647 627 92 
522 10 496 406 383 680 111 444 92 536 291 512 
523 11 159 476 587 458 608 373 495 468 459 487 664 
524 11 226 56 117 498 723 50 278 705 316 293 517 
525 10 616 696 27 289 418 635 662 489 653 568 
526 11 671 603 275 615 38 711 462 184 687 691 121 
527 11 148 4 656 647 503 322 264 328 430 32 195 
528 11 530 433 612 481 628 716 675 76 128 36 506 
529 11 543 17 651 534 205 648 684 125 345 704 186 
530 11 528 433 716 36 612 481 506 628 675 76 128 
531 11 259 70 570 319 431 424 173 129 427 634 507 
532 9 12 397 485 27 478 162 441 418 622 
533 11 537 541 65 236 416 692 41 73 120 51 721 
534 11 651 17 345 213 543 565 529 466 641 362 186 
535 11 146 582 49 105 365 545 719 493 517 483 723 
536 10 291 383 522 512 440 634 438 496 406 551 
537 11 541 533 416 41 51 236 65 692 73 329 34 
538 11 548 387 237 363 179 709 221 106 682 658 513 
539 11 443 659 375 158 261 102 167 344 78 44 276 
540 11 208 629 193 508 618 108 284 420 125 425 574 
541 11 537 416 41 533 692 51 65 329 236 59 73 
542 11 484 400 212 491 699 559 192 47 429 310 401 
543 11 651 529 17 534 205 565 345 125 684 284 455 
544 11 183 67 385 609 161 614 449 561 712 650 497 
545 7 719 146 564 535 49 510 365 
546 11 199 194 643 693 95 560 161 243 660 467 452 
547 9 461 104 464 376 624 673 241 518 633 
548 11 538 237 363 387 221 709 106 179 682 590 658 
549 11 323 367 204 171 332 53 136 333 54 197 177 
550 11 676 99 308 613 700 394 166 123 336 411 713 
551 11 395 438 473 92 111 623 521 522 496 401 429 
552 11 389 672 282 107 654 625 593 579 392 88 442 
553 11 482 576 198 176 15 646 337 449 632 636 242 
554 9 595 689 598 435 556 230 410 695 479 
555 11 372 101 218 352 165 171 332 175 46 31 53 
556 7 598 382 230 554 595 124 689 
557 6 437 652 708 488 674 210 
558 11 131 514 653 590 662 696 106 221 658 616 668 
559 11 491 47 401 621 212 429 400 111 92 542 484 
560 11 467 643 127 95 546 161 199 243 194 693 544 
561 11 712 614 650 449 385 609 67 97 639 497 632 
562 8 279 571 649 520 515 446 715 617 
563 11 707 633 59 60 518 673 447 34 51 329 404 
564 4 719 573 545 146 
565 11 466 455 499 534 641 651 213 596 543 601 82 
566 11 45 688 325 102 132 163 269 261 276 341 158 
567 11 313 318 446 599 589 170 353 445 617 279 715 
568 8 186 648 448 474 635 525 489 616 
569 11 469 256 504 110 364 657 341 409 163 591 686 
570 11 424 129 156 531 259 431 407 201 319 70 669 
571 8 562 649 520 279 515 715 617 446 
572 11 178 381 631 180 456 365 49 483 510 493 605 
573 7 714 564 697 665 225 706 517 
574 10 420 108 454 193 355 494 396 208 602 399 
575 11 138 606 36 126 153 100 530 528 187 262 716 
576 11 198 176 482 553 15 215 449 194 337 646 453 
577 11 89 143 116 286 2 79 144 309 25 103 141 
578 11 21 370 460 368 439 711 679 35 216 600 142 
579 11 282 239 295 14 552 389 654 88 672 63 223 
580 11 118 42 666 630 588 490 71 281 457 384 710 
581 11 86 644 317 508 260 420 507 108 193 494 655 
582 11 535 105 146 517 723 49 365 498 493 545 719 
583 11 349 202 314 196 287 640 353 350 318 417 294 
584 11 293 392 442 498 625 3 593 493 483 107 105 
585 11 414 98 374 145 157 154 250 52 61 511 312 
586 10 16 468 608 312 495 461 241 104 459 458 
587 8 476 458 523 664 159 495 608 661 
588 11 42 71 580 666 457 206 118 57 630 490 506 
589 11 170 313 610 567 445 446 222 318 353 279 228 
590 11 662 558 221 289 131 106 597 514 653 658 696 
591 11 657 325 341 99 45 308 676 700 550 469 163 
592 11 710 384 462 184 281 490 615 477 677 128 630 
593 11 107 625 672 389 654 3 442 552 392 584 293 
594 11 172 470 432 408 475 351 310 699 678 252 717 
595 7 689 554 556 598 230 382 435 
596 11 499 601 722 455 358 690 466 565 502 8 82 
597 11 289 682 162 590 662 391 418 397 321 221 500 
598 8 556 230 382 554 124 595 435 689 
599 11 318 567 640 313 617 446 715 66 720 202 589 
600 11 35 439 187 422 262 142 663 100 606 711 578 
601 11 596 82 358 455 502 499 602 565 722 355 466 
602 11 355 396 454 82 399 388 358 502 574 465 601 
603 11 671 526 275 615 38 462 691 711 184 687 477 
604 11 637 486 266 453 452 224 660 215 320 149 200 
605 9 398 180 456 510 478 631 485 381 689 
606 11 575 126 138 100 36 187 663 262 422 600 35 
607 9 238 405 140 681 311 620 252 501 408 
608 10 495 468 458 523 159 586 587 476 16 459 
609 11 614 67 650 497 561 385 712 183 544 97 449 
610 11 222 170 589 445 313 279 446 220 567 721 228 
611 9 501 690 8 311 124 722 382 230 405 
612 11 628 76 481 128 675 528 677 121 530 433 477 
613 11 336 550 123 412 619 33 166 99 638 676 394 
614 11 609 67 650 561 385 497 712 183 97 544 449 
615 11 462 275 184 38 477 592 526 671 121 710 603 
616 10 696 525 653 489 635 558 662 289 419 474 
617 9 715 649 599 446 571 720 562 318 66 
618 11 629 409 125 540 684 284 208 504 205 425 686 
619 11 412 450 336 33 638 513 436 123 463 613 709 
620 6 681 421 405 607 140 480 
621 11 47 491 559 401 444 496 111 680 406 400 465 
622 9 441 362 532 27 695 213 345 418 479 
623 11 430 473 521 438 395 551 627 647 503 92 291 
624 11 104 241 547 461 330 464 16 346 673 164 376 
625 11 593 107 392 672 442 389 552 3 293 584 654 
626 11 679 259 531 21 134 317 578 260 507 663 70 
627 11 647 430 623 669 438 473 291 264 521 536 301 
628 11 76 481 612 128 675 677 528 121 477 687 530 
629 11 540 618 208 508 284 425 193 125 409 684 108 
630 11 118 490 666 580 42 281 384 710 592 588 457 
631 8 381 456 572 178 180 605 421 689 
632 11 636 639 357 646 712 561 97 449 267 426 650 
633 11 707 563 673 447 518 376 59 464 547 329 60 
634 10 440 319 427 173 512 70 536 655 291 431 
635 9 489 474 448 419 616 696 525 568 113 
636 11 632 639 357 646 712 561 426 97 449 553 267 
637 11 266 604 453 452 215 660 486 224 15 693 320 
638 11 463 701 412 450 668 386 658 123 619 336 106 
639 11 632 636 357 712 561 646 97 267 426 650 703 
640 11 417 599 66 318 182 196 202 720 694 567 617 
641 11 410 466 479 124 213 435 230 695 565 362 499 
642 11 516 83 185 191 48 2 432 247 143 283 492 
643 11 560 95 546 467 199 243 127 693 194 161 660 
644 10 260 86 507 581 655 427 317 173 494 512 
645 11 299 242 251 337 403 357 646 636 632 553 334 
646 11 357 636 632 639 553 242 337 482 645 712 561 
647 11 627 430 623 264 656 527 521 473 438 503 301 
648 8 186 448 568 474 17 635 704 529 
649 8 571 715 562 617 279 520 515 446 
650 11 497 97 614 609 267 561 712 67 274 385 112 
651 11 534 543 17 529 345 565 213 466 186 205 648 
652 9 557 437 708 488 674 210 413 451 174 
653 10 696 558 514 131 402 616 113 386 489 419 
654 11 389 672 107 593 552 223 625 282 3 579 472 
655 9 427 507 173 260 440 512 644 634 70 
656 11 264 301 195 137 343 647 20 527 148 32 627 
657 11 341 591 469 110 569 325 163 256 308 364 45 
658 11 463 106 701 668 131 514 221 386 638 558 653 
659 11 443 167 78 539 375 344 44 158 261 102 133 
660 11 452 693 215 266 637 199 453 194 224 546 243 
661 10 476 587 159 373 523 664 458 32 390 6 
662 11 590 289 558 597 696 131 221 616 653 418 514 
663 11 100 187 439 600 35 126 606 262 422 317 679 
664 6 587 476 458 495 523 159 
665 6 413 706 225 714 573 697 
666 11 42 118 580 630 490 588 281 457 384 433 716 
667 11 201 307 160 154 511 55 371 137 157 156 129 
668 11 701 463 658 386 514 131 106 638 123 558 402 
669 11 407 431 156 343 627 424 301 291 536 647 264 
670 3 510 180 398 
671 11 526 603 275 615 38 462 711 691 184 687 477 
672 11 389 107 593 654 552 625 282 3 392 442 223 
673 9 376 464 547 633 707 461 518 563 104 
674 11 210 451 174 302 708 488 437 652 557 505 232 
675 11 128 612 628 76 481 281 677 528 433 477 121 
676 9 308 550 99 700 613 394 411 591 123 
677 11 477 121 184 687 128 76 628 612 675 481 38 
678 11 172 470 699 722 8 311 594 408 690 310 596 
679 11 626 21 578 663 134 259 439 317 187 600 35 
680 9 444 406 496 522 465 383 621 111 399 
681 7 620 421 405 607 140 238 300 
682 10 391 597 321 548 162 363 538 500 590 289 
683 11 119 697 316 50 80 226 723 72 517 235 714 
684 11 125 205 284 686 618 704 529 409 543 629 504 
685 11 698 74 423 329 692 447 41 416 721 515 520 
686 7 704 684 409 125 256 504 529 
687 11 121 477 677 38 184 76 128 628 275 481 612 
688 11 102 566 276 132 45 261 158 325 269 163 356 
689 7 595 554 556 598 456 435 230 
690 10 8 722 311 611 501 499 596 124 405 382 
691 11 216 255 526 603 671 460 368 326 711 370 275 
692 11 41 416 65 329 721 685 541 698 74 220 537 
693 11 660 199 243 546 452 95 194 643 224 215 320 
694 11 182 304 417 66 322 6 720 4 640 144 196 
695 10 479 410 435 362 213 230 554 641 124 598 
696 10 616 653 558 489 525 131 635 514 662 419 
697 10 714 80 573 225 683 665 706 119 517 564 
698 11 685 423 74 329 692 447 515 41 721 416 520 
699 11 470 310 192 484 542 678 400 594 172 475 141 
700 8 308 676 411 550 394 99 113 591 
701 11 463 668 658 386 638 106 514 131 123 221 558 
702 11 69 436 33 513 393 619 450 434 412 709 336 
703 11 426 112 267 274 97 639 497 650 632 636 712 
704 6 686 648 684 529 448 125 
705 11 117 278 56 257 68 524 348 226 50 380 293 
706 7 225 665 413 714 573 697 80 
707 11 633 563 673 518 447 376 59 547 464 60 329 
708 9 437 488 557 652 674 210 451 174 302 
709 11 237 513 436 450 538 548 179 463 638 106 387 
710 11 592 384 462 281 184 490 477 128 615 677 675 
711 11 142 38 370 526 275 687 671 422 460 121 35 
712 11 561 650 449 614 385 609 97 639 67 632 497 
713 11 166 75 268 428 613 393 99 550 33 336 378 
714 8 573 697 225 665 706 80 564 413 
715 8 617 649 571 446 562 599 279 720 
716 11 433 506 530 528 457 675 281 612 36 481 628 
717 11 252 351 408 472 432 140 300 238 607 172 594 
718 11 129 371 306 570 259 134 201 531 424 667 379 
719 5 545 146 564 535 49 
720 10 66 6 617 640 694 417 715 182 599 661 
721 11 220 65 692 685 698 41 416 329 74 423 222 
722 11 690 8 596 311 499 611 501 678 455 601 124 
723 11 517 582 105 226 535 683 524 146 119 498 697 
DEPOT_SECTION
   1
   -1
EOF
