NAME :  X-n801-kX-w80-c7.cctp
COMMENT : 	Adapted by Maziero, Usberti and Cavellucci from the Uchoa, Pecin, Pessoa, Poggi, Subramanian, and Vidal (2013)
TYPE :  CCTP
DIMENSION :    446
EDGE_WEIGHT_TYPE : 	EUC_2D	
CAPACITY : 	20
VERTICES_WITHIN_COVERAGE :  7
VERTICES_WITH_DEMAND : 	80
NODE_COORD_SECTION
1 0 0
2 674 825
3 549 534
4 43 315
5 542 420
6 45 580
7 180 450
8 369 618
9 287 721
10 36 426
11 680 338
12 42 81
13 942 119
14 247 68
15 432 549
16 514 857
17 554 976
18 103 728
19 271 73
20 310 859
21 874 538
22 358 642
23 989 42
24 538 271
25 854 443
26 596 563
27 827 228
28 380 40
29 152 224
30 726 258
31 981 544
32 600 381
33 629 799
34 488 12
35 100 542
36 37 272
37 847 980
38 949 124
39 787 917
40 111 958
41 571 968
42 2 409
43 95 2
44 318 447
45 271 856
46 873 697
47 34 274
48 733 17
49 620 125
50 611 334
51 66 848
52 507 711
53 993 152
54 596 683
55 605 980
56 372 833
57 968 699
58 36 620
59 518 566
60 138 457
61 828 421
62 467 39
63 626 645
64 192 923
65 56 363
66 252 349
67 202 896
68 999 331
69 843 462
70 83 975
71 475 135
72 601 55
73 578 43
74 480 854
75 124 825
76 121 228
77 355 326
78 291 944
79 784 563
80 260 251
81 472 918
82 539 592
83 114 765
84 948 685
85 550 915
86 541 935
87 216 85
88 106 843
89 699 379
90 721 10
91 18 53
92 928 666
93 347 805
94 360 600
95 422 848
96 391 807
97 712 230
98 80 246
99 367 837
100 865 661
101 977 663
102 896 542
103 62 636
104 46 591
105 102 825
106 975 128
107 26 941
108 314 34
109 512 291
110 718 832
111 244 931
112 534 425
113 585 799
114 513 990
115 641 633
116 254 283
117 702 44
118 109 823
119 26 270
120 333 949
121 575 723
122 488 947
123 376 858
124 52 401
125 636 652
126 813 892
127 403 311
128 201 878
129 515 142
130 701 895
131 612 652
132 650 986
133 174 236
134 405 549
135 810 191
136 129 755
137 499 596
138 61 519
139 520 251
140 385 685
141 908 111
142 234 353
143 467 896
144 277 981
145 194 265
146 850 444
147 131 847
148 627 401
149 267 788
150 805 211
151 61 985
152 402 812
153 863 184
154 74 25
155 979 558
156 4 676
157 311 756
158 235 42
159 848 461
160 293 234
161 274 248
162 800 608
163 342 852
164 623 95
165 258 221
166 444 16
167 821 540
168 939 766
169 106 921
170 619 540
171 507 97
172 44 843
173 817 913
174 115 221
175 200 58
176 38 628
177 332 129
178 929 145
179 269 260
180 583 421
181 424 47
182 240 26
183 54 828
184 191 890
185 384 316
186 205 892
187 368 18
188 622 691
189 182 900
190 530 981
191 456 978
192 623 878
193 379 61
194 792 953
195 330 512
196 445 147
197 724 233
198 476 43
199 522 237
200 571 317
201 280 476
202 571 424
203 452 500
204 762 39
205 473 60
206 570 414
207 627 681
208 589 346
209 563 637
210 776 929
211 183 433
212 3 800
213 361 10
214 499 410
215 601 34
216 661 144
217 104 892
218 329 906
219 41 229
220 491 176
221 391 682
222 828 526
223 223 461
224 261 879
225 573 385
226 159 283
227 459 705
228 215 862
229 150 407
230 274 443
231 565 501
232 230 119
233 662 102
234 252 72
235 598 686
236 327 371
237 267 682
238 383 829
239 869 417
240 244 30
241 809 255
242 32 602
243 916 104
244 77 731
245 489 744
246 330 707
247 600 540
248 803 954
249 123 430
250 998 17
251 229 468
252 67 511
253 680 762
254 752 263
255 724 44
256 911 15
257 29 685
258 563 589
259 972 125
260 61 393
261 536 881
262 963 57
263 690 225
264 759 430
265 535 47
266 468 19
267 810 233
268 753 13
269 217 331
270 207 218
271 242 335
272 249 118
273 118 982
274 15 459
275 990 159
276 325 995
277 582 67
278 676 344
279 447 520
280 675 775
281 723 323
282 624 108
283 531 961
284 401 76
285 493 604
286 125 188
287 558 463
288 646 587
289 270 234
290 100 418
291 9 260
292 238 33
293 101 723
294 101 247
295 79 258
296 806 598
297 465 7
298 571 33
299 858 934
300 498 115
301 270 966
302 659 168
303 6 579
304 33 841
305 846 736
306 524 301
307 945 365
308 248 354
309 351 798
310 515 23
311 167 912
312 910 515
313 542 619
314 855 937
315 735 333
316 950 557
317 880 441
318 877 400
319 771 528
320 592 578
321 520 681
322 175 953
323 276 21
324 326 299
325 589 781
326 960 350
327 0 291
328 329 24
329 120 573
330 731 893
331 763 273
332 880 426
333 719 232
334 955 689
335 34 817
336 105 22
337 361 870
338 19 838
339 80 424
340 990 111
341 92 895
342 986 670
343 974 197
344 870 188
345 348 284
346 973 109
347 34 437
348 137 997
349 474 63
350 300 335
351 866 249
352 140 964
353 25 937
354 357 860
355 823 709
356 77 809
357 261 767
358 619 645
359 692 838
360 193 932
361 738 941
362 487 965
363 444 940
364 182 954
365 85 539
366 950 549
367 601 86
368 238 877
369 543 987
370 494 134
371 562 925
372 834 210
373 375 833
374 568 225
375 106 594
376 675 986
377 272 373
378 299 740
379 482 600
380 255 448
381 834 470
382 117 696
383 837 469
384 345 585
385 476 565
386 271 417
387 877 492
388 605 578
389 607 721
390 54 581
391 7 37
392 529 997
393 962 671
394 82 75
395 1000 703
396 607 536
397 827 744
398 450 136
399 32 58
400 178 910
401 276 358
402 707 282
403 141 999
404 403 688
405 315 671
406 827 880
407 641 950
408 611 668
409 313 616
410 928 521
411 350 295
412 260 800
413 302 615
414 653 302
415 5 126
416 541 691
417 559 690
418 465 522
419 868 947
420 636 919
421 244 833
422 870 543
423 606 359
424 532 975
425 555 276
426 537 457
427 859 508
428 42 675
429 999 300
430 908 736
431 735 980
432 459 564
433 49 877
434 483 587
435 945 557
436 602 2
437 633 936
438 814 486
439 193 411
440 334 499
441 262 691
442 814 908
443 171 930
444 205 410
445 115 986
446 77 338
DEMAND_SECTION
2 1
3 1
4 1
5 1
6 1
7 1
8 1
9 1
10 1
11 1
12 1
13 1
14 1
15 1
16 1
17 1
18 1
19 1
20 1
21 1
22 1
23 1
24 1
25 1
26 1
27 1
28 1
29 1
30 1
31 1
32 1
33 1
34 1
35 1
36 1
37 1
38 1
39 1
40 1
41 1
42 1
43 1
44 1
45 1
46 1
47 1
48 1
49 1
50 1
51 1
52 1
53 1
54 1
55 1
56 1
57 1
58 1
59 1
60 1
61 1
62 1
63 1
64 1
65 1
66 1
67 1
68 1
69 1
70 1
71 1
72 1
73 1
74 1
75 1
76 1
77 1
78 1
79 1
80 1
81 1
COVERAGE_SECTION
2 6 359 110 280 33 253 192 
3 6 231 59 247 26 258 396 
4 7 446 47 36 119 327 65 291 
5 7 112 202 206 426 180 214 287 
6 7 390 104 242 303 58 176 365 
7 7 211 439 60 223 444 229 251 
8 7 94 22 384 409 413 221 140 
9 7 378 441 157 237 246 357 405 
10 6 347 124 42 274 260 339 
11 7 278 89 414 281 315 402 50 
12 4 399 91 394 391 
13 7 38 178 243 259 346 106 141 
14 7 234 19 158 87 292 240 182 
15 6 134 432 279 418 385 203 
16 4 261 74 143 85 
17 7 369 41 424 190 283 392 86 
18 5 293 244 382 136 83 
19 7 234 14 158 272 240 292 323 
20 6 163 45 354 218 337 224 
21 6 422 102 427 312 387 222 
22 7 8 94 140 221 405 409 384 
23 7 250 262 340 346 256 259 106 
24 5 425 139 109 306 199 
25 7 146 159 69 317 239 332 383 
26 7 320 388 247 396 170 258 3 
27 6 267 372 150 241 135 351 
28 7 193 187 213 284 181 328 108 
29 5 133 76 174 286 270 
30 7 197 254 333 97 402 331 263 
31 4 155 366 316 435 
32 7 423 225 148 208 180 206 50 
33 5 113 325 2 280 253 
34 7 266 297 310 198 62 166 205 
35 5 365 329 138 252 375 
36 7 47 119 291 327 4 219 295 
37 5 419 314 299 248 194 
38 7 13 259 106 346 178 243 141 
39 7 210 442 173 126 194 248 406 
40 6 273 445 352 70 169 348 
41 7 17 369 55 424 283 190 371 
42 6 10 347 124 274 260 65 
43 2 336 154 
44 6 230 201 440 386 380 195 
45 7 224 421 20 368 228 412 149 
46 6 100 305 355 430 92 397 
47 7 36 119 291 327 4 219 295 
48 5 90 268 255 204 117 
49 7 282 164 367 216 233 302 277 
50 6 208 423 200 32 414 225 
51 7 172 183 304 433 88 356 105 
52 6 321 245 416 227 417 121 
53 7 275 106 259 340 346 343 38 
54 7 235 408 188 207 131 417 389 
55 7 41 132 407 17 437 369 420 
56 7 373 99 238 123 354 96 163 
57 7 334 84 393 395 342 101 92 
58 7 176 242 103 104 6 390 303 
59 7 82 137 434 385 3 285 379 
60 6 249 7 211 229 290 339 
61 7 146 25 239 69 159 381 383 
62 7 198 266 205 349 297 166 34 
63 7 358 125 131 115 408 207 188 
64 7 360 400 443 189 311 67 184 
65 4 260 446 124 4 
66 7 308 271 142 401 377 269 350 
67 7 186 184 128 189 400 64 228 
68 3 429 326 307 
69 7 159 383 381 146 25 438 317 
70 7 151 40 445 273 348 352 169 
71 7 370 398 300 196 129 220 171 
72 7 215 277 73 367 298 164 436 
73 7 298 277 215 72 265 436 367 
74 5 16 143 95 261 81 
75 7 118 105 147 88 356 83 51 
76 5 174 294 29 286 98 
77 7 185 411 324 345 127 236 350 
78 6 301 144 120 111 218 276 
79 4 319 296 167 162 
80 6 179 161 289 165 116 160 
81 7 143 122 363 362 191 74 86 
82 7 258 313 59 137 285 209 320 
83 6 136 18 293 244 356 118 
84 7 334 393 57 92 101 342 395 
85 6 371 86 261 283 41 17 
86 7 85 371 283 424 17 41 190 
87 6 175 14 232 234 158 272 
88 7 105 118 75 147 51 356 217 
89 4 278 11 315 281 
90 5 48 268 255 117 204 
91 3 399 391 12 
92 5 84 393 334 101 57 
93 5 309 56 99 373 238 
94 6 8 384 22 409 413 134 
95 6 152 238 123 373 96 56 
96 5 152 238 373 56 99 
97 5 333 197 263 30 254 
98 5 295 294 174 219 76 
99 7 56 373 238 123 354 163 337 
100 2 46 92 
101 6 342 393 334 84 57 395 
102 6 21 422 312 410 427 435 
103 5 176 58 428 242 104 
104 7 6 390 242 58 176 303 103 
105 7 118 88 75 356 147 51 183 
106 7 259 346 340 38 53 13 275 
107 6 353 151 70 433 341 169 
108 7 328 323 213 187 19 28 193 
109 4 306 24 139 425 
110 2 359 2 
111 7 301 78 360 64 368 67 186 
112 6 5 426 202 206 214 287 
113 2 325 33 
114 7 392 190 424 369 283 362 17 
115 7 63 125 358 131 288 408 207 
116 6 179 80 161 289 271 269 
117 3 255 90 48 
118 6 105 75 88 147 356 51 
119 7 47 36 291 327 219 4 295 
120 3 78 218 276 
121 5 389 417 235 54 416 
122 7 362 81 191 283 363 114 424 
123 6 337 354 99 56 373 238 
124 7 260 10 339 65 347 42 290 
125 7 63 358 115 131 207 408 188 
126 5 442 406 173 39 210 
127 3 185 77 411 
128 6 186 184 67 228 189 368 
129 5 370 300 71 220 171 
130 6 330 359 361 110 420 2 
131 7 358 63 408 125 207 54 115 
132 6 376 407 55 437 420 41 
133 5 29 145 270 226 76 
134 7 15 279 432 418 94 203 384 
135 4 150 372 27 267 
136 4 83 18 293 244 
137 6 285 379 434 59 385 82 
138 3 252 365 35 
139 4 199 24 109 425 
140 3 221 404 22 
141 2 243 13 
142 6 308 66 271 269 401 377 
143 7 81 74 363 122 16 95 261 
144 6 301 78 276 111 120 218 
145 4 133 226 270 29 
146 7 25 159 69 383 317 381 61 
147 6 75 88 118 105 217 341 
148 5 32 423 180 225 206 
149 6 412 357 421 157 378 45 
150 5 135 267 27 372 241 
151 6 70 445 107 40 273 353 
152 5 96 238 373 56 95 
153 4 344 372 135 27 
154 4 43 336 394 399 
155 4 31 316 366 435 
156 6 257 428 176 58 103 242 
157 4 378 9 357 246 
158 6 292 240 182 14 234 175 
159 7 69 383 146 381 25 317 387 
160 5 289 161 179 80 165 
161 7 179 80 289 160 165 116 270 
162 2 296 79 
163 6 354 337 99 20 123 56 
164 6 282 367 49 233 72 277 
165 6 289 80 161 160 179 270 
166 7 297 266 62 181 198 34 205 
167 5 222 79 422 427 319 
168 3 430 57 334 
169 5 217 341 40 352 70 
170 4 396 247 26 388 
171 6 300 370 129 349 71 205 
172 7 304 183 51 338 335 433 356 
173 5 442 126 39 406 248 
174 5 76 294 286 29 98 
175 4 87 158 292 14 
176 7 58 103 242 104 428 6 390 
177 1 19 
178 5 13 38 141 243 259 
179 6 80 161 289 116 160 165 
180 7 202 206 225 5 32 148 112 
181 6 166 284 62 28 193 205 
182 6 240 292 158 323 14 234 
183 7 172 51 335 304 356 338 105 
184 7 67 189 186 128 400 64 311 
185 5 127 77 411 345 324 
186 7 67 184 128 189 228 400 64 
187 7 213 28 328 193 108 181 284 
188 7 207 235 408 54 389 131 125 
189 7 400 184 311 67 186 64 128 
190 7 424 369 392 114 283 17 41 
191 5 362 363 122 114 81 
192 5 420 437 2 407 371 
193 5 28 284 187 181 213 
194 7 248 210 39 173 442 361 37 
195 3 440 201 44 
196 4 398 71 370 220 
197 5 333 97 30 263 254 
198 7 62 205 349 266 34 297 166 
199 4 139 24 374 425 
200 4 208 50 425 306 
201 5 230 380 44 251 223 
202 7 206 180 5 112 225 287 426 
203 3 279 418 15 
204 3 268 48 255 
205 7 349 198 62 266 34 171 181 
206 7 202 180 5 225 112 32 287 
207 7 188 408 235 125 54 131 63 
208 5 423 50 200 32 225 
209 7 313 258 82 131 417 54 358 
210 7 39 194 248 361 442 173 126 
211 7 7 439 444 229 223 60 251 
212 7 335 338 304 183 172 356 51 
213 7 187 328 28 108 193 181 284 
214 2 112 5 
215 7 72 73 298 436 277 367 164 
216 4 302 233 49 282 
217 6 341 169 88 147 433 51 
218 5 120 337 20 78 354 
219 4 36 98 119 291 
220 3 129 370 71 
221 3 140 404 22 
222 5 167 427 438 422 21 
223 6 251 380 7 211 230 444 
224 7 368 45 228 421 20 111 186 
225 6 32 206 180 202 208 423 
226 3 145 133 29 
227 4 52 245 404 321 
228 4 128 368 186 67 
229 5 249 211 439 60 290 
230 6 380 386 201 44 251 223 
231 3 3 287 247 
232 4 272 87 234 14 
233 4 282 164 216 49 
234 7 14 19 158 87 292 240 272 
235 7 54 408 188 207 389 131 417 
236 7 350 77 401 377 324 386 44 
237 3 441 9 405 
238 6 373 56 99 96 152 123 
239 6 332 318 317 25 146 61 
240 6 182 292 158 323 14 234 
241 3 267 27 150 
242 7 58 104 6 176 390 303 103 
243 3 141 13 38 
244 5 293 18 83 382 136 
245 2 52 227 
246 4 405 9 378 157 
247 5 396 170 26 388 320 
248 7 194 210 39 173 442 37 314 
249 6 290 60 229 339 7 211 
250 5 23 262 256 340 346 
251 5 223 380 230 7 201 
252 3 138 365 35 
253 3 280 2 33 
254 3 331 30 197 
255 2 117 48 
256 2 262 23 
257 6 428 156 176 103 58 244 
258 7 82 320 313 26 388 209 59 
259 7 106 346 38 340 13 53 275 
260 6 124 65 339 10 290 347 
261 5 16 85 371 86 74 
262 6 23 250 346 340 13 243 
263 4 97 333 197 30 
264 1 61 
265 6 310 298 73 277 171 34 
266 7 297 62 34 166 198 205 349 
267 5 27 241 150 372 135 
268 4 48 204 90 255 
269 5 271 142 66 308 116 
270 4 133 145 165 29 
271 7 66 142 308 269 401 377 116 
272 5 232 234 87 14 19 
273 6 445 348 40 352 403 70 
274 3 347 10 42 
275 7 53 106 259 343 340 346 38 
276 4 120 144 78 301 
277 7 72 73 367 298 215 164 265 
278 7 11 89 414 281 315 50 402 
279 5 418 203 15 432 134 
280 3 253 2 33 
281 7 315 402 11 278 89 331 30 
282 6 164 49 367 233 216 72 
283 7 424 190 17 86 369 114 392 
284 5 193 181 28 187 166 
285 6 137 379 434 385 59 82 
286 3 174 76 29 
287 5 426 231 202 112 5 
288 7 388 115 170 26 320 63 358 
289 7 161 165 80 160 179 116 270 
290 6 339 249 260 124 229 60 
291 6 119 47 36 327 219 4 
292 6 182 240 158 14 323 234 
293 5 18 244 382 136 83 
294 5 98 295 76 174 29 
295 5 98 294 36 47 219 
296 2 162 79 
297 7 266 166 34 62 198 310 205 
298 7 73 215 277 72 265 436 310 
299 4 314 419 173 37 
300 6 370 171 71 129 398 349 
301 6 144 78 111 276 120 218 
302 2 216 49 
303 6 242 6 104 390 58 176 
304 7 172 338 335 183 51 433 212 
305 4 397 355 46 430 
306 3 109 24 425 
307 2 326 68 
308 7 66 142 271 401 377 269 350 
309 4 93 56 96 99 
310 7 34 265 198 266 62 297 205 
311 6 400 443 189 64 184 360 
312 6 410 102 387 21 422 427 
313 6 82 209 258 137 285 59 
314 5 299 419 37 173 442 
315 6 281 11 89 402 278 331 
316 4 435 366 155 31 
317 5 332 25 239 146 159 
318 4 239 332 317 25 
319 1 79 
320 7 388 26 258 247 396 170 82 
321 6 416 52 417 209 227 313 
322 6 364 443 360 64 352 311 
323 7 240 182 108 292 158 19 328 
324 7 411 345 77 350 185 179 236 
325 2 113 33 
326 3 307 68 429 
327 7 291 119 47 36 4 219 295 
328 7 108 213 187 28 323 193 19 
329 3 375 35 365 
330 5 130 361 210 39 110 
331 2 254 30 
332 5 239 317 318 25 146 
333 5 197 97 30 263 254 
334 7 84 57 393 101 92 342 395 
335 7 183 304 338 172 212 356 51 
336 3 43 154 394 
337 6 354 123 163 99 56 373 
338 7 304 172 335 183 212 51 433 
339 6 290 124 260 249 10 347 
340 7 346 106 259 53 38 275 13 
341 5 217 169 433 51 88 
342 6 101 393 57 334 395 84 
343 5 275 53 106 178 259 
344 4 153 372 27 135 
345 5 411 324 77 185 127 
346 7 259 340 106 38 13 53 262 
347 5 10 274 124 42 339 
348 6 403 273 445 352 40 70 
349 6 205 198 62 266 171 181 
350 7 401 324 236 377 66 308 77 
351 4 27 372 241 267 
352 5 273 40 348 445 403 
353 6 107 151 433 70 341 169 
354 6 337 163 123 99 56 373 
355 3 305 397 46 
356 6 105 183 118 51 335 88 
357 6 149 412 378 157 9 421 
358 7 63 131 125 408 115 207 54 
359 5 2 110 130 280 330 
360 7 64 443 364 400 322 311 189 
361 6 431 210 330 39 194 130 
362 7 122 191 114 283 190 424 81 
363 5 81 191 122 143 362 
364 6 322 360 443 64 352 400 
365 5 35 138 252 329 390 
366 4 316 435 155 31 
367 7 164 277 72 282 49 73 215 
368 7 224 228 186 128 45 67 421 
369 7 190 17 424 392 283 114 41 
370 7 71 300 129 171 220 398 196 
371 6 85 86 41 283 261 17 
372 6 27 150 135 267 153 344 
373 7 56 99 238 123 96 354 152 
374 3 199 425 24 
375 3 329 35 390 
376 6 132 407 431 437 55 361 
377 7 401 66 308 142 386 350 271 
378 4 157 9 246 357 
379 6 285 434 137 385 432 59 
380 6 230 251 223 386 201 44 
381 7 383 69 159 438 146 25 427 
382 4 293 18 244 136 
383 7 381 69 159 146 438 25 427 
384 5 94 8 409 413 22 
385 7 432 434 379 137 59 285 418 
386 7 230 380 377 44 401 201 223 
387 7 427 312 159 69 21 383 381 
388 7 320 26 247 170 288 396 258 
389 5 121 188 235 54 207 
390 7 6 104 242 58 303 176 365 
391 3 91 399 12 
392 7 190 114 369 424 17 283 41 
393 6 101 334 84 342 57 92 
394 1 12 
395 7 57 342 101 334 393 84 92 
396 4 247 170 26 388 
397 3 305 355 46 
398 4 196 71 370 300 
399 3 91 12 391 
400 7 189 311 64 443 184 360 67 
401 7 377 66 308 350 271 142 236 
402 7 30 281 254 333 97 197 331 
403 6 348 273 445 352 40 322 
404 4 221 140 227 22 
405 7 246 237 22 409 9 413 441 
406 4 126 442 173 39 
407 5 437 420 132 55 376 
408 7 131 54 207 235 358 188 63 
409 5 413 384 94 22 405 
410 6 312 366 102 435 316 21 
411 6 345 324 77 185 127 350 
412 5 149 357 421 45 157 
413 5 409 384 405 94 22 
414 7 11 278 50 402 281 423 208 
415 3 12 399 91 
416 7 417 321 52 121 54 235 209 
417 6 416 121 54 235 321 209 
418 5 279 203 432 15 385 
419 3 299 314 37 
420 4 437 407 192 55 
421 4 45 412 228 368 
422 6 21 102 427 222 167 312 
423 6 208 32 50 225 148 200 
424 7 190 283 369 17 392 114 41 
425 5 24 306 139 200 109 
426 5 287 112 5 202 231 
427 6 387 21 222 422 381 383 
428 6 257 156 103 176 58 244 
429 3 68 326 307 
430 6 168 46 305 84 334 57 
431 6 361 376 194 210 248 39 
432 7 385 15 434 418 379 279 137 
433 6 51 172 304 341 183 338 
434 6 379 137 285 385 432 59 
435 4 316 366 155 31 
436 7 215 298 73 72 277 265 367 
437 5 407 420 55 132 192 
438 3 381 383 69 
439 6 444 211 7 229 223 251 
440 3 195 44 201 
441 3 237 9 405 
442 5 173 126 39 406 210 
443 6 311 400 64 360 322 364 
444 7 439 211 7 223 229 251 380 
445 6 273 348 40 403 352 70 
446 3 65 4 260 
DEPOT_SECTION
   1
   -1
EOF
