NAME :  X-n856-kX-w171-c9.cctp
COMMENT : 	Adapted by Maziero, Usberti and Cavellucci from the Uchoa, Pecin, Pessoa, Poggi, Subramanian, and Vidal (2013)
TYPE :  CCTP
DIMENSION :    651
EDGE_WEIGHT_TYPE : 	EUC_2D	
CAPACITY : 	9
VERTICES_WITHIN_COVERAGE :  9
VERTICES_WITH_DEMAND : 	171
NODE_COORD_SECTION
1 500 500
2 440 732
3 221 348
4 117 545
5 493 645
6 135 12
7 775 997
8 745 444
9 950 311
10 530 150
11 900 508
12 48 519
13 269 217
14 722 349
15 480 733
16 977 422
17 999 220
18 636 332
19 851 162
20 559 567
21 389 69
22 529 835
23 303 427
24 400 638
25 894 904
26 482 109
27 579 800
28 184 82
29 669 753
30 906 424
31 374 692
32 174 613
33 75 37
34 38 563
35 838 157
36 710 709
37 176 67
38 449 326
39 71 389
40 710 115
41 237 547
42 530 27
43 631 223
44 171 342
45 226 65
46 6 998
47 24 635
48 668 165
49 318 608
50 429 82
51 212 237
52 853 126
53 387 47
54 677 144
55 111 790
56 957 32
57 511 647
58 457 561
59 86 687
60 290 456
61 473 563
62 807 725
63 461 468
64 739 235
65 257 340
66 588 545
67 6 311
68 268 976
69 552 414
70 994 946
71 452 534
72 422 545
73 248 611
74 43 366
75 977 96
76 822 580
77 940 650
78 86 263
79 715 99
80 668 981
81 424 638
82 297 607
83 251 282
84 237 413
85 202 573
86 181 385
87 126 528
88 386 811
89 978 846
90 70 99
91 333 357
92 49 870
93 157 734
94 627 268
95 818 433
96 738 555
97 350 909
98 337 926
99 978 59
100 42 595
101 870 933
102 19 120
103 165 679
104 131 984
105 232 755
106 319 417
107 187 376
108 251 482
109 657 219
110 209 397
111 800 377
112 228 116
113 566 559
114 490 156
115 216 547
116 964 677
117 85 897
118 292 807
119 600 893
120 938 222
121 543 747
122 572 976
123 569 59
124 712 574
125 971 515
126 616 306
127 695 837
128 421 821
129 604 995
130 537 957
131 1000 653
132 282 817
133 380 874
134 778 101
135 462 74
136 87 682
137 441 228
138 608 430
139 511 313
140 710 300
141 630 24
142 626 650
143 531 719
144 598 824
145 995 622
146 258 981
147 358 281
148 279 169
149 286 268
150 259 659
151 782 132
152 862 518
153 457 603
154 210 438
155 44 44
156 527 818
157 164 156
158 23 86
159 342 930
160 39 282
161 269 848
162 436 886
163 323 340
164 237 891
165 333 488
166 517 137
167 591 972
168 541 888
169 122 280
170 159 655
171 200 158
172 446 283
173 107 315
174 588 270
175 158 374
176 26 353
177 959 76
178 927 736
179 437 138
180 53 938
181 333 192
182 922 499
183 970 664
184 237 738
185 8 561
186 747 852
187 989 908
188 100 860
189 10 960
190 842 190
191 595 716
192 286 965
193 199 373
194 159 67
195 979 25
196 488 479
197 804 620
198 742 853
199 528 160
200 223 342
201 503 159
202 711 681
203 339 340
204 342 509
205 766 953
206 710 172
207 521 451
208 172 159
209 685 836
210 639 155
211 269 241
212 825 761
213 330 177
214 901 124
215 713 860
216 619 926
217 692 19
218 96 876
219 949 178
220 79 795
221 833 852
222 336 444
223 877 0
224 296 597
225 566 735
226 940 377
227 349 269
228 939 827
229 908 120
230 50 741
231 670 569
232 753 744
233 577 351
234 141 616
235 97 625
236 64 875
237 496 160
238 515 598
239 274 510
240 291 170
241 800 300
242 74 609
243 791 396
244 405 191
245 395 290
246 525 743
247 260 385
248 408 837
249 1 346
250 231 504
251 837 572
252 606 473
253 346 868
254 477 169
255 383 59
256 510 410
257 890 101
258 952 635
259 825 722
260 68 598
261 234 841
262 911 720
263 172 367
264 569 289
265 84 19
266 694 916
267 454 412
268 261 233
269 693 375
270 588 854
271 276 538
272 599 569
273 142 158
274 324 194
275 739 325
276 845 639
277 638 182
278 858 93
279 40 923
280 37 599
281 638 39
282 218 714
283 568 674
284 288 840
285 439 570
286 325 801
287 587 278
288 992 674
289 597 608
290 174 865
291 65 330
292 620 129
293 339 681
294 178 811
295 469 749
296 475 791
297 799 594
298 692 130
299 59 223
300 811 2
301 5 946
302 219 305
303 759 951
304 656 889
305 582 18
306 97 885
307 899 286
308 512 358
309 188 776
310 220 951
311 503 801
312 483 402
313 685 904
314 483 722
315 13 301
316 607 709
317 857 739
318 51 422
319 818 797
320 302 646
321 474 101
322 817 66
323 573 973
324 948 686
325 586 899
326 153 503
327 47 817
328 740 970
329 216 852
330 261 776
331 920 879
332 642 623
333 268 373
334 894 60
335 539 352
336 605 457
337 4 240
338 340 303
339 563 524
340 861 875
341 700 810
342 160 753
343 985 455
344 981 276
345 708 646
346 575 249
347 777 725
348 724 888
349 853 773
350 4 27
351 743 430
352 301 574
353 38 983
354 575 209
355 10 683
356 745 333
357 616 311
358 537 110
359 70 839
360 531 647
361 157 736
362 609 356
363 534 11
364 436 279
365 340 578
366 41 809
367 971 282
368 389 628
369 171 951
370 633 578
371 219 471
372 392 784
373 586 937
374 546 923
375 619 737
376 700 50
377 722 223
378 112 450
379 857 66
380 81 295
381 314 964
382 829 981
383 723 590
384 645 700
385 318 800
386 277 268
387 459 81
388 573 211
389 391 259
390 368 81
391 262 451
392 629 44
393 390 264
394 842 703
395 780 254
396 653 177
397 763 432
398 615 183
399 62 855
400 629 543
401 27 83
402 822 574
403 355 86
404 519 683
405 111 12
406 957 366
407 265 184
408 985 701
409 215 888
410 945 515
411 553 988
412 22 32
413 441 911
414 551 214
415 422 750
416 196 122
417 25 46
418 184 140
419 82 88
420 979 491
421 439 811
422 199 182
423 239 151
424 960 334
425 67 99
426 253 120
427 421 756
428 170 166
429 58 109
430 408 787
431 845 522
432 350 875
433 24 154
434 732 438
435 322 797
436 569 889
437 286 3
438 19 558
439 271 127
440 921 499
441 513 901
442 541 920
443 41 240
444 876 405
445 449 871
446 786 558
447 467 684
448 827 446
449 625 441
450 321 913
451 935 443
452 378 902
453 95 48
454 991 561
455 822 451
456 137 252
457 556 988
458 769 375
459 925 421
460 674 544
461 117 30
462 119 18
463 134 297
464 614 521
465 887 325
466 467 903
467 772 461
468 379 846
469 916 509
470 983 447
471 667 885
472 465 911
473 96 17
474 671 926
475 93 287
476 795 581
477 741 514
478 119 223
479 503 964
480 849 388
481 80 58
482 123 266
483 683 363
484 77 114
485 872 520
486 187 62
487 918 677
488 909 427
489 937 395
490 80 88
491 25 87
492 421 825
493 2 112
494 647 389
495 705 454
496 151 897
497 27 44
498 154 38
499 285 921
500 259 863
501 702 637
502 112 263
503 908 625
504 783 344
505 422 744
506 168 96
507 358 850
508 62 117
509 539 970
510 278 215
511 854 616
512 379 769
513 688 555
514 826 582
515 401 805
516 384 826
517 320 775
518 204 336
519 866 515
520 405 865
521 724 356
522 414 830
523 131 31
524 318 200
525 1 157
526 542 729
527 245 352
528 539 905
529 376 836
530 878 519
531 212 724
532 876 516
533 380 841
534 149 149
535 283 883
536 814 455
537 970 535
538 450 898
539 220 93
540 208 26
541 903 248
542 180 59
543 69 98
544 199 69
545 879 525
546 57 102
547 978 705
548 691 634
549 391 789
550 442 872
551 754 759
552 854 615
553 820 450
554 326 986
555 71 69
556 315 718
557 377 938
558 44 74
559 290 921
560 142 147
561 437 837
562 742 549
563 288 844
564 792 425
565 262 65
566 533 687
567 213 160
568 4 153
569 140 44
570 521 878
571 575 779
572 442 900
573 893 487
574 73 13
575 394 886
576 511 949
577 474 772
578 812 425
579 684 471
580 797 351
581 386 268
582 953 616
583 382 794
584 548 895
585 861 525
586 372 780
587 967 425
588 534 912
589 396 888
590 82 60
591 856 523
592 12 90
593 497 721
594 40 111
595 347 868
596 377 932
597 296 934
598 926 500
599 380 921
600 423 888
601 716 514
602 871 532
603 529 867
604 852 522
605 406 859
606 824 407
607 274 236
608 854 533
609 336 959
610 813 702
611 210 304
612 315 915
613 905 380
614 831 580
615 399 106
616 74 112
617 139 43
618 57 100
619 78 81
620 170 77
621 959 379
622 347 913
623 316 803
624 538 906
625 235 819
626 982 463
627 847 370
628 200 145
629 769 970
630 712 624
631 867 531
632 352 966
633 341 453
634 10 127
635 1 25
636 918 775
637 277 884
638 884 435
639 745 448
640 118 13
641 222 755
642 695 341
643 25 18
644 380 843
645 436 877
646 912 446
647 568 430
648 821 687
649 367 814
650 33 97
651 411 722
DEMAND_SECTION
2 1
3 1
4 1
5 1
6 1
7 1
8 1
9 1
10 1
11 1
12 1
13 1
14 1
15 1
16 1
17 1
18 1
19 1
20 1
21 1
22 1
23 1
24 1
25 1
26 1
27 1
28 1
29 1
30 1
31 1
32 1
33 1
34 1
35 1
36 1
37 1
38 1
39 1
40 1
41 1
42 1
43 1
44 1
45 1
46 1
47 1
48 1
49 1
50 1
51 1
52 1
53 1
54 1
55 1
56 1
57 1
58 1
59 1
60 1
61 1
62 1
63 1
64 1
65 1
66 1
67 1
68 1
69 1
70 1
71 1
72 1
73 1
74 1
75 1
76 1
77 1
78 1
79 1
80 1
81 1
82 1
83 1
84 1
85 1
86 1
87 1
88 1
89 1
90 1
91 1
92 1
93 1
94 1
95 1
96 1
97 1
98 1
99 1
100 1
101 1
102 1
103 1
104 1
105 1
106 1
107 1
108 1
109 1
110 1
111 1
112 1
113 1
114 1
115 1
116 1
117 1
118 1
119 1
120 1
121 1
122 1
123 1
124 1
125 1
126 1
127 1
128 1
129 1
130 1
131 1
132 1
133 1
134 1
135 1
136 1
137 1
138 1
139 1
140 1
141 1
142 1
143 1
144 1
145 1
146 1
147 1
148 1
149 1
150 1
151 1
152 1
153 1
154 1
155 1
156 1
157 1
158 1
159 1
160 1
161 1
162 1
163 1
164 1
165 1
166 1
167 1
168 1
169 1
170 1
171 1
172 1
COVERAGE_SECTION
2 9 505 415 427 651 295 15 314 577 447 
3 9 200 518 527 193 65 302 107 611 44 
4 9 87 326 260 12 234 242 34 235 32 
5 9 57 360 404 447 238 153 566 81 593 
6 8 462 640 523 405 461 617 498 569 
7 9 629 328 205 303 382 80 101 266 348 
8 8 639 351 434 397 467 495 564 243 
9 8 424 367 344 406 307 465 226 621 
10 9 199 166 201 237 114 358 254 26 414 
11 8 469 573 440 182 530 532 545 598 
12 9 34 438 185 4 100 87 260 280 242 
13 9 510 268 607 211 407 148 240 386 524 
14 9 521 356 642 275 269 483 140 458 504 
15 9 314 295 593 577 2 246 447 143 296 
16 7 587 470 343 626 451 621 489 
17 9 344 120 219 367 541 9 307 424 75 
18 9 357 126 362 483 494 642 233 94 269 
19 9 35 190 52 214 278 229 257 151 134 
20 9 113 66 272 339 238 289 464 400 370 
21 8 255 53 390 403 615 50 387 135 
22 5 156 603 311 570 168 
23 9 106 60 222 633 391 247 333 84 165 
24 9 368 81 31 153 293 285 447 365 651 
25 9 331 101 340 221 228 187 382 89 70 
26 9 321 387 135 166 114 237 179 201 358 
27 9 571 144 156 270 22 121 225 375 311 
28 8 620 37 486 544 506 542 194 539 
29 9 375 384 36 341 316 191 202 232 209 
30 6 488 459 646 638 451 444 
31 9 293 651 24 556 368 505 81 415 2 
32 9 234 170 85 103 73 115 235 4 41 
33 8 265 481 453 574 590 473 155 555 
34 9 438 185 100 280 12 260 242 47 4 
35 9 19 190 52 151 278 214 257 229 134 
36 8 202 232 29 345 384 551 347 501 
37 8 542 486 620 28 194 544 506 498 
38 9 172 364 139 245 308 312 267 393 581 
39 9 74 318 176 291 378 173 249 175 380 
40 9 79 298 54 206 48 376 134 151 210 
41 9 115 271 250 85 239 73 108 352 224 
42 9 363 123 305 135 358 387 321 26 141 
43 9 109 277 398 94 396 354 388 346 174 
44 9 263 518 175 107 193 86 3 200 611 
45 9 544 539 565 486 540 28 542 37 112 
46 9 353 189 301 180 279 104 117 92 236 
47 9 280 100 355 242 260 34 235 185 438 
48 9 396 54 210 277 298 206 109 398 292 
49 9 82 224 365 352 320 73 368 293 150 
50 9 387 135 615 21 321 255 53 179 26 
51 9 268 211 422 13 83 607 611 302 510 
52 9 278 35 19 257 214 229 379 190 322 
53 8 255 21 390 403 50 615 135 387 
54 9 298 48 210 396 206 40 277 79 292 
55 9 220 342 359 327 294 188 361 93 366 
56 9 195 99 177 75 334 223 257 229 379 
57 9 5 360 404 566 238 447 283 153 143 
58 9 61 285 71 72 153 238 81 196 5 
59 9 136 235 230 355 103 242 170 47 93 
60 9 391 23 108 222 106 633 165 239 84 
61 9 58 285 71 153 72 238 5 196 20 
62 9 259 610 347 212 648 394 317 232 551 
63 9 196 267 207 71 312 256 72 58 61 
64 8 377 395 206 140 109 241 275 356 
65 9 527 200 333 3 247 302 518 83 611 
66 9 113 272 339 464 20 400 370 289 252 
67 9 315 249 160 176 291 74 337 380 443 
68 8 146 192 381 597 310 499 554 559 
69 9 647 256 207 138 335 233 336 308 312 
70 9 187 331 89 25 101 228 340 382 221 
71 9 58 72 61 285 196 63 153 238 81 
72 9 285 71 58 61 153 63 204 365 368 
73 9 82 150 224 85 320 41 352 49 115 
74 9 176 39 291 249 318 67 315 380 173 
75 9 177 99 56 195 229 214 219 257 334 
76 7 514 402 614 251 297 476 446 
77 8 258 183 487 116 582 324 503 288 
78 9 475 502 380 482 169 299 160 443 456 
79 9 40 298 376 54 134 206 151 48 217 
80 9 474 129 266 328 216 167 313 304 373 
81 9 24 368 153 447 5 285 31 58 651 
82 9 224 49 352 320 73 365 150 271 41 
83 9 386 149 302 211 611 268 607 65 51 
84 9 110 247 154 391 333 193 371 107 527 
85 9 115 41 32 73 234 250 271 326 87 
86 9 107 263 193 175 110 44 3 518 154 
87 9 4 326 12 378 85 234 260 115 34 
88 9 516 515 583 649 549 529 372 533 430 
89 9 228 187 331 636 70 25 178 340 101 
90 9 543 425 546 618 616 490 419 429 484 
91 9 203 163 338 106 333 23 65 247 147 
92 9 236 399 359 117 218 306 188 327 279 
93 9 361 342 309 103 531 282 641 55 105 
94 9 174 126 287 357 43 346 109 264 18 
95 7 578 448 553 455 536 564 606 
96 7 562 124 383 477 601 446 513 
97 9 622 98 159 450 452 599 432 596 612 
98 9 159 622 97 450 612 609 596 557 597 
99 9 177 56 195 75 334 229 257 214 223 
100 9 280 260 34 242 47 438 185 235 12 
101 9 25 340 382 331 221 205 629 303 7 
102 7 634 493 594 650 592 158 433 
103 9 170 93 361 282 531 32 234 342 136 
104 9 369 496 180 353 310 117 306 279 218 
105 9 641 184 330 531 282 309 625 342 361 
106 9 23 222 633 60 91 391 247 333 165 
107 9 86 193 263 175 110 44 518 3 200 
108 9 250 391 371 239 60 154 271 41 84 
109 9 43 277 396 48 398 94 377 210 206 
110 9 193 86 107 84 154 263 3 247 175 
111 9 243 580 458 504 606 627 564 578 480 
112 9 539 426 416 423 628 439 567 171 418 
113 9 20 66 272 339 289 464 238 400 370 
114 9 237 201 254 166 199 10 26 179 321 
115 9 41 85 250 271 239 73 108 371 326 
116 9 183 324 288 547 408 77 131 258 487 
117 9 306 218 236 188 92 399 180 279 359 
118 9 132 623 385 435 284 286 563 517 330 
119 9 325 436 216 270 373 584 304 168 374 
120 9 541 219 17 367 344 307 9 190 214 
121 9 246 526 225 143 571 593 191 566 27 
122 9 323 167 457 411 509 129 130 373 374 
123 9 305 42 363 358 392 141 281 292 166 
124 9 383 513 96 562 231 460 630 601 501 
125 4 537 420 410 598 
126 9 357 18 94 287 174 264 362 233 346 
127 9 209 341 215 198 186 471 348 304 313 
128 7 492 522 248 421 561 515 88 
129 9 167 122 323 457 411 373 80 509 216 
130 9 509 576 374 411 479 457 442 323 122 
131 9 288 145 183 116 408 258 547 77 582 
132 9 118 284 563 161 623 385 435 286 330 
133 7 575 589 520 452 468 432 605 
134 9 151 322 79 40 52 278 35 379 298 
135 9 387 321 50 26 179 615 21 53 255 
136 9 59 235 230 242 170 355 103 47 234 
137 8 364 244 172 389 393 581 254 245 
138 9 449 336 647 252 494 69 362 233 579 
139 9 308 335 38 264 172 233 364 287 174 
140 9 275 642 356 14 521 483 64 269 377 
141 9 281 392 305 217 123 376 363 42 292 
142 9 332 289 384 316 283 548 370 191 501 
143 9 526 246 121 566 593 225 404 314 15 
144 9 27 270 571 119 22 156 436 325 603 
145 8 131 582 258 183 288 454 77 116 
146 8 68 192 310 381 597 499 554 559 
147 9 227 338 581 393 245 389 203 163 149 
148 9 240 407 439 423 510 13 524 274 213 
149 9 386 211 607 83 268 13 510 227 338 
150 9 320 73 82 282 224 49 531 556 184 
151 9 134 35 52 40 19 79 322 206 190 
152 9 519 585 591 485 604 532 631 530 431 
153 9 285 58 61 81 5 238 24 72 71 
154 9 371 84 110 391 86 108 107 193 250 
155 9 497 417 412 558 33 643 555 481 590 
156 6 22 311 603 27 296 570 
157 8 208 428 534 273 560 418 171 628 
158 6 491 401 592 650 558 594 
159 9 98 622 97 450 609 612 596 557 632 
160 9 315 443 67 380 78 475 291 337 299 
161 9 500 563 284 132 261 637 535 625 118 
162 7 645 600 550 572 538 445 413 
163 9 203 91 338 333 65 147 227 106 247 
164 9 409 500 637 329 535 261 161 499 559 
165 9 204 633 222 60 239 23 106 271 391 
166 9 10 199 201 237 114 358 26 254 321 
167 9 323 122 129 373 457 411 509 216 130 
168 9 584 528 624 570 603 588 436 441 442 
169 9 482 502 463 475 456 173 78 380 478 
170 9 103 234 32 235 136 93 59 361 282 
171 9 567 628 418 422 208 428 157 416 423 
172 9 364 38 245 137 393 389 581 139 147 
173 9 475 463 380 169 291 482 502 78 44 
174 9 287 346 264 94 126 357 388 354 43 
175 9 263 86 107 44 193 110 518 3 200 
176 9 74 249 291 67 315 39 160 318 380 
177 9 99 75 56 195 229 334 257 214 219 
178 8 262 636 324 487 547 408 116 317 
179 9 615 254 321 26 114 50 387 244 237 
180 9 279 353 189 301 117 236 92 306 218 
181 6 274 213 524 240 148 510 
182 5 440 598 469 11 410 
183 9 116 288 324 131 77 258 408 547 145 
184 9 105 641 531 282 330 309 342 93 361 
185 9 438 34 100 280 12 260 47 242 4 
186 9 198 215 348 127 341 209 313 266 221 
187 9 70 89 331 25 228 101 340 636 221 
188 8 218 306 359 399 236 117 92 496 
189 9 301 353 46 180 279 92 117 236 306 
190 8 19 35 52 151 541 214 395 229 
191 9 316 375 225 283 384 526 121 143 571 
192 8 68 381 146 597 499 559 554 609 
193 9 107 86 110 263 3 518 200 175 44 
194 8 620 37 542 486 28 498 506 569 
195 9 56 99 177 75 334 223 257 229 214 
196 9 63 207 71 256 267 312 61 339 58 
197 9 297 476 76 514 276 614 402 511 552 
198 9 186 215 348 127 209 341 313 266 471 
199 9 10 166 201 237 114 358 254 414 354 
200 9 3 518 527 65 302 193 611 107 44 
201 9 237 114 199 166 10 254 26 358 321 
202 8 36 345 501 548 630 384 232 347 
203 9 163 91 338 147 227 245 333 106 65 
204 9 165 633 222 239 365 271 60 352 72 
205 9 303 629 328 7 382 348 266 313 474 
206 9 48 54 298 377 40 396 64 109 79 
207 9 256 196 69 647 63 312 267 336 339 
208 9 428 157 418 534 171 273 628 560 422 
209 9 127 341 215 471 198 304 186 348 313 
210 9 396 277 48 292 398 54 298 109 43 
211 9 607 268 13 386 510 149 83 51 407 
212 9 349 319 259 317 62 347 394 610 551 
213 6 181 274 524 240 148 510 
214 9 229 257 52 278 19 334 35 219 379 
215 9 127 198 348 186 209 313 341 471 266 
216 9 373 119 325 304 474 167 436 471 323 
217 9 376 281 141 392 79 40 305 298 134 
218 8 306 188 117 236 399 359 92 496 
219 9 120 17 229 214 541 75 257 19 177 
220 9 55 327 366 359 230 399 188 92 236 
221 9 340 319 25 349 186 101 198 212 331 
222 9 633 106 23 165 60 204 391 91 239 
223 9 334 300 379 56 322 278 257 195 177 
224 9 82 352 49 365 320 73 271 150 41 
225 9 526 121 191 143 246 571 316 375 566 
226 9 489 621 406 613 459 424 587 16 30 
227 8 147 338 581 393 389 245 149 203 
228 8 89 331 636 25 178 340 187 349 
229 9 214 257 52 278 334 177 19 219 75 
230 9 220 59 366 136 355 327 55 359 93 
231 9 513 460 370 124 400 383 332 548 96 
232 9 551 347 36 62 610 212 259 202 29 
233 9 362 335 357 126 18 264 308 69 287 
234 9 32 170 235 103 242 4 85 260 136 
235 9 242 260 234 136 59 100 280 170 47 
236 9 92 399 117 218 306 359 188 279 327 
237 9 114 201 254 166 199 10 26 179 321 
238 9 57 5 360 20 61 153 113 58 285 
239 9 271 108 250 41 60 391 165 371 204 
240 9 148 407 213 524 274 181 439 510 13 
241 6 504 395 580 356 275 111 
242 9 260 235 100 280 47 34 234 136 438 
243 9 111 564 458 606 578 580 95 397 504 
244 6 137 179 389 181 254 393 
245 9 581 393 389 147 364 172 227 338 38 
246 9 121 526 143 593 225 15 314 295 566 
247 9 333 84 527 65 110 3 200 23 193 
248 7 522 492 128 605 516 520 533 
249 9 176 67 74 315 291 160 39 318 380 
250 9 108 371 41 239 115 271 391 154 85 
251 5 614 402 514 76 476 
252 9 336 449 138 464 647 339 66 400 579 
253 9 595 432 507 133 468 97 644 533 529 
254 9 114 237 201 166 179 199 10 26 321 
255 6 21 53 390 403 615 50 
256 9 312 69 207 308 267 647 335 196 63 
257 9 214 229 278 334 52 379 19 177 35 
258 8 77 582 183 116 145 503 131 324 
259 9 62 610 394 648 317 212 347 349 232 
260 9 242 100 280 235 34 47 438 185 4 
261 9 329 625 500 161 164 409 132 284 563 
262 8 178 487 324 636 317 116 547 394 
263 9 175 107 86 44 193 518 110 3 200 
264 9 287 174 346 126 357 94 139 233 335 
265 9 473 574 33 405 453 461 462 640 481 
266 9 313 474 348 471 304 215 80 328 303 
267 9 312 63 256 196 207 308 38 69 335 
268 9 211 607 13 510 386 149 51 407 83 
269 9 483 642 521 14 494 356 275 18 351 
270 9 144 436 119 325 27 584 168 603 22 
271 9 239 41 352 250 108 115 224 82 204 
272 9 66 113 370 289 20 400 464 339 332 
273 5 534 560 157 428 208 
274 6 524 181 213 240 148 510 
275 9 356 14 521 140 642 504 458 580 241 
276 7 511 552 197 648 514 614 76 
277 9 396 398 210 48 43 109 54 292 354 
278 9 379 52 257 322 334 214 229 35 19 
279 9 180 301 189 117 92 236 353 306 399 
280 9 100 260 34 47 242 438 185 235 12 
281 9 392 141 217 305 376 123 292 79 40 
282 9 531 184 641 105 93 103 361 150 309 
283 9 566 360 191 404 316 143 225 526 57 
284 9 563 161 132 118 500 535 637 623 385 
285 9 58 72 61 71 153 81 368 24 238 
286 7 435 385 623 517 118 649 132 
287 9 174 264 346 126 94 357 388 43 354 
288 9 131 183 116 408 547 324 145 258 77 
289 9 272 332 370 142 20 113 66 283 400 
290 8 496 329 409 294 261 164 188 625 
291 9 380 74 173 176 475 160 39 315 67 
292 9 210 398 277 396 54 48 298 358 392 
293 9 31 556 320 368 24 49 150 651 82 
294 8 309 290 329 625 342 261 55 641 
295 9 15 577 314 2 593 296 415 505 427 
296 5 577 311 421 295 15 
297 8 476 197 76 402 514 614 446 251 
298 9 54 40 79 48 206 210 396 292 277 
299 2 443 78 
300 9 322 223 379 334 278 134 217 376 257 
301 9 189 279 180 353 46 92 236 117 399 
302 9 611 518 200 83 3 65 527 44 51 
303 9 205 629 328 7 348 266 382 313 474 
304 9 471 313 474 266 216 119 209 215 127 
305 9 123 141 363 42 392 281 358 217 292 
306 8 218 117 188 236 399 92 359 496 
307 5 541 465 9 367 120 
308 9 335 139 256 312 233 69 38 267 264 
309 9 294 342 641 105 361 93 531 184 625 
310 9 146 369 68 164 409 192 499 559 597 
311 5 156 296 577 22 246 
312 9 256 267 308 207 63 69 335 196 38 
313 9 266 471 474 304 348 215 127 209 216 
314 9 15 593 295 447 2 246 143 577 404 
315 9 67 160 249 176 291 337 443 380 74 
316 9 191 375 384 225 283 142 526 121 29 
317 8 349 259 212 394 62 262 610 648 
318 9 39 74 378 176 249 291 12 175 67 
319 9 212 349 221 317 62 551 259 347 232 
320 9 82 49 150 224 293 73 352 556 365 
321 9 26 387 135 50 179 166 114 237 358 
322 9 379 278 134 300 52 151 334 257 223 
323 9 122 167 457 411 509 129 373 130 374 
324 9 116 183 487 547 77 408 288 262 258 
325 9 119 436 373 584 216 270 168 374 528 
326 9 87 4 378 371 115 250 85 154 41 
327 9 366 359 220 399 92 236 188 55 230 
328 9 303 629 205 7 266 80 474 348 313 
329 8 261 409 625 164 290 500 161 294 
330 9 105 118 641 184 132 625 517 623 385 
331 9 25 228 340 89 101 187 221 70 636 
332 9 142 370 289 548 231 501 272 345 630 
333 9 247 527 65 84 3 200 23 110 163 
334 9 379 257 278 223 229 214 177 56 322 
335 9 308 233 139 69 256 264 362 312 647 
336 9 252 449 138 647 464 69 339 494 579 
337 4 443 160 299 315 
338 9 147 227 203 163 91 245 581 393 149 
339 9 66 113 20 464 272 252 400 336 207 
340 9 221 25 101 331 319 228 349 382 636 
341 9 127 209 215 198 186 29 551 348 471 
342 9 361 93 309 531 55 294 641 282 105 
343 5 470 626 16 587 420 
344 9 367 9 17 424 120 307 541 406 219 
345 8 501 548 630 202 383 36 332 124 
346 9 174 287 388 264 354 414 94 43 126 
347 9 62 232 551 610 259 648 212 36 394 
348 9 215 198 266 313 186 471 127 209 474 
349 8 212 317 319 259 636 62 394 262 
350 9 635 412 643 417 497 155 401 158 558 
351 9 8 434 639 397 467 495 564 243 458 
352 9 224 82 49 365 271 73 41 239 320 
353 9 46 189 180 301 279 104 117 236 92 
354 9 388 414 346 398 43 174 199 277 287 
355 9 47 230 59 136 280 100 242 260 235 
356 9 275 14 521 504 140 458 642 580 241 
357 9 126 18 94 287 362 174 264 233 346 
358 9 166 10 199 26 123 201 321 237 114 
359 9 399 327 236 92 188 366 218 220 306 
360 9 57 5 404 566 283 238 143 447 289 
361 9 93 342 309 531 103 282 641 55 105 
362 9 233 18 357 126 494 335 138 483 264 
363 9 42 305 123 135 141 358 392 387 281 
364 9 172 245 393 38 389 137 581 147 139 
365 9 49 352 224 82 204 368 271 320 24 
366 9 327 220 359 399 92 230 236 55 188 
367 9 344 9 424 17 120 307 541 406 465 
368 9 24 81 31 365 153 293 49 285 72 
369 8 310 104 496 409 290 164 146 306 
370 9 272 400 231 332 289 460 66 464 513 
371 9 108 154 250 391 84 239 60 326 110 
372 8 549 583 430 512 586 515 88 649 
373 9 167 216 323 325 122 374 119 442 436 
374 8 442 588 528 624 584 130 168 441 
375 9 316 191 384 29 225 571 27 121 526 
376 9 217 79 281 40 392 141 298 134 54 
377 9 64 206 109 395 140 48 396 43 54 
378 9 318 326 39 87 175 12 4 86 154 
379 9 278 334 322 257 52 223 214 229 300 
380 9 475 78 173 291 160 169 502 482 463 
381 8 609 554 192 597 632 98 159 68 
382 9 7 629 101 205 303 328 25 340 221 
383 9 124 630 96 562 513 501 548 231 345 
384 9 316 375 191 142 29 36 202 332 548 
385 7 623 435 286 517 118 132 284 
386 9 149 211 83 607 268 13 510 302 51 
387 9 135 321 50 26 179 615 21 255 53 
388 9 354 414 346 398 43 174 199 287 277 
389 8 393 581 245 147 227 364 137 172 
390 6 403 21 255 53 615 50 
391 9 60 108 84 371 23 154 239 250 106 
392 9 281 141 305 123 217 376 292 42 363 
393 8 389 581 245 147 227 364 172 137 
394 8 259 648 610 317 62 212 276 347 
395 7 64 241 377 275 140 356 190 
396 9 277 48 210 398 54 109 43 206 292 
397 9 351 8 639 467 564 434 243 578 95 
398 9 277 210 396 43 354 388 292 109 48 
399 9 359 92 236 188 218 327 306 117 366 
400 9 464 370 272 66 460 231 513 113 339 
401 6 491 158 650 592 558 594 
402 7 76 514 614 251 476 297 446 
403 5 390 21 255 615 53 
404 9 566 57 143 360 593 5 283 526 447 
405 9 640 462 473 461 6 265 523 574 453 
406 9 621 226 424 489 613 9 16 587 459 
407 9 148 240 13 510 423 268 607 524 211 
408 9 547 288 116 183 324 131 77 178 487 
409 8 164 329 290 261 500 637 310 496 
410 6 598 125 182 440 469 537 
411 9 457 122 509 323 130 167 129 479 576 
412 9 497 417 643 350 635 155 558 401 33 
413 5 572 538 472 162 466 
414 9 388 354 346 199 10 174 398 201 287 
415 8 427 505 2 651 430 372 295 512 
416 9 418 628 112 171 506 539 28 567 208 
417 9 497 412 155 350 643 635 558 401 158 
418 8 628 208 416 171 157 428 567 534 
419 6 490 619 90 543 425 555 
420 6 125 626 343 410 470 537 
421 4 128 492 561 522 
422 9 171 567 428 208 628 157 418 423 51 
423 9 567 426 112 628 171 439 407 148 422 
424 9 9 406 621 226 367 344 489 613 465 
425 8 543 90 546 618 429 616 490 484 
426 9 439 112 423 539 148 565 416 567 628 
427 8 415 505 2 430 651 372 512 549 
428 9 208 157 534 273 418 171 422 560 628 
429 5 546 508 618 425 90 
430 8 372 549 515 583 88 427 512 128 
431 6 604 591 608 585 152 519 
432 9 253 595 507 133 97 622 452 468 644 
433 4 568 525 634 102 
434 9 8 351 639 495 397 467 579 564 243 
435 7 286 385 623 517 118 132 649 
436 9 325 584 168 119 528 624 270 374 442 
437 5 565 540 45 403 544 
438 9 185 34 100 280 12 260 242 47 4 
439 8 426 423 148 112 240 407 539 565 
440 5 182 598 469 11 410 
441 7 570 588 624 528 168 442 584 
442 8 374 588 624 528 584 168 441 130 
443 3 299 337 160 
444 4 638 480 30 613 
445 4 550 645 162 538 
446 4 476 297 402 76 
447 9 314 5 593 15 404 2 57 81 295 
448 4 455 553 95 536 
449 9 138 336 252 494 647 579 69 464 495 
450 9 612 98 622 159 97 559 597 499 432 
451 4 646 459 488 30 
452 6 599 575 589 133 97 596 
453 7 481 590 33 461 265 473 555 
454 4 537 125 145 410 
455 5 553 448 536 95 578 
456 8 482 502 169 478 463 78 475 173 
457 9 411 122 323 509 130 167 129 479 373 
458 9 243 111 504 580 356 521 14 564 397 
459 7 488 30 451 646 489 587 638 
460 9 513 231 400 124 601 370 464 96 383 
461 9 462 523 640 405 6 473 617 569 453 
462 9 640 405 461 6 523 473 617 569 265 
463 9 169 173 482 502 475 456 380 44 78 
464 9 400 66 252 272 339 370 113 460 336 
465 4 307 613 627 9 
466 6 472 538 572 413 162 445 
467 7 397 639 8 564 351 536 434 
468 8 644 533 529 507 516 133 248 605 
469 5 440 182 598 11 410 
470 5 343 626 16 587 420 
471 9 304 313 266 474 209 215 127 348 216 
472 5 466 538 413 572 162 
473 9 265 405 640 462 574 461 33 453 523 
474 9 266 313 304 471 216 80 348 119 215 
475 9 380 78 169 173 502 482 463 291 160 
476 7 297 446 76 402 514 614 197 
477 5 601 562 96 467 446 
478 6 456 502 482 78 169 299 
479 3 576 130 509 
480 4 627 606 444 111 
481 7 590 555 453 33 619 419 490 
482 9 502 169 456 463 78 475 478 380 173 
483 9 269 642 14 521 494 18 275 140 356 
484 7 616 508 90 425 543 429 546 
485 9 530 532 519 545 152 585 602 631 591 
486 9 542 37 544 28 620 194 45 506 498 
487 8 324 77 262 116 503 183 258 178 
488 5 30 459 646 638 451 
489 9 226 621 459 406 613 30 587 488 16 
490 6 419 619 90 543 425 555 
491 6 158 401 592 650 558 594 
492 6 128 522 248 561 421 515 
493 9 634 102 592 158 491 650 401 594 568 
494 9 483 269 362 449 138 18 642 233 336 
495 9 579 434 639 8 351 601 397 467 477 
496 8 290 306 369 218 188 409 117 329 
497 9 417 412 155 643 350 635 558 401 158 
498 8 569 617 523 194 6 542 37 461 
499 9 559 597 612 450 535 637 192 98 381 
500 9 161 637 535 261 563 164 284 329 625 
501 8 345 548 630 202 383 332 124 36 
502 9 482 169 78 456 475 463 478 380 173 
503 4 77 258 582 487 
504 8 580 458 111 356 241 275 243 521 
505 8 415 427 2 651 430 295 372 512 
506 4 620 28 37 194 
507 9 468 595 253 529 644 533 432 133 516 
508 8 429 616 484 546 618 425 90 543 
509 9 130 411 457 122 323 576 479 374 442 
510 9 13 607 268 211 407 524 148 240 274 
511 6 552 276 614 514 251 76 
512 8 586 372 549 583 430 515 88 427 
513 9 460 231 124 383 96 601 562 370 400 
514 8 76 614 402 251 297 476 552 197 
515 8 88 430 549 583 372 128 516 492 
516 9 529 88 533 644 468 649 248 515 522 
517 7 435 385 286 623 118 586 132 
518 9 200 3 611 44 302 193 107 527 263 
519 9 152 485 532 585 530 591 545 604 631 
520 4 605 575 589 133 
521 9 14 356 642 275 269 483 458 140 504 
522 7 248 492 128 561 515 516 605 
523 8 461 617 569 462 6 640 498 405 
524 8 274 181 213 240 510 148 13 407 
525 5 568 433 634 102 493 
526 9 143 121 246 225 566 593 404 191 314 
527 9 65 3 200 333 247 518 193 302 110 
528 8 624 588 584 442 168 374 441 570 
529 8 533 644 468 516 507 649 88 248 
530 8 532 485 545 519 602 152 631 585 
531 9 282 184 641 105 93 361 309 342 103 
532 8 530 485 545 519 152 585 602 631 
533 8 644 468 529 516 507 248 649 88 
534 5 560 273 157 208 428 
535 9 637 500 161 499 559 563 284 612 164 
536 5 553 455 448 95 578 
537 4 125 410 454 420 
538 8 572 413 162 466 472 645 445 550 
539 9 112 45 544 28 416 426 486 565 37 
540 9 486 45 542 544 37 498 28 194 620 
541 8 307 120 367 9 465 344 190 219 
542 8 486 37 544 620 194 28 498 506 
543 9 90 425 618 546 490 616 419 429 484 
544 9 486 28 542 37 45 620 539 194 506 
545 8 530 485 532 602 631 519 152 585 
546 5 618 429 425 90 543 
547 9 408 116 288 324 183 131 178 487 77 
548 9 501 345 630 332 202 383 124 142 231 
549 8 372 583 430 515 586 88 512 649 
550 4 445 645 162 600 
551 9 232 347 62 36 212 319 341 259 610 
552 6 511 276 614 514 251 76 
553 5 455 448 536 95 578 
554 5 381 609 632 192 159 
555 8 481 590 619 490 419 558 543 90 
556 9 293 517 31 320 330 435 150 184 385 
557 4 596 599 159 452 
558 7 401 491 158 650 555 618 155 
559 9 499 597 612 450 535 637 192 98 381 
560 5 534 273 157 208 428 
561 4 492 128 522 421 
562 7 96 477 124 601 383 446 513 
563 9 284 161 132 500 118 535 637 623 385 
564 9 578 95 243 397 536 606 553 455 448 
565 5 45 539 426 112 439 
566 9 404 143 283 360 526 57 593 246 5 
567 9 171 628 422 423 418 208 416 428 112 
568 5 525 433 634 102 493 
569 7 617 498 523 461 194 6 462 
570 7 603 168 441 528 584 624 588 
571 9 27 121 225 144 526 375 156 246 191 
572 7 538 413 162 600 645 466 472 
573 1 11 
574 9 265 473 33 405 453 155 640 462 481 
575 3 589 133 452 
576 4 479 130 509 442 
577 6 296 295 15 311 314 2 
578 8 95 564 606 448 553 455 536 243 
579 9 495 601 434 639 449 8 477 351 460 
580 7 504 111 458 243 241 627 356 
581 8 393 389 245 147 227 364 338 172 
582 6 258 77 145 503 183 131 
583 8 549 372 88 586 515 512 649 430 
584 9 168 528 624 436 588 442 374 570 603 
585 9 591 152 631 604 519 608 485 602 431 
586 7 512 583 372 549 88 649 430 
587 7 16 470 343 451 626 459 489 
588 7 624 528 442 374 584 441 168 
589 2 575 133 
590 7 481 555 453 619 33 419 490 
591 9 604 585 152 608 431 519 631 485 602 
592 8 158 491 401 650 493 102 594 558 
593 9 314 15 143 246 295 404 526 447 566 
594 5 650 429 546 618 102 
595 9 253 432 507 133 468 97 644 529 533 
596 4 557 599 452 97 
597 9 559 499 612 192 450 381 98 159 609 
598 5 182 440 469 410 11 
599 4 596 557 452 97 
600 2 162 645 
601 8 477 562 96 513 460 579 124 495 
602 9 631 545 485 585 530 152 532 591 608 
603 7 570 168 22 584 441 528 624 
604 9 591 431 585 152 608 519 631 485 602 
605 4 520 248 133 468 
606 7 578 95 480 243 564 111 448 
607 9 211 268 13 510 386 149 83 407 524 
608 7 591 585 604 631 431 152 602 
609 6 632 381 554 159 98 557 
610 8 648 259 62 394 347 317 212 276 
611 9 302 518 200 3 83 44 65 527 51 
612 9 450 98 559 597 159 499 622 97 535 
613 6 226 489 444 30 459 488 
614 7 514 76 251 402 297 476 552 
615 8 21 50 390 403 179 255 53 387 
616 8 484 508 90 425 543 429 546 618 
617 7 569 523 498 461 6 194 462 
618 5 546 429 425 543 90 
619 6 490 419 555 543 90 425 
620 7 37 28 194 506 542 486 544 
621 9 406 226 489 424 16 587 459 613 451 
622 9 97 98 159 450 612 452 599 596 432 
623 7 385 435 286 118 517 132 284 
624 8 528 588 442 584 168 374 441 570 
625 9 261 329 161 132 330 500 284 118 294 
626 4 343 470 420 16 
627 4 480 606 444 111 
628 9 171 418 567 416 208 422 428 157 423 
629 9 205 303 7 328 382 266 348 80 313 
630 8 501 345 548 383 124 202 231 332 
631 9 602 585 485 545 608 152 591 519 530 
632 5 609 554 159 381 557 
633 9 222 165 106 23 60 204 391 239 108 
634 8 102 493 568 433 525 594 592 650 
635 9 350 412 643 417 497 155 401 158 558 
636 8 178 262 228 349 317 547 89 212 
637 9 535 500 161 499 559 164 563 284 612 
638 2 30 488 
639 8 8 434 351 397 467 495 564 579 
640 9 462 405 6 461 473 523 265 617 569 
641 9 105 184 531 309 282 330 342 625 93 
642 9 483 14 521 269 140 275 356 18 494 
643 9 412 350 635 497 417 155 574 33 265 
644 8 533 468 529 516 507 248 133 605 
645 6 550 162 445 600 572 538 
646 5 488 30 451 459 638 
647 9 69 138 336 207 252 449 256 233 335 
648 8 610 394 259 62 276 347 317 197 
649 7 88 516 529 583 533 644 468 
650 5 491 158 401 594 592 
651 8 505 415 2 427 31 512 295 372 
DEPOT_SECTION
   1
   -1
EOF
