NAME :  X-n876-kX-w175-c11.cctp
COMMENT : 	Adapted by Maziero, Usberti and Cavellucci from the Uchoa, Pecin, Pessoa, Poggi, Subramanian, and Vidal (2013)
TYPE :  CCTP
DIMENSION :    833
EDGE_WEIGHT_TYPE : 	EUC_2D	
CAPACITY : 	764
VERTICES_WITHIN_COVERAGE :  11
VERTICES_WITH_DEMAND : 	175
NODE_COORD_SECTION
1 0 0
2 205 638
3 893 161
4 191 775
5 444 871
6 225 445
7 226 456
8 301 566
9 140 746
10 196 791
11 356 894
12 876 165
13 56 653
14 845 153
15 139 808
16 418 823
17 94 422
18 928 162
19 341 981
20 209 815
21 172 705
22 374 765
23 291 847
24 890 163
25 250 591
26 970 235
27 251 857
28 260 618
29 162 764
30 906 149
31 247 471
32 191 464
33 587 796
34 198 622
35 878 157
36 346 812
37 435 818
38 61 783
39 362 765
40 612 859
41 194 515
42 17 446
43 903 248
44 224 732
45 225 847
46 397 945
47 215 418
48 226 733
49 972 221
50 142 476
51 168 895
52 200 480
53 119 633
54 336 808
55 499 899
56 777 171
57 476 870
58 792 163
59 288 812
60 198 613
61 336 674
62 137 629
63 325 333
64 504 837
65 230 635
66 152 785
67 280 381
68 157 615
69 919 211
70 292 398
71 222 739
72 828 150
73 208 442
74 197 773
75 877 170
76 143 623
77 99 543
78 389 437
79 161 762
80 252 631
81 57 741
82 186 706
83 167 827
84 198 737
85 150 707
86 205 347
87 38 861
88 986 232
89 348 608
90 209 620
91 45 650
92 123 656
93 189 796
94 745 402
95 223 504
96 371 909
97 173 748
98 300 680
99 519 907
100 912 247
101 486 851
102 351 603
103 361 802
104 345 809
105 300 669
106 184 781
107 95 678
108 341 854
109 850 357
110 277 718
111 398 817
112 595 938
113 251 511
114 256 570
115 139 720
116 439 977
117 152 784
118 239 824
119 204 615
120 203 430
121 201 538
122 305 605
123 257 811
124 210 654
125 896 5
126 469 802
127 608 873
128 456 878
129 298 404
130 364 459
131 193 936
132 225 517
133 878 171
134 889 224
135 246 643
136 903 67
137 188 667
138 74 625
139 891 34
140 166 625
141 352 593
142 852 122
143 738 166
144 226 451
145 289 331
146 902 312
147 290 350
148 949 143
149 853 187
150 331 440
151 388 908
152 379 421
153 113 576
154 443 857
155 228 825
156 223 473
157 236 677
158 276 929
159 935 243
160 948 144
161 420 893
162 296 718
163 265 621
164 750 158
165 163 734
166 138 677
167 706 133
168 494 871
169 431 620
170 785 201
171 59 888
172 200 544
173 62 591
174 248 791
175 450 874
176 66 681
177 304 891
178 716 135
179 902 193
180 271 663
181 143 633
182 264 607
183 125 615
184 903 146
185 192 766
186 920 407
187 207 406
188 368 628
189 258 369
190 496 929
191 198 597
192 883 141
193 253 331
194 928 241
195 475 920
196 217 778
197 827 143
198 758 327
199 9 757
200 164 879
201 584 811
202 880 217
203 208 811
204 891 43
205 712 541
206 222 501
207 561 983
208 203 458
209 841 201
210 399 849
211 405 922
212 413 793
213 122 590
214 134 553
215 246 457
216 506 813
217 286 652
218 851 207
219 274 658
220 298 692
221 280 567
222 186 782
223 171 696
224 590 986
225 271 633
226 308 909
227 941 128
228 119 877
229 125 758
230 413 530
231 102 856
232 440 612
233 503 909
234 200 669
235 311 931
236 270 504
237 846 9
238 857 70
239 198 543
240 67 565
241 240 696
242 34 561
243 886 161
244 205 442
245 209 600
246 253 812
247 251 877
248 251 355
249 907 166
250 410 893
251 475 886
252 846 170
253 799 232
254 307 561
255 281 561
256 356 706
257 685 879
258 221 776
259 766 256
260 139 792
261 188 458
262 462 208
263 990 280
264 425 862
265 132 617
266 317 742
267 264 341
268 324 634
269 469 950
270 27 749
271 219 393
272 351 815
273 921 173
274 449 874
275 256 693
276 669 859
277 903 164
278 159 801
279 175 650
280 323 607
281 891 152
282 440 836
283 210 737
284 191 758
285 900 213
286 828 139
287 181 452
288 359 351
289 178 757
290 283 436
291 44 689
292 186 659
293 314 859
294 658 1
295 453 791
296 425 948
297 173 424
298 149 514
299 214 648
300 277 686
301 516 905
302 278 844
303 461 796
304 78 694
305 144 616
306 41 715
307 213 755
308 205 785
309 157 504
310 166 607
311 66 652
312 400 881
313 242 589
314 385 910
315 153 665
316 67 514
317 228 344
318 579 475
319 614 815
320 735 79
321 4 658
322 427 846
323 19 918
324 327 672
325 956 153
326 224 587
327 392 748
328 886 154
329 249 734
330 812 115
331 733 302
332 414 635
333 608 925
334 397 947
335 217 460
336 214 448
337 164 620
338 230 662
339 935 216
340 201 694
341 94 787
342 461 857
343 171 743
344 35 898
345 856 88
346 264 895
347 292 579
348 316 750
349 557 864
350 192 747
351 790 501
352 859 177
353 202 584
354 418 862
355 154 613
356 278 613
357 116 568
358 367 501
359 355 974
360 270 414
361 199 663
362 753 185
363 611 937
364 389 841
365 493 814
366 467 883
367 196 686
368 979 283
369 671 251
370 299 613
371 175 481
372 246 965
373 78 763
374 292 719
375 303 526
376 452 889
377 255 855
378 412 741
379 179 436
380 420 960
381 899 140
382 248 445
383 365 372
384 378 855
385 567 731
386 826 202
387 250 767
388 139 394
389 513 894
390 881 116
391 370 942
392 750 291
393 104 402
394 31 560
395 417 940
396 798 198
397 495 914
398 894 162
399 154 817
400 94 373
401 528 792
402 246 423
403 835 226
404 234 636
405 260 750
406 461 894
407 167 289
408 56 594
409 140 517
410 234 489
411 318 719
412 994 143
413 77 565
414 224 758
415 464 893
416 281 604
417 443 852
418 961 214
419 183 785
420 186 551
421 158 602
422 978 344
423 230 446
424 271 713
425 286 851
426 571 979
427 287 648
428 344 511
429 38 560
430 243 482
431 309 469
432 198 727
433 162 732
434 11 367
435 875 159
436 172 772
437 522 762
438 204 654
439 844 215
440 953 250
441 343 611
442 373 950
443 535 887
444 456 964
445 131 688
446 125 751
447 429 875
448 230 449
449 207 652
450 188 430
451 186 661
452 72 422
453 464 984
454 79 664
455 765 213
456 284 425
457 450 818
458 110 733
459 84 781
460 178 864
461 863 164
462 993 250
463 161 837
464 930 143
465 189 469
466 217 803
467 229 622
468 459 776
469 950 81
470 201 599
471 236 408
472 222 762
473 198 340
474 119 621
475 844 132
476 362 469
477 376 725
478 68 519
479 914 192
480 316 406
481 313 830
482 169 799
483 866 82
484 447 48
485 231 439
486 926 70
487 884 109
488 857 163
489 378 718
490 598 885
491 484 848
492 360 441
493 214 376
494 998 234
495 274 547
496 410 782
497 348 364
498 141 549
499 299 851
500 300 676
501 175 712
502 881 110
503 406 657
504 961 115
505 437 830
506 355 879
507 639 866
508 246 245
509 347 454
510 976 180
511 199 482
512 272 456
513 208 828
514 241 865
515 335 749
516 85 741
517 250 783
518 872 257
519 517 540
520 578 822
521 240 562
522 269 374
523 511 912
524 592 642
525 412 876
526 151 889
527 248 646
528 388 408
529 892 169
530 410 905
531 905 265
532 208 626
533 826 31
534 366 446
535 520 859
536 882 216
537 866 142
538 201 723
539 207 436
540 931 286
541 315 420
542 465 765
543 178 725
544 959 212
545 286 836
546 839 161
547 207 653
548 880 197
549 100 699
550 413 467
551 587 908
552 900 226
553 409 902
554 108 725
555 173 511
556 192 541
557 439 901
558 359 922
559 201 403
560 494 798
561 567 243
562 405 913
563 186 353
564 592 884
565 241 806
566 93 947
567 253 495
568 201 793
569 865 120
570 870 80
571 269 599
572 881 203
573 173 844
574 326 854
575 840 141
576 153 454
577 302 878
578 347 728
579 182 600
580 235 375
581 94 682
582 476 900
583 127 659
584 250 889
585 165 659
586 822 95
587 328 818
588 562 462
589 894 76
590 237 482
591 824 116
592 266 674
593 336 376
594 301 679
595 193 527
596 105 922
597 449 905
598 456 866
599 192 347
600 432 995
601 183 480
602 192 660
603 187 859
604 581 666
605 144 458
606 310 462
607 506 672
608 309 439
609 129 762
610 182 351
611 193 763
612 848 251
613 69 514
614 978 382
615 360 980
616 253 694
617 121 840
618 254 614
619 255 472
620 229 456
621 187 667
622 242 459
623 295 602
624 247 488
625 248 604
626 62 657
627 229 502
628 141 521
629 906 287
630 84 662
631 18 916
632 255 564
633 310 815
634 345 904
635 215 593
636 464 806
637 161 464
638 392 457
639 608 839
640 417 815
641 257 751
642 409 779
643 211 656
644 438 990
645 941 191
646 357 627
647 207 488
648 298 756
649 217 656
650 139 755
651 163 715
652 68 718
653 770 153
654 927 408
655 894 196
656 185 765
657 135 490
658 462 963
659 90 548
660 464 630
661 179 821
662 794 244
663 415 844
664 183 692
665 852 76
666 421 782
667 911 258
668 220 422
669 22 663
670 115 875
671 395 921
672 476 787
673 258 531
674 59 511
675 160 758
676 243 815
677 100 547
678 350 659
679 202 526
680 834 185
681 179 431
682 831 192
683 48 759
684 420 813
685 17 690
686 76 737
687 135 595
688 670 983
689 339 453
690 283 751
691 143 945
692 18 770
693 284 822
694 469 797
695 188 429
696 866 252
697 368 807
698 135 728
699 946 170
700 223 936
701 262 582
702 488 315
703 466 885
704 171 610
705 781 308
706 204 837
707 240 317
708 812 120
709 173 655
710 150 951
711 208 651
712 991 264
713 572 917
714 262 410
715 158 650
716 179 716
717 124 629
718 31 691
719 306 444
720 186 627
721 435 842
722 247 809
723 591 791
724 152 737
725 382 828
726 292 231
727 180 671
728 282 357
729 184 786
730 179 972
731 991 236
732 861 165
733 178 631
734 168 595
735 361 801
736 445 783
737 905 182
738 420 492
739 232 684
740 836 157
741 208 436
742 202 676
743 366 385
744 191 251
745 320 398
746 440 871
747 258 785
748 234 547
749 912 151
750 250 390
751 936 66
752 68 604
753 346 276
754 178 751
755 213 655
756 106 789
757 531 949
758 185 662
759 495 886
760 277 823
761 271 387
762 228 881
763 816 221
764 893 185
765 238 980
766 215 871
767 119 397
768 166 588
769 91 782
770 238 440
771 139 814
772 332 800
773 305 717
774 27 398
775 194 401
776 305 676
777 466 826
778 256 531
779 153 742
780 262 837
781 923 23
782 442 792
783 846 349
784 193 755
785 857 271
786 224 543
787 627 869
788 972 244
789 209 903
790 266 665
791 275 565
792 128 462
793 487 879
794 110 751
795 168 744
796 837 152
797 172 880
798 496 803
799 215 624
800 992 152
801 218 497
802 960 163
803 954 191
804 249 552
805 156 649
806 237 830
807 229 818
808 261 498
809 350 941
810 419 930
811 887 318
812 57 375
813 432 935
814 226 708
815 178 634
816 200 453
817 155 636
818 304 808
819 265 655
820 522 889
821 199 348
822 268 963
823 966 105
824 315 324
825 197 285
826 485 935
827 398 221
828 214 630
829 857 266
830 244 736
831 230 784
832 177 772
833 205 796
DEMAND_SECTION
2 25
3 94
4 71
5 59
6 35
7 5
8 45
9 40
10 6
11 72
12 23
13 93
14 13
15 83
16 26
17 11
18 6
19 91
20 68
21 7
22 75
23 31
24 33
25 86
26 42
27 43
28 77
29 35
30 74
31 37
32 55
33 49
34 18
35 72
36 69
37 72
38 72
39 65
40 51
41 71
42 69
43 23
44 58
45 28
46 91
47 4
48 2
49 62
50 11
51 94
52 1
53 76
54 56
55 21
56 57
57 24
58 95
59 84
60 54
61 6
62 55
63 10
64 87
65 94
66 55
67 42
68 14
69 70
70 79
71 40
72 32
73 1
74 57
75 21
76 78
77 33
78 82
79 8
80 54
81 11
82 49
83 23
84 83
85 26
86 21
87 86
88 83
89 82
90 14
91 54
92 67
93 93
94 13
95 75
96 72
97 7
98 15
99 71
100 9
101 44
102 84
103 49
104 42
105 71
106 50
107 30
108 85
109 99
110 15
111 11
112 35
113 98
114 99
115 43
116 17
117 47
118 97
119 42
120 64
121 100
122 75
123 20
124 20
125 87
126 78
127 45
128 62
129 28
130 74
131 23
132 57
133 84
134 14
135 5
136 32
137 23
138 25
139 18
140 84
141 17
142 19
143 29
144 98
145 64
146 38
147 20
148 4
149 29
150 14
151 2
152 53
153 20
154 58
155 46
156 15
157 77
158 78
159 38
160 11
161 98
162 12
163 66
164 60
165 81
166 99
167 24
168 58
169 96
170 60
171 49
172 77
173 77
174 21
175 76
176 96
COVERAGE_SECTION
2 11 532 828 299 711 449 547 438 34 124 799 90 
3 11 398 24 243 529 281 277 328 249 35 12 30 
4 11 74 106 185 222 611 656 419 729 832 10 284 
5 11 746 274 175 598 128 154 447 417 376 264 342 
6 11 423 144 448 485 7 336 620 770 73 335 741 
7 11 620 144 448 335 6 423 336 622 156 485 215 
8 11 254 347 221 255 791 495 623 122 375 701 416 
9 11 650 779 724 446 229 609 698 675 79 115 165 
10 11 568 93 833 308 222 729 419 106 4 74 203 
11 11 506 634 96 558 314 151 108 384 312 671 809 
12 11 75 133 435 35 243 461 24 328 732 529 3 
13 11 626 311 91 454 630 176 138 669 291 718 107 
14 11 796 546 740 575 488 72 252 732 197 461 475 
15 11 771 260 399 278 66 117 482 83 463 617 756 
16 11 640 684 37 505 111 663 322 721 282 212 210 
17 10 393 452 767 400 792 388 812 605 576 774 
18 11 273 464 749 699 249 277 30 160 148 325 184 
19 11 359 615 809 442 391 235 558 334 46 822 634 
20 11 203 513 466 833 807 155 568 706 10 93 308 
21 11 501 223 651 716 82 664 543 85 433 165 340 
22 11 39 327 642 735 103 477 496 515 697 378 578 
23 11 425 499 545 302 293 693 481 760 780 577 59 
24 11 3 243 398 529 328 281 35 277 12 133 75 
25 11 313 625 701 182 571 114 618 326 632 28 521 
26 11 788 49 88 731 418 440 544 462 494 159 712 
27 11 377 514 247 780 45 302 806 584 762 118 425 
28 11 163 618 182 80 625 225 356 571 416 25 135 
29 11 79 675 436 289 832 97 754 795 117 66 343 
30 11 184 749 381 277 281 249 3 398 24 328 243 
31 11 619 430 622 215 590 624 410 620 156 567 7 
32 11 465 261 208 816 287 52 601 511 371 244 335 
33 11 723 201 520 319 639 401 40 385 437 349 127 
34 11 60 119 90 532 720 2 799 828 733 470 815 
35 11 435 12 243 328 24 75 133 281 3 192 398 
36 11 104 272 54 103 772 587 735 697 633 481 725 
37 11 505 457 684 16 640 282 721 782 322 636 295 
38 8 459 373 683 769 341 81 692 756 
39 11 22 515 327 735 103 578 477 697 772 104 348 
40 11 127 787 639 507 490 564 319 520 349 551 201 
41 11 595 679 555 121 556 239 172 647 801 95 132 
42 11 774 452 674 434 17 812 316 613 478 393 400 
43 11 100 667 531 552 194 134 159 518 285 696 536 
44 11 48 71 283 830 814 307 329 538 84 414 432 
45 11 806 155 706 514 513 766 118 27 807 377 762 
46 11 334 395 211 671 442 380 391 810 296 562 813 
47 11 668 187 120 741 539 559 471 73 271 244 485 
48 11 44 71 283 830 329 414 814 307 538 84 432 
49 11 418 26 544 88 788 731 494 440 803 462 339 
50 11 657 605 792 637 576 309 371 298 409 601 628 
51 11 200 797 526 460 603 789 131 573 228 766 691 
52 11 511 647 465 601 32 208 156 261 371 801 335 
53 11 717 474 62 183 265 92 181 76 583 305 817 
54 11 104 772 36 587 272 103 735 633 481 697 818 
55 11 233 759 389 397 301 523 99 582 793 820 251 
56 11 58 653 362 164 170 396 143 455 72 197 386 
57 11 793 251 366 168 703 342 598 101 128 491 759 
58 11 56 653 396 72 170 197 164 286 740 362 796 
59 11 693 760 818 633 545 123 481 302 23 246 780 
60 11 119 34 90 470 191 532 245 720 799 579 828 
61 11 324 678 776 594 98 105 500 256 220 268 411 
62 11 181 76 265 717 305 53 183 817 474 355 68 
63 11 824 145 288 147 497 593 728 383 753 267 745 
64 11 101 491 216 365 535 168 798 560 777 57 793 
65 11 404 467 828 135 799 299 527 80 532 2 649 
66 11 117 260 278 482 29 436 79 15 675 832 419 
67 11 761 522 70 728 189 129 750 147 360 714 248 
68 11 355 337 310 140 305 421 704 76 817 181 734 
69 11 339 285 479 552 179 655 645 194 737 134 159 
70 11 129 67 761 480 360 456 745 541 714 522 290 
71 11 44 48 283 307 414 830 472 84 538 329 432 
72 11 197 796 286 740 575 546 14 475 252 488 591 
73 11 244 539 741 336 120 816 6 208 144 335 423 
74 11 4 185 611 222 308 656 106 284 10 419 729 
75 11 133 12 435 35 243 24 461 529 732 3 328 
76 11 305 62 181 265 355 68 817 183 717 337 140 
77 11 677 659 357 413 153 214 240 478 498 613 316 
78 11 152 638 534 492 528 130 550 476 509 689 743 
79 11 29 675 436 97 289 795 832 754 343 779 650 
80 11 135 28 163 527 618 225 404 65 467 182 625 
81 9 686 683 652 516 373 270 306 38 459 
82 11 716 501 21 664 223 340 543 367 538 432 651 
83 11 463 661 399 573 278 482 771 15 93 603 706 
84 11 432 283 350 538 784 284 307 543 71 754 44 
85 11 651 115 21 223 501 698 445 433 165 716 724 
86 10 821 473 599 563 317 610 493 580 707 248 
87 11 171 344 631 323 231 670 38 228 617 596 459 
88 11 731 494 26 49 788 462 418 712 544 440 263 
89 11 102 441 141 646 280 188 268 122 370 678 623 
90 11 532 119 799 34 828 60 2 245 467 470 720 
91 11 13 626 311 669 176 454 138 291 630 321 718 
92 11 583 53 166 717 62 181 315 445 805 474 107 
93 11 10 729 568 419 222 106 833 308 482 4 74 
94 10 198 331 705 351 392 109 783 205 259 662 
95 11 206 627 801 132 410 647 590 113 624 430 679 
96 11 314 151 558 11 634 671 391 506 562 211 809 
97 11 343 754 795 289 675 165 79 29 350 433 284 
98 11 594 500 776 105 220 300 324 217 180 219 427 
99 11 301 523 389 233 820 55 397 443 190 759 793 
100 11 43 667 194 531 159 552 134 285 69 339 629 
101 11 491 57 168 64 342 793 777 598 535 759 251 
102 11 89 141 441 646 280 188 268 122 370 623 678 
103 11 735 697 272 104 36 54 772 725 39 587 22 
104 11 36 272 54 772 103 735 587 697 633 481 818 
105 11 500 776 594 98 217 220 427 324 219 300 180 
106 11 222 419 729 4 832 74 436 10 93 656 185 
107 11 581 630 454 549 304 176 92 445 583 311 626 
108 11 574 293 506 384 481 587 272 36 499 11 104 
109 10 783 811 146 705 186 785 629 829 654 198 
110 11 424 374 162 773 300 329 220 275 616 690 405 
111 11 640 725 16 684 364 212 210 663 697 37 496 
112 11 363 333 551 713 224 426 490 564 207 757 127 
113 11 567 808 236 673 778 624 627 132 410 95 430 
114 11 632 701 521 804 791 25 221 313 255 495 571 
115 11 698 85 724 651 9 433 779 165 554 458 445 
116 11 644 600 444 380 453 658 296 269 395 813 810 
117 11 66 260 278 29 436 482 79 15 675 832 419 
118 11 806 676 155 807 722 246 565 123 780 45 466 
119 11 60 90 34 532 799 245 470 828 191 720 2 
120 11 539 741 244 73 450 695 47 668 336 816 187 
121 11 172 239 556 679 595 420 41 786 132 748 555 
122 11 370 623 280 416 356 347 268 571 441 8 182 
123 11 246 722 676 565 118 174 760 747 780 806 517 
124 11 643 547 755 449 711 438 299 649 361 2 234 
125 11 139 781 204 237 136 589 486 751 533 238 570 
126 11 694 636 303 672 295 777 457 560 365 798 468 
127 11 40 490 564 787 507 639 551 333 349 713 319 
128 11 175 274 366 376 598 703 5 406 415 746 251 
129 11 70 480 541 745 456 67 360 761 290 714 608 
130 11 476 534 492 509 689 638 78 150 152 358 550 
131 11 700 789 730 710 51 691 372 797 526 765 200 
132 11 95 206 627 801 679 786 113 410 41 748 121 
133 11 75 12 435 243 24 35 529 461 3 398 732 
134 11 202 536 552 285 572 43 548 655 69 100 179 
135 11 527 80 404 65 819 338 225 467 28 163 618 
136 11 589 486 204 751 139 570 483 238 487 502 781 
137 11 621 451 758 292 602 727 234 361 742 709 279 
138 11 752 311 13 626 173 408 91 630 454 474 53 
139 11 204 125 781 136 589 238 486 237 570 483 751 
140 11 337 68 733 815 704 817 355 310 720 76 181 
141 11 102 89 441 280 646 188 122 268 254 370 8 
142 11 475 569 575 537 286 591 390 502 14 197 345 
143 11 164 362 653 178 56 167 58 455 170 396 320 
144 11 448 7 6 423 620 336 335 485 770 622 73 
145 11 147 267 728 824 63 193 248 522 189 67 707 
146 11 811 629 540 531 667 785 518 43 829 100 783 
147 11 728 145 267 522 67 824 189 63 248 193 761 
148 11 160 325 227 464 802 699 18 504 749 273 823 
149 11 352 209 252 680 218 682 732 488 461 75 439 
150 11 689 509 608 719 541 492 606 431 534 480 130 
151 11 314 671 96 562 211 530 553 250 312 558 11 
152 11 528 78 492 534 638 743 130 509 383 476 689 
153 10 357 213 687 214 677 77 659 413 498 183 
154 11 417 5 746 598 721 175 274 342 264 322 282 
155 11 807 806 118 676 513 20 45 565 203 466 722 
156 11 335 7 590 620 410 144 430 647 31 52 622 
157 11 739 338 241 616 275 649 592 755 790 527 643 
158 11 235 822 346 226 177 372 584 700 577 247 765 
159 11 194 440 100 339 667 43 26 69 531 788 418 
160 11 148 325 227 464 802 699 18 504 749 273 30 
161 11 250 553 530 525 447 557 312 562 746 264 354 
162 11 374 773 110 411 424 220 266 690 300 98 348 
163 11 28 225 618 182 356 80 571 416 625 135 527 
164 11 143 653 362 56 178 58 167 170 455 396 708 
165 11 433 724 795 343 779 97 543 651 754 675 716 
166 11 445 315 583 92 85 585 805 715 223 709 727 
167 9 178 143 164 320 653 362 56 58 455 
168 11 793 759 57 101 251 491 55 535 366 389 703 
169 9 232 332 660 503 188 646 102 141 89 
170 11 396 455 56 253 362 763 58 386 662 682 653 
171 11 344 87 323 631 231 596 670 228 566 617 526 
172 10 239 121 556 420 595 679 786 41 748 132 
173 11 408 752 240 413 138 429 242 394 659 153 677 
174 10 517 747 565 722 831 123 246 387 676 258 
175 11 274 5 128 598 746 376 154 366 703 342 447 
176 11 304 454 291 626 630 581 107 311 13 718 91 
177 11 577 226 293 346 499 235 574 634 425 23 158 
178 10 167 143 164 653 320 362 56 58 455 170 
179 11 655 737 479 764 285 548 572 69 529 249 273 
180 11 790 219 819 592 217 427 300 527 105 225 135 
181 11 62 76 817 305 265 717 805 68 355 715 53 
182 11 571 28 618 163 356 625 416 25 701 80 225 
183 11 265 474 717 62 53 305 76 687 181 213 355 
184 11 30 381 749 281 3 277 398 328 249 24 192 
185 11 611 656 284 4 74 784 832 106 222 289 350 
186 11 654 614 109 422 783 811 146 540 629 368 531 
187 10 559 47 775 271 668 120 471 539 695 741 
188 11 646 89 102 441 678 141 268 332 503 280 61 
189 11 522 248 750 761 580 67 728 267 147 193 317 
190 10 826 397 233 195 523 55 301 99 269 582 
191 10 470 245 353 60 579 635 119 34 90 326 
192 11 328 281 381 35 537 243 435 184 3 24 30 
193 11 267 707 248 317 145 189 728 147 522 580 86 
194 11 159 100 667 43 339 440 69 552 531 285 26 
195 11 826 582 397 190 415 233 406 597 269 55 251 
196 11 258 308 831 472 74 414 568 833 307 10 466 
197 11 286 72 575 796 740 475 14 546 591 708 330 
198 10 705 331 392 259 94 662 783 109 253 455 
199 11 692 270 683 81 306 38 685 373 686 718 652 
200 11 797 51 526 460 603 573 463 228 670 789 83 
201 11 520 33 723 319 639 40 349 401 127 787 564 
202 11 536 134 572 285 548 552 655 218 179 764 439 
203 11 20 466 833 513 568 807 10 93 155 308 706 
204 11 139 136 589 125 781 238 570 486 483 665 751 
205 11 351 94 318 524 588 604 519 198 109 783 385 
206 11 95 801 627 132 410 647 590 156 430 624 52 
207 9 426 224 757 112 713 363 333 551 190 
208 11 816 32 335 261 336 244 73 465 52 539 7 
209 11 218 682 439 386 680 149 403 352 252 763 548 
210 11 364 663 384 354 725 322 264 525 16 111 312 
211 11 562 671 810 530 553 151 395 314 46 334 250 
212 11 496 666 642 684 640 111 782 16 37 736 295 
213 10 687 153 357 183 265 474 305 421 76 214 
214 8 498 357 153 628 677 77 409 213 
215 10 622 382 31 619 620 448 423 770 7 144 
216 11 365 798 560 64 401 126 672 694 491 777 101 
217 11 427 219 180 819 105 225 790 500 592 98 594 
218 11 439 209 149 386 403 682 680 572 202 352 548 
219 11 180 819 790 217 427 592 225 105 300 527 135 
220 11 98 594 500 776 300 105 162 773 374 110 411 
221 11 791 255 347 8 495 701 114 632 254 571 804 
222 11 106 419 729 4 10 832 74 93 185 436 656 
223 11 21 664 501 82 651 716 85 367 727 340 543 
224 10 426 207 112 363 333 757 713 551 688 490 
225 11 163 28 80 356 427 819 217 219 618 527 135 
226 11 177 235 577 634 158 346 11 293 558 809 506 
227 11 148 160 464 504 325 823 18 749 802 30 184 
228 11 670 231 526 617 200 596 51 797 463 460 171 
229 7 609 446 650 794 9 458 698 
230 10 738 358 550 428 638 476 130 232 141 169 
231 11 670 617 228 171 771 526 15 463 87 399 200 
232 9 169 660 332 503 188 646 230 102 607 
233 11 397 523 55 301 99 389 190 759 582 820 195 
234 11 361 742 137 602 621 438 451 292 367 547 643 
235 11 226 158 809 177 634 558 577 822 11 19 346 
236 8 808 567 113 624 673 778 430 619 
237 8 533 125 139 204 238 665 570 483 
238 10 665 483 570 345 589 204 586 136 487 502 
239 10 172 121 556 420 595 679 786 41 748 132 
240 11 413 173 429 659 408 242 394 677 77 752 478 
241 11 616 739 275 814 157 592 338 424 300 44 329 
242 11 394 429 240 408 173 413 478 752 674 316 659 
243 11 24 3 328 398 35 281 529 12 435 75 133 
244 11 73 539 741 336 120 816 208 6 450 695 335 
245 11 470 635 191 119 60 353 90 326 34 799 532 
246 11 123 722 676 565 118 174 806 807 760 747 780 
247 11 584 514 27 346 377 762 766 45 780 302 425 
248 11 189 267 193 317 522 580 728 750 761 67 147 
249 11 277 398 3 529 273 737 749 24 30 184 18 
250 11 553 161 530 312 525 562 447 151 211 314 557 
251 11 366 703 415 582 793 57 406 759 128 376 168 
252 11 546 488 352 732 740 14 149 461 680 796 72 
253 11 662 763 170 396 403 455 386 259 439 682 209 
254 11 8 347 255 221 791 375 495 623 122 280 416 
255 11 221 791 495 8 347 254 632 114 701 804 673 
256 11 578 489 477 61 411 324 678 515 773 266 327 
257 11 276 507 787 40 127 490 639 333 564 363 319 
258 10 196 831 472 308 414 307 74 568 833 466 
259 10 662 392 253 455 705 331 170 763 396 198 
260 9 66 117 15 278 771 399 482 609 756 
261 11 32 287 465 816 208 244 601 379 52 73 371 
262 11 827 702 561 753 484 726 288 63 824 383 497 
263 11 368 712 462 788 731 494 88 440 26 540 49 
264 11 354 447 322 746 154 525 5 417 663 721 274 
265 11 183 305 62 76 474 717 181 53 355 687 68 
266 10 348 515 411 648 773 162 578 374 690 110 
267 11 193 248 728 145 147 189 522 707 317 67 580 
268 11 280 441 370 646 89 122 678 324 427 102 61 
269 9 658 444 826 195 190 453 116 813 296 
270 11 199 683 692 81 306 38 686 652 373 718 516 
271 10 187 493 559 471 580 47 775 668 750 120 
272 11 36 104 103 54 735 697 587 772 725 108 481 
273 11 18 249 737 277 479 749 699 645 30 179 398 
274 11 175 5 128 746 598 376 154 366 447 703 342 
275 11 616 241 592 300 424 157 739 790 110 180 814 
276 11 257 507 787 40 127 639 319 490 564 333 551 
277 11 249 398 3 529 24 30 749 243 281 184 737 
278 11 482 66 399 117 15 260 771 83 661 419 729 
279 11 709 585 292 451 758 815 715 733 805 602 137 
280 11 122 441 89 370 268 102 623 141 646 347 416 
281 11 328 3 243 398 24 184 35 192 381 30 277 
282 11 505 721 322 417 37 154 457 16 663 777 264 
283 11 71 84 44 48 432 538 307 350 414 784 284 
284 11 784 611 185 656 350 289 754 74 4 832 97 
285 11 552 134 536 655 69 179 202 572 479 548 764 
286 11 197 72 575 796 475 740 14 591 546 708 142 
287 11 261 32 379 465 816 681 208 450 637 695 244 
288 11 497 383 593 743 63 824 745 528 147 480 145 
289 11 754 97 656 284 784 832 343 436 611 795 29 
290 7 456 512 719 360 608 714 129 
291 11 718 176 306 685 304 669 626 13 652 91 311 
292 11 451 758 602 137 621 727 279 361 709 234 438 
293 11 574 499 577 23 108 425 481 177 545 302 587 
294 5 320 167 178 533 164 
295 11 303 736 782 468 694 126 636 672 457 542 37 
296 11 395 380 813 810 46 334 116 211 444 562 658 
297 9 681 379 450 695 287 120 775 559 539 
298 11 409 628 309 555 657 498 50 214 371 41 595 
299 11 124 711 755 449 547 643 649 438 2 828 65 
300 11 592 220 275 98 180 790 500 594 616 219 424 
301 11 99 523 389 233 820 55 397 443 759 190 793 
302 11 425 545 23 780 760 499 693 377 27 59 481 
303 11 694 295 126 636 672 782 468 736 457 777 542 
304 11 176 581 107 549 652 454 630 291 626 306 554 
305 11 76 355 265 68 62 181 183 337 421 687 817 
306 11 291 718 652 81 685 270 686 176 304 683 516 
307 11 414 472 71 283 784 258 284 350 611 84 196 
308 11 568 10 833 74 196 4 258 93 222 106 729 
309 11 298 555 409 628 657 371 50 601 41 637 595 
310 10 704 421 68 734 337 355 579 140 768 305 
311 11 626 13 454 91 630 138 176 107 581 291 304 
312 11 525 250 161 553 354 530 151 447 264 210 562 
313 11 25 625 326 701 114 521 635 182 618 632 571 
314 11 151 96 671 562 211 530 553 558 250 11 312 
315 11 585 715 805 166 709 279 583 727 817 92 445 
316 11 613 478 674 659 77 677 240 413 429 242 394 
317 11 86 248 193 821 473 707 580 493 267 599 189 
318 11 588 519 205 738 550 524 230 94 702 638 604 
319 11 639 201 33 723 520 40 787 507 127 276 490 
320 6 178 167 164 653 330 143 
321 11 669 685 91 718 291 13 626 311 176 306 454 
322 11 721 663 264 282 417 354 154 505 16 210 746 
323 11 631 344 171 87 566 596 231 670 228 691 617 
324 11 61 776 678 105 500 594 98 220 268 256 217 
325 11 802 148 160 699 464 18 227 510 800 504 803 
326 11 635 313 245 353 25 470 191 625 521 119 467 
327 10 378 22 477 489 39 642 496 666 578 212 
328 11 281 243 35 3 24 398 435 192 12 529 75 
329 10 830 405 641 48 44 71 424 110 387 414 
330 10 708 591 586 286 197 475 72 575 142 796 
331 10 392 198 705 259 369 662 455 253 94 170 
332 9 169 503 232 188 660 646 678 89 102 
333 11 363 112 551 713 490 564 127 787 224 426 40 
334 11 46 395 442 211 380 671 391 296 810 562 813 
335 11 7 336 144 620 156 208 6 448 816 423 73 
336 11 73 6 244 144 335 741 7 539 208 816 423 
337 11 140 68 355 704 310 733 817 421 305 815 76 
338 11 649 157 755 643 299 124 739 527 135 449 547 
339 11 69 544 194 418 645 159 803 479 285 552 49 
340 11 367 664 742 82 234 538 814 137 223 621 21 
341 8 769 459 756 373 38 794 229 609 
342 11 598 154 417 57 175 274 5 128 491 746 101 
343 11 795 97 754 165 433 289 779 543 675 724 79 
344 11 631 171 323 87 596 566 231 670 228 617 526 
345 11 483 665 570 238 502 569 142 487 586 390 589 
346 11 584 247 158 514 762 27 177 377 577 226 425 
347 11 8 221 255 791 254 623 416 122 571 701 370 
348 10 266 515 648 411 690 773 162 578 374 39 
349 11 443 535 564 820 490 520 127 389 551 40 713 
350 11 784 284 84 754 611 289 97 185 656 283 343 
351 11 205 94 109 186 783 654 198 705 331 811 318 
352 11 149 732 461 488 252 75 133 12 435 546 680 
353 9 191 470 635 245 326 579 60 119 734 
354 11 264 525 447 322 663 210 746 154 312 721 417 
355 11 68 305 337 421 310 76 140 704 265 62 181 
356 11 416 163 182 571 28 623 225 370 618 122 625 
357 9 153 213 214 677 77 498 659 687 413 
358 9 428 476 130 509 638 230 738 534 689 
359 11 615 19 442 809 391 334 46 558 235 380 671 
360 8 714 456 290 402 70 761 129 750 
361 11 234 602 438 137 451 547 621 742 124 292 449 
362 11 143 164 56 455 170 653 58 396 178 253 167 
363 11 333 112 551 713 224 490 564 426 127 207 787 
364 11 210 725 384 111 663 16 354 322 640 697 312 
365 11 798 216 560 64 126 694 636 777 672 491 303 
366 11 703 251 415 128 406 57 376 175 582 274 598 
367 11 340 742 664 234 137 621 82 727 361 602 758 
368 11 263 712 462 788 440 540 26 731 88 494 159 
369 11 331 392 259 455 561 362 143 198 164 167 662 
370 11 122 623 416 356 280 268 571 225 163 347 182 
371 11 601 465 637 32 511 52 261 309 287 555 50 
372 11 765 822 700 158 131 730 346 789 235 584 226 
373 8 459 516 769 38 686 341 81 683 
374 11 162 773 110 424 411 220 690 266 300 648 348 
375 7 254 495 8 236 255 428 673 
376 11 406 128 415 175 274 703 366 597 557 5 746 
377 11 27 514 780 247 302 45 425 806 584 118 545 
378 8 327 642 477 489 496 666 22 212 
379 10 681 450 695 297 287 261 120 244 816 539 
380 11 296 395 116 334 46 813 810 644 444 600 211 
381 11 184 30 281 192 749 328 3 398 277 24 243 
382 9 770 215 622 423 448 485 402 620 6 
383 11 743 497 288 593 528 152 745 63 480 78 492 
384 11 364 210 725 506 312 108 663 525 354 111 11 
385 10 437 723 604 33 401 201 607 520 524 319 
386 11 682 209 680 763 439 218 403 396 149 252 253 
387 10 517 641 405 747 174 831 414 472 258 830 
388 6 767 393 297 400 17 681 
389 11 820 301 99 55 233 523 759 443 397 168 793 
390 11 502 487 569 192 142 381 537 184 281 483 328 
391 11 442 809 558 46 334 96 671 314 359 151 615 
392 10 331 705 198 259 662 253 455 369 763 170 
393 8 767 17 400 388 452 812 792 605 
394 11 242 429 240 408 173 413 478 674 752 316 613 
395 11 810 296 813 380 46 334 211 671 562 530 553 
396 11 170 386 763 56 253 682 58 455 680 209 403 
397 11 233 190 55 523 195 301 826 582 99 389 759 
398 11 3 24 529 243 277 281 328 249 35 12 30 
399 11 771 83 15 278 463 482 661 260 66 117 573 
400 8 393 767 812 17 388 452 774 434 
401 11 216 437 798 560 365 64 672 520 33 201 694 
402 9 471 770 714 382 485 360 668 423 6 
403 11 439 763 218 209 386 612 682 253 696 680 149 
404 11 65 135 467 527 80 828 799 299 338 649 532 
405 9 641 329 387 830 690 517 747 110 414 
406 11 415 376 703 366 251 582 597 128 175 274 557 
407 10 825 744 473 599 610 563 821 86 707 317 
408 11 173 752 240 138 413 429 242 394 91 659 13 
409 10 628 298 309 657 498 555 214 50 77 371 
410 11 590 430 624 627 206 801 95 156 567 31 619 
411 11 773 162 266 374 578 348 220 515 256 110 648 
412 11 800 325 802 510 504 148 160 823 227 699 803 
413 11 240 659 677 173 77 408 153 357 429 752 242 
414 10 472 307 258 71 196 48 283 44 831 387 
415 11 406 703 366 251 376 582 128 597 175 274 57 
416 11 356 571 623 182 370 163 122 28 347 618 701 
417 11 154 721 282 322 5 342 598 746 264 175 274 
418 11 544 49 26 803 339 645 88 788 440 510 731 
419 11 729 106 222 4 93 10 832 436 74 482 568 
420 8 556 239 172 121 595 679 41 353 
421 10 310 355 734 68 704 768 337 305 140 579 
422 11 614 368 263 540 712 146 654 186 629 462 811 
423 11 448 6 144 485 620 770 7 336 382 622 215 
424 11 110 374 162 275 616 300 329 220 773 241 830 
425 11 23 302 499 545 780 293 693 760 377 577 481 
426 9 207 224 112 757 363 713 333 551 99 
427 11 217 219 180 225 819 105 790 500 592 776 594 
428 7 358 375 476 431 130 509 689 
429 11 242 394 240 408 173 413 478 659 674 752 316 
430 11 590 624 410 31 567 619 156 622 627 808 215 
431 5 606 719 608 689 150 
432 11 538 84 283 543 350 716 82 44 71 501 784 
433 11 165 724 779 795 343 543 651 97 716 501 754 
434 10 774 812 42 452 400 393 17 767 388 792 
435 11 35 12 75 243 133 328 461 732 24 281 3 
436 11 832 29 79 106 656 289 222 419 675 729 4 
437 11 401 560 798 672 216 385 542 365 694 468 126 
438 11 547 449 711 124 643 755 361 299 602 649 2 
439 11 218 209 403 386 682 149 763 680 202 612 536 
440 11 159 788 26 194 49 418 88 339 544 462 712 
441 11 89 102 141 280 646 188 268 122 370 623 678 
442 11 391 334 46 809 359 558 615 671 96 314 211 
443 11 820 389 99 301 349 535 523 55 233 759 168 
444 10 658 269 116 453 644 296 380 813 600 826 
445 11 166 85 583 315 92 115 549 107 581 698 223 
446 10 229 609 650 794 9 458 698 779 724 554 
447 11 746 264 5 354 525 161 274 175 154 250 128 
448 11 423 144 6 620 7 485 770 336 622 335 215 
449 11 547 711 124 438 643 755 299 649 2 361 602 
450 10 695 681 379 120 297 539 244 741 73 287 
451 11 758 292 137 602 621 727 361 709 234 279 438 
452 11 17 393 812 774 767 400 42 792 388 605 434 
453 9 658 444 116 644 269 600 380 296 826 
454 11 630 311 626 107 176 581 13 304 91 138 549 
455 11 170 362 396 253 662 259 56 763 143 58 164 
456 8 290 360 129 714 70 608 719 541 
457 11 37 505 636 777 282 126 303 295 782 694 721 
458 10 554 794 446 698 516 229 115 9 686 549 
459 8 769 341 373 38 756 516 794 683 
460 11 603 797 200 573 463 51 526 706 766 83 661 
461 11 732 488 12 435 352 75 35 133 252 14 537 
462 11 712 731 494 88 788 26 263 49 368 440 418 
463 11 83 573 399 661 460 771 603 15 278 482 617 
464 11 160 18 148 227 749 30 184 325 273 381 699 
465 11 32 261 601 52 511 208 371 287 816 647 637 
466 11 203 20 833 568 807 308 831 10 565 155 196 
467 11 65 799 404 828 90 532 80 119 618 625 135 
468 11 542 295 736 303 672 694 782 126 636 666 560 
469 11 751 486 823 504 227 136 589 148 160 781 464 
470 10 191 245 60 353 635 119 579 90 34 326 
471 10 402 668 47 271 750 714 187 485 770 580 
472 10 414 307 258 196 71 831 74 283 387 48 
473 9 821 599 86 563 610 317 493 707 580 
474 11 183 717 53 265 62 76 305 181 213 687 92 
475 11 575 142 286 197 14 796 72 537 569 591 740 
476 10 130 509 534 492 689 358 638 78 150 428 
477 10 489 256 327 578 378 22 39 515 411 266 
478 11 316 613 674 659 77 677 240 413 429 242 394 
479 11 179 737 69 273 655 764 285 249 645 277 339 
480 11 745 541 129 70 608 593 150 456 719 67 290 
481 11 633 587 818 499 574 23 545 293 693 59 54 
482 11 278 93 419 729 66 106 117 399 222 661 436 
483 11 570 345 238 665 589 487 502 390 569 136 142 
484 10 262 827 294 561 726 753 702 167 508 178 
485 11 423 770 6 448 144 620 7 382 336 668 402 
486 11 751 136 469 589 204 781 139 823 487 504 570 
487 11 502 390 569 192 483 570 381 589 142 345 537 
488 11 732 461 252 352 14 435 546 12 75 35 133 
489 9 477 256 327 578 378 22 39 515 411 
490 11 564 127 551 40 787 333 713 507 349 639 112 
491 11 101 57 64 168 342 777 793 598 365 535 251 
492 11 534 130 509 689 152 476 78 150 638 528 541 
493 10 271 580 86 559 187 775 821 317 563 599 
494 11 731 88 462 26 788 49 712 418 544 263 440 
495 11 255 791 221 673 778 632 804 114 8 254 375 
496 11 642 212 666 684 640 782 736 111 327 22 378 
497 11 288 593 383 743 63 745 824 480 528 147 129 
498 8 214 628 357 409 298 153 677 77 
499 11 23 425 293 545 302 481 574 577 693 760 633 
500 11 594 98 776 105 220 300 324 217 427 180 219 
501 11 716 21 651 82 543 223 664 433 85 165 432 
502 11 487 390 569 142 192 483 570 345 381 537 589 
503 8 332 169 188 232 678 646 660 489 
504 11 823 227 148 160 469 325 464 412 800 802 751 
505 11 282 37 721 457 322 16 417 684 640 663 154 
506 11 11 634 108 384 96 574 314 558 151 312 293 
507 11 787 40 276 127 639 490 257 564 319 333 551 
508 11 726 744 825 707 193 407 145 267 317 753 824 
509 11 689 130 492 150 476 534 606 431 608 719 78 
510 11 802 803 699 800 325 544 418 645 49 412 148 
511 11 52 647 465 601 32 208 371 801 156 261 335 
512 6 290 619 215 382 31 622 
513 11 706 20 203 155 807 45 466 806 661 118 833 
514 11 27 247 377 762 45 584 766 780 806 346 118 
515 11 266 348 578 39 411 648 22 773 256 477 162 
516 9 686 373 458 794 81 554 652 459 446 
517 10 174 747 387 831 565 722 123 246 258 196 
518 11 696 829 785 612 43 531 134 667 100 202 536 
519 11 318 588 230 660 232 738 169 524 550 607 332 
520 11 201 33 639 723 319 349 40 401 127 564 490 
521 11 804 632 748 114 786 313 326 701 25 778 791 
522 11 189 67 761 728 750 248 147 70 267 580 714 
523 11 99 233 301 397 55 389 190 820 759 443 826 
524 8 604 607 385 519 660 437 723 33 
525 11 312 354 250 447 161 264 553 746 530 210 5 
526 11 200 51 797 228 460 670 603 573 463 596 617 
527 11 135 80 404 819 65 338 225 790 180 219 28 
528 11 152 78 743 383 492 534 638 130 497 593 509 
529 11 24 398 3 243 277 133 75 249 12 328 764 
530 11 553 562 250 161 211 151 671 314 312 810 525 
531 11 667 43 100 629 194 540 518 159 552 696 134 
532 11 90 799 828 34 2 119 60 467 720 299 65 
533 6 237 238 665 345 586 139 
534 11 492 130 509 476 78 152 638 689 150 528 550 
535 11 64 168 820 443 101 389 349 759 491 793 55 
536 11 202 134 572 285 548 552 655 179 218 764 69 
537 11 192 35 435 461 569 328 488 14 142 475 732 
538 11 432 84 283 82 543 716 44 71 350 48 501 
539 11 741 73 244 120 336 816 668 6 47 450 695 
540 11 629 531 667 146 440 100 159 194 43 368 811 
541 10 480 608 129 745 150 719 456 70 290 689 
542 10 468 672 736 295 303 694 782 126 636 560 
543 11 716 501 165 433 651 343 432 21 82 795 84 
544 11 418 49 803 339 26 645 88 788 510 440 159 
545 11 302 23 693 425 760 499 59 780 481 633 818 
546 11 740 796 14 252 72 488 575 197 732 461 286 
547 11 449 711 124 438 643 755 299 649 361 2 234 
548 11 572 655 764 536 202 179 133 285 75 134 149 
549 10 581 107 304 554 445 458 652 176 630 454 
550 11 638 738 78 130 476 534 152 358 492 230 528 
551 11 713 490 564 333 112 363 127 349 40 443 787 
552 11 134 285 536 43 202 69 100 572 655 194 179 
553 11 530 250 562 161 211 151 312 671 314 525 557 
554 10 458 794 549 698 516 115 446 686 229 9 
555 11 309 41 298 595 371 601 679 409 628 556 121 
556 10 239 121 172 420 595 679 41 786 555 132 
557 11 597 376 161 406 415 447 128 175 274 530 5 
558 11 96 809 391 634 11 314 442 151 671 506 46 
559 9 187 775 47 271 120 668 695 450 493 
560 11 798 365 216 672 126 694 636 303 401 64 777 
561 11 369 702 262 827 331 167 178 143 392 362 259 
562 11 211 530 553 671 151 314 250 810 161 395 312 
563 8 610 599 821 473 86 493 317 775 
564 11 490 127 551 40 787 713 349 333 639 507 112 
565 11 722 676 246 123 174 807 118 155 466 806 517 
566 11 596 691 710 171 228 670 344 323 631 526 730 
567 11 624 808 113 430 236 410 590 619 31 627 95 
568 11 10 833 308 93 729 203 222 466 74 419 4 
569 11 142 390 502 487 537 475 192 345 575 483 14 
570 11 483 238 345 665 589 487 502 136 390 569 204 
571 11 182 416 356 701 25 28 618 163 625 623 313 
572 11 548 536 202 655 285 134 764 179 218 552 133 
573 11 463 83 460 603 661 706 399 200 797 513 278 
574 11 293 108 481 499 577 23 587 506 425 633 177 
575 11 475 796 286 14 197 72 740 546 142 537 488 
576 11 605 637 50 792 287 379 261 371 681 297 32 
577 11 177 293 499 425 226 23 574 302 346 545 108 
578 11 256 515 477 411 266 489 348 39 773 22 327 
579 10 704 734 191 310 470 768 60 421 353 34 
580 11 493 750 189 271 248 317 471 522 761 86 187 
581 11 107 549 304 630 454 176 445 92 583 311 626 
582 11 251 415 406 703 366 195 55 397 759 793 376 
583 11 92 166 53 315 445 717 181 805 62 715 817 
584 11 247 346 762 514 27 377 766 789 158 45 425 
585 11 709 715 279 315 805 727 758 292 451 621 137 
586 8 591 330 708 345 665 142 238 475 
587 11 54 633 772 36 104 481 272 818 574 103 735 
588 11 318 519 738 550 230 702 205 638 78 524 528 
589 11 136 570 483 204 486 487 502 238 345 139 390 
590 11 430 410 624 31 156 567 619 627 206 622 801 
591 10 330 708 586 286 475 197 142 575 72 796 
592 11 790 180 300 219 819 275 616 157 217 427 527 
593 11 497 745 383 743 288 480 63 129 70 541 147 
594 11 98 500 776 105 220 300 324 217 180 219 427 
595 11 679 41 121 556 239 172 420 555 132 786 95 
596 11 566 691 228 670 710 171 526 231 51 200 344 
597 11 557 376 406 415 703 582 128 366 195 161 175 
598 11 175 342 274 128 5 154 746 417 57 366 703 
599 8 821 563 473 610 86 317 493 580 
600 11 644 116 453 380 444 658 296 395 269 334 813 
601 11 371 465 511 52 32 261 647 637 287 208 816 
602 11 292 451 758 137 361 621 234 438 727 449 547 
603 11 460 573 797 706 200 766 463 513 83 661 45 
604 8 524 385 607 437 660 723 33 401 
605 11 576 792 50 637 657 287 371 379 261 681 297 
606 6 431 719 608 150 689 290 
607 5 660 604 385 232 169 
608 9 719 541 150 606 290 456 431 689 480 
609 9 229 446 650 9 794 675 779 79 117 
610 8 563 599 821 473 86 493 317 775 
611 11 185 284 656 784 74 4 289 350 832 754 106 
612 10 829 696 785 518 403 439 218 763 202 134 
613 11 316 478 674 659 77 677 240 413 429 242 394 
614 11 422 654 186 368 146 263 540 811 629 712 109 
615 11 359 19 442 391 809 334 46 558 380 235 671 
616 11 275 241 739 157 592 300 424 814 790 110 180 
617 11 231 771 670 15 228 399 463 83 260 573 756 
618 11 28 182 625 163 80 571 25 356 225 467 313 
619 11 31 430 215 622 624 590 512 567 410 808 382 
620 11 7 144 448 423 6 335 622 215 336 485 156 
621 11 137 758 451 292 727 602 234 361 742 709 279 
622 11 215 31 620 382 7 448 144 423 619 770 6 
623 11 122 370 416 356 347 571 280 182 8 163 28 
624 11 430 567 590 410 31 808 619 113 627 156 206 
625 11 618 25 182 313 28 571 163 467 701 80 326 
626 11 311 13 91 454 630 176 138 291 107 304 669 
627 11 95 206 801 410 132 590 624 113 430 567 647 
628 9 409 298 309 498 657 214 555 50 77 
629 11 531 146 540 667 811 43 100 518 194 785 159 
630 11 454 107 311 581 626 176 13 304 138 92 549 
631 11 323 344 171 87 566 596 231 670 228 617 691 
632 11 114 804 521 701 791 221 495 255 25 748 313 
633 11 818 481 587 59 54 693 772 545 760 36 104 
634 11 11 558 96 506 226 809 314 151 177 235 391 
635 11 245 326 470 353 191 119 60 313 90 799 467 
636 11 126 303 694 457 295 777 672 782 365 468 736 
637 11 576 605 50 371 287 601 261 465 32 379 792 
638 11 78 550 130 534 476 492 152 509 738 528 358 
639 11 40 319 127 520 787 201 507 490 33 564 723 
640 11 684 16 37 111 212 505 663 282 721 322 457 
641 9 405 387 329 830 690 517 414 747 48 
642 11 496 666 212 327 782 684 736 640 22 378 111 
643 11 124 755 547 449 649 711 438 299 361 234 2 
644 11 600 116 453 444 380 658 296 269 395 813 334 
645 11 803 699 339 273 479 544 69 418 18 802 510 
646 11 188 89 441 102 678 141 268 280 61 324 122 
647 11 511 52 801 206 156 95 601 465 627 410 32 
648 10 690 348 266 374 162 405 515 773 641 411 
649 11 755 643 124 299 547 711 449 438 338 361 234 
650 11 9 609 229 446 779 675 724 79 29 698 794 
651 11 501 21 85 716 433 543 165 223 82 115 724 
652 10 686 81 304 306 516 176 549 291 554 581 
653 11 56 164 58 143 362 170 396 708 178 330 72 
654 11 186 614 422 109 811 146 783 540 629 368 263 
655 11 179 764 548 572 285 737 479 536 202 529 134 
656 11 185 611 284 289 832 4 784 74 436 106 754 
657 11 50 309 409 298 792 628 605 637 576 371 555 
658 9 444 269 453 116 644 826 296 813 380 
659 11 77 677 413 240 357 153 478 613 316 214 674 
660 5 232 169 332 607 503 
661 11 83 463 482 573 399 93 278 513 706 20 203 
662 10 253 259 763 455 170 403 396 386 612 439 
663 11 322 210 354 721 16 264 282 364 505 417 640 
664 11 223 82 367 21 340 727 501 716 137 621 742 
665 9 238 345 483 570 586 589 502 142 487 
666 11 496 642 212 782 736 684 295 640 468 37 16 
667 11 531 100 43 194 159 629 540 552 518 134 440 
668 11 47 741 120 539 485 187 471 73 6 244 770 
669 11 321 91 685 718 291 13 626 311 176 306 454 
670 11 228 231 617 526 596 200 51 171 797 463 460 
671 11 211 562 151 314 530 46 553 334 810 96 395 
672 11 694 126 303 468 560 636 295 542 798 736 365 
673 11 778 113 495 804 748 236 632 808 132 521 567 
674 11 316 613 478 659 77 429 240 677 242 394 413 
675 11 79 29 97 795 779 289 436 343 754 650 724 
676 11 722 565 118 246 807 123 806 155 174 466 780 
677 11 77 659 357 413 153 214 240 498 478 613 316 
678 11 61 324 646 188 268 256 776 441 89 105 500 
679 11 595 121 41 239 172 556 132 786 95 420 206 
680 11 682 209 149 252 386 546 352 218 740 439 488 
681 10 379 297 450 695 287 120 244 261 539 741 
682 11 680 386 209 149 218 439 252 352 546 763 396 
683 11 81 270 38 373 692 686 199 516 459 306 652 
684 11 640 16 37 212 111 505 282 457 782 663 666 
685 11 718 291 669 306 321 91 176 13 626 652 270 
686 9 516 81 652 373 458 554 683 794 306 
687 11 213 183 265 305 421 355 76 153 68 474 768 
688 11 363 224 333 112 426 257 207 551 713 507 490 
689 10 509 150 492 130 476 534 606 608 431 719 
690 10 648 405 641 348 374 110 162 266 387 329 
691 11 710 596 730 566 131 51 526 200 797 228 670 
692 11 199 270 683 38 81 306 373 459 686 652 516 
693 11 760 59 545 302 818 23 633 780 123 425 481 
694 11 126 303 636 672 295 468 560 782 457 736 798 
695 10 450 681 379 120 297 539 244 741 73 287 
696 11 518 829 612 785 134 43 202 536 403 531 439 
697 11 103 735 272 36 104 725 54 111 772 364 587 
698 11 115 9 724 779 446 458 85 433 554 650 165 
699 11 802 18 325 645 803 273 160 148 464 510 249 
700 11 131 789 372 765 822 158 584 762 730 346 247 
701 11 114 25 571 632 313 791 221 182 625 255 416 
702 11 561 262 827 288 383 528 743 753 497 152 78 
703 11 366 415 251 406 128 376 57 582 175 274 598 
704 10 310 337 68 421 579 734 140 355 733 720 
705 10 198 392 331 259 662 783 253 109 785 829 
706 11 513 20 45 203 155 603 661 807 573 806 466 
707 11 193 317 267 248 86 473 145 821 825 189 599 
708 10 330 591 286 197 586 72 475 575 142 796 
709 11 279 585 292 451 758 715 727 621 805 137 602 
710 11 691 730 131 596 566 51 526 200 797 700 789 
711 11 449 547 124 438 643 755 299 649 2 361 602 
712 11 462 263 368 731 788 494 88 26 440 49 418 
713 11 551 112 333 564 490 363 443 757 99 349 127 
714 9 360 402 750 761 471 456 70 290 67 
715 11 805 585 817 315 709 279 181 140 815 733 292 
716 11 501 543 82 21 651 223 432 433 538 165 664 
717 11 53 474 62 183 265 181 76 305 92 583 817 
718 11 291 685 306 669 176 91 321 13 626 652 304 
719 8 608 606 290 150 431 541 456 689 
720 11 733 815 34 60 140 2 119 532 337 704 90 
721 11 282 322 505 417 154 663 264 37 16 354 457 
722 11 246 565 676 123 118 174 807 806 155 517 747 
723 11 33 201 319 520 639 401 385 40 437 349 127 
724 11 779 165 433 9 795 698 343 115 650 675 97 
725 11 364 111 697 210 384 103 272 735 16 640 663 
726 11 508 753 824 145 707 744 827 63 193 825 267 
727 11 621 137 758 451 292 602 709 585 234 361 664 
728 11 147 522 67 267 145 189 248 761 193 70 750 
729 11 419 222 106 93 4 10 832 74 436 568 482 
730 11 710 131 691 700 765 372 789 51 526 596 822 
731 11 88 494 462 26 788 49 712 418 440 544 263 
732 11 461 488 352 12 435 252 75 133 35 14 546 
733 11 815 720 140 337 279 34 704 817 709 68 60 
734 8 768 310 421 579 704 68 355 337 
735 11 103 697 272 104 36 54 772 725 39 587 22 
736 11 782 295 468 303 666 542 694 636 126 672 212 
737 11 179 764 479 249 273 277 529 655 398 3 24 
738 11 550 230 638 358 476 78 130 534 428 492 152 
739 11 157 241 338 616 814 275 742 649 340 234 592 
740 11 546 796 14 72 252 575 197 286 488 475 732 
741 11 539 73 244 120 336 668 6 47 816 450 695 
742 11 234 367 361 137 621 340 602 438 451 643 758 
743 11 383 497 593 528 288 152 745 480 492 78 534 
744 11 825 407 508 707 473 599 86 821 317 610 193 
745 11 480 129 541 593 70 608 67 150 497 456 719 
746 11 5 274 175 447 154 128 264 598 417 376 354 
747 10 517 174 387 123 722 246 565 831 641 676 
748 11 786 521 804 632 778 673 132 114 121 172 239 
749 11 30 184 249 277 381 18 464 3 281 398 273 
750 10 580 761 189 471 714 522 67 271 360 402 
751 11 486 469 136 589 781 823 204 139 504 227 487 
752 11 173 408 138 240 413 311 13 91 153 429 626 
753 11 824 63 726 288 827 145 497 147 383 593 728 
754 11 97 289 343 795 284 350 656 784 611 675 79 
755 11 643 124 649 547 711 299 449 438 361 338 2 
756 8 341 769 459 260 609 229 15 373 
757 9 190 523 99 207 301 826 233 397 426 
758 11 451 292 621 137 602 727 361 709 279 234 585 
759 11 793 55 168 251 389 233 582 57 820 301 366 
760 11 693 59 545 302 780 123 246 23 425 818 722 
761 10 67 522 750 189 70 714 360 129 728 248 
762 11 766 514 247 584 789 27 45 377 346 603 706 
763 11 253 403 386 396 439 209 662 682 170 218 680 
764 11 655 179 737 529 548 133 24 75 479 572 277 
765 11 372 822 700 730 131 158 789 235 346 584 710 
766 11 762 45 514 603 789 247 706 460 27 584 377 
767 7 393 388 17 400 452 297 576 
768 7 734 421 310 579 704 68 355 
769 8 341 459 756 373 38 794 516 229 
770 10 485 423 382 448 6 144 620 215 402 622 
771 11 15 399 260 278 83 66 463 617 117 482 661 
772 11 54 104 36 587 272 633 103 735 818 481 697 
773 11 162 374 411 220 110 266 424 348 98 594 648 
774 11 434 812 42 452 17 400 393 767 388 674 792 
775 8 559 187 271 47 695 120 450 297 
776 11 500 594 98 105 220 324 300 61 217 427 180 
777 11 457 636 126 282 491 505 694 303 365 342 37 
778 11 673 113 804 495 748 236 632 808 132 786 521 
779 11 724 165 433 9 795 675 343 650 97 79 698 
780 11 302 377 760 27 545 118 123 806 246 693 425 
781 11 125 139 204 751 486 136 589 469 237 570 238 
782 11 736 295 303 468 666 636 37 457 694 126 212 
783 10 109 811 146 705 785 829 629 198 186 518 
784 11 284 350 611 185 656 289 754 74 84 4 307 
785 10 829 518 696 612 531 403 43 629 667 811 
786 11 748 121 172 521 132 239 804 679 556 778 595 
787 11 507 40 127 490 639 564 276 319 551 257 333 
788 11 26 88 440 731 462 49 494 712 418 544 159 
789 11 762 766 700 131 51 584 797 247 603 460 514 
790 11 180 592 819 219 217 300 527 427 135 275 157 
791 11 221 255 495 114 632 701 347 8 804 254 521 
792 11 605 50 576 657 637 309 371 17 287 298 409 
793 11 168 759 57 251 366 703 55 582 415 101 389 
794 8 446 229 458 609 554 516 650 9 
795 11 343 97 165 754 433 779 289 675 724 79 29 
796 11 740 14 72 546 575 197 286 252 475 488 732 
797 11 200 51 460 526 603 573 463 766 789 83 228 
798 11 560 365 216 672 126 694 636 401 64 303 777 
799 11 828 90 532 119 467 2 34 65 60 404 299 
800 11 412 510 802 325 148 160 504 699 803 823 227 
801 11 206 95 627 647 410 132 511 590 52 156 430 
802 11 325 699 160 148 510 803 18 645 800 464 412 
803 11 645 544 699 418 510 802 339 49 273 325 18 
804 11 521 632 748 114 778 673 495 786 791 255 701 
805 11 715 585 817 315 709 279 181 140 815 62 733 
806 11 118 155 807 676 45 722 246 565 780 123 513 
807 11 155 118 676 806 565 466 20 722 203 513 246 
808 9 567 236 113 624 430 619 410 590 31 
809 11 391 558 442 359 634 96 235 615 19 11 46 
810 11 395 813 211 296 562 671 46 530 334 380 553 
811 10 146 629 783 109 540 531 785 829 518 667 
812 9 400 774 434 452 393 17 767 42 388 
813 11 810 296 395 380 211 597 557 562 46 334 530 
814 11 241 44 48 739 340 538 616 71 157 283 830 
815 11 733 720 140 279 337 709 34 817 704 292 715 
816 11 208 244 261 32 73 336 335 539 287 465 741 
817 11 181 805 715 140 76 337 62 68 305 355 815 
818 11 633 59 481 693 587 772 760 54 545 23 104 
819 11 219 180 790 527 592 217 135 225 427 80 300 
820 11 389 443 301 99 55 523 759 233 535 168 793 
821 8 86 599 473 563 610 317 493 580 
822 11 372 765 158 700 235 226 346 19 584 131 177 
823 11 504 469 227 148 160 412 325 751 464 486 800 
824 11 63 145 147 728 288 497 267 593 753 193 67 
825 11 407 744 707 473 599 86 508 821 317 610 563 
826 9 190 195 269 397 233 523 582 658 55 
827 11 262 753 726 702 824 63 288 497 508 145 383 
828 11 799 532 90 2 65 467 34 119 299 404 711 
829 10 785 518 612 696 403 531 43 134 439 629 
830 10 329 48 44 641 405 71 414 387 814 283 
831 10 258 196 174 517 466 472 308 565 387 414 
832 11 436 106 656 222 4 419 289 185 729 29 611 
833 11 568 10 308 466 203 93 20 196 729 74 222 
DEPOT_SECTION
   1
   -1
EOF
