NAME :  X-n876-kX-w350-c9.cctp
COMMENT : 	Adapted by Maziero, Usberti and Cavellucci from the Uchoa, Pecin, Pessoa, Poggi, Subramanian, and Vidal (2013)
TYPE :  CCTP
DIMENSION :    873
EDGE_WEIGHT_TYPE : 	EUC_2D	
CAPACITY : 	764
VERTICES_WITHIN_COVERAGE :  9
VERTICES_WITH_DEMAND : 	350
NODE_COORD_SECTION
1 0 0
2 205 638
3 893 161
4 191 775
5 444 871
6 225 445
7 226 456
8 301 566
9 140 746
10 196 791
11 356 894
12 876 165
13 56 653
14 845 153
15 139 808
16 418 823
17 94 422
18 928 162
19 341 981
20 209 815
21 172 705
22 374 765
23 291 847
24 890 163
25 250 591
26 970 235
27 251 857
28 260 618
29 162 764
30 906 149
31 247 471
32 191 464
33 587 796
34 198 622
35 878 157
36 346 812
37 435 818
38 61 783
39 362 765
40 612 859
41 194 515
42 17 446
43 903 248
44 224 732
45 225 847
46 397 945
47 215 418
48 226 733
49 972 221
50 142 476
51 168 895
52 200 480
53 119 633
54 336 808
55 499 899
56 777 171
57 476 870
58 792 163
59 288 812
60 198 613
61 336 674
62 137 629
63 325 333
64 504 837
65 230 635
66 152 785
67 280 381
68 157 615
69 919 211
70 292 398
71 222 739
72 828 150
73 208 442
74 197 773
75 877 170
76 143 623
77 99 543
78 389 437
79 161 762
80 252 631
81 57 741
82 186 706
83 167 827
84 198 737
85 150 707
86 205 347
87 38 861
88 986 232
89 348 608
90 209 620
91 45 650
92 123 656
93 189 796
94 745 402
95 223 504
96 371 909
97 173 748
98 300 680
99 519 907
100 912 247
101 486 851
102 351 603
103 361 802
104 345 809
105 300 669
106 184 781
107 95 678
108 341 854
109 850 357
110 277 718
111 398 817
112 595 938
113 251 511
114 256 570
115 139 720
116 439 977
117 152 784
118 239 824
119 204 615
120 203 430
121 201 538
122 305 605
123 257 811
124 210 654
125 896 5
126 469 802
127 608 873
128 456 878
129 298 404
130 364 459
131 193 936
132 225 517
133 878 171
134 889 224
135 246 643
136 903 67
137 188 667
138 74 625
139 891 34
140 166 625
141 352 593
142 852 122
143 738 166
144 226 451
145 289 331
146 902 312
147 290 350
148 949 143
149 853 187
150 331 440
151 388 908
152 379 421
153 113 576
154 443 857
155 228 825
156 223 473
157 236 677
158 276 929
159 935 243
160 948 144
161 420 893
162 296 718
163 265 621
164 750 158
165 163 734
166 138 677
167 706 133
168 494 871
169 431 620
170 785 201
171 59 888
172 200 544
173 62 591
174 248 791
175 450 874
176 66 681
177 304 891
178 716 135
179 902 193
180 271 663
181 143 633
182 264 607
183 125 615
184 903 146
185 192 766
186 920 407
187 207 406
188 368 628
189 258 369
190 496 929
191 802 23
192 198 597
193 883 141
194 253 331
195 928 241
196 475 920
197 217 778
198 827 143
199 758 327
200 9 757
201 164 879
202 584 811
203 880 217
204 208 811
205 891 43
206 712 541
207 222 501
208 435 700
209 561 983
210 203 458
211 841 201
212 399 849
213 405 922
214 466 714
215 413 793
216 122 590
217 134 553
218 246 457
219 506 813
220 286 652
221 851 207
222 172 387
223 274 658
224 298 692
225 279 442
226 280 567
227 186 782
228 286 764
229 171 696
230 590 986
231 271 633
232 308 909
233 941 128
234 119 877
235 125 758
236 413 530
237 102 856
238 440 612
239 503 909
240 200 669
241 311 931
242 270 504
243 846 9
244 857 70
245 198 543
246 67 565
247 240 696
248 34 561
249 886 161
250 205 442
251 209 600
252 253 812
253 251 877
254 251 355
255 907 166
256 410 893
257 475 886
258 846 170
259 799 232
260 307 561
261 281 561
262 356 706
263 685 879
264 213 97
265 221 776
266 766 256
267 139 792
268 504 966
269 188 458
270 462 208
271 990 280
272 425 862
273 132 617
274 317 742
275 264 341
276 324 634
277 469 950
278 27 749
279 219 393
280 351 815
281 921 173
282 449 874
283 256 693
284 669 859
285 903 164
286 159 801
287 175 650
288 323 607
289 891 152
290 440 836
291 210 737
292 191 758
293 108 780
294 900 213
295 828 139
296 181 452
297 359 351
298 178 757
299 283 436
300 44 689
301 186 659
302 314 859
303 102 737
304 658 1
305 453 791
306 425 948
307 173 424
308 149 514
309 790 64
310 214 648
311 277 686
312 516 905
313 278 844
314 787 72
315 461 796
316 78 694
317 144 616
318 41 715
319 213 755
320 158 408
321 205 785
322 157 504
323 166 607
324 66 652
325 400 881
326 242 589
327 385 910
328 153 665
329 67 514
330 228 344
331 579 475
332 614 815
333 735 79
334 810 90
335 4 658
336 330 500
337 427 846
338 19 918
339 327 672
340 956 153
341 224 587
342 392 748
343 886 154
344 249 734
345 812 115
346 733 302
347 414 635
348 283 479
349 608 925
350 397 947
351 217 460
352 214 448
353 164 620
354 230 662
355 935 216
356 201 694
357 94 787
358 461 857
359 171 743
360 35 898
361 856 88
362 264 895
363 292 579
364 316 750
365 557 864
366 192 747
367 790 501
368 859 177
369 202 584
370 418 862
371 154 613
372 278 613
373 116 568
374 367 501
375 355 974
376 270 414
377 199 663
378 753 185
379 611 937
380 389 841
381 493 814
382 467 883
383 196 686
384 979 283
385 671 251
386 299 613
387 175 481
388 246 965
389 78 763
390 292 719
391 303 526
392 452 889
393 255 855
394 412 741
395 179 436
396 420 960
397 899 140
398 248 445
399 365 372
400 378 855
401 567 731
402 826 202
403 250 767
404 139 394
405 513 894
406 881 116
407 370 942
408 750 291
409 104 402
410 31 560
411 417 940
412 798 198
413 495 914
414 894 162
415 154 817
416 94 373
417 287 483
418 528 792
419 835 226
420 234 636
421 260 750
422 461 894
423 167 289
424 56 594
425 140 517
426 234 489
427 318 719
428 994 143
429 77 565
430 224 758
431 464 893
432 281 604
433 443 852
434 961 214
435 183 785
436 186 551
437 158 602
438 978 344
439 230 446
440 271 713
441 286 851
442 571 979
443 287 648
444 344 511
445 828 52
446 38 560
447 243 482
448 309 469
449 198 727
450 162 732
451 11 367
452 875 159
453 172 772
454 522 762
455 204 654
456 844 215
457 953 250
458 343 611
459 373 950
460 535 887
461 456 964
462 131 688
463 125 751
464 429 875
465 230 449
466 207 652
467 188 430
468 186 661
469 72 422
470 464 984
471 79 664
472 765 213
473 284 425
474 450 818
475 110 733
476 84 781
477 178 864
478 863 164
479 993 250
480 176 591
481 161 837
482 930 143
483 189 469
484 217 803
485 229 622
486 459 776
487 950 81
488 201 599
489 236 408
490 222 762
491 198 340
492 119 621
493 157 367
494 844 132
495 362 469
496 376 725
497 68 519
498 914 192
499 316 406
500 313 830
501 169 799
502 866 82
503 447 48
504 231 439
505 155 565
506 926 70
507 884 109
508 857 163
509 378 718
510 598 885
511 430 709
512 484 848
513 360 441
514 214 376
515 998 234
516 274 547
517 410 782
518 348 364
519 141 549
520 299 851
521 300 676
522 175 712
523 881 110
524 406 657
525 961 115
526 437 830
527 178 409
528 355 879
529 639 866
530 246 245
531 347 454
532 976 180
533 199 482
534 272 456
535 208 828
536 241 865
537 335 749
538 85 741
539 250 783
540 872 257
541 517 540
542 578 822
543 240 562
544 269 374
545 511 912
546 592 642
547 412 876
548 151 889
549 454 724
550 248 646
551 388 408
552 892 169
553 314 508
554 410 905
555 905 265
556 208 626
557 826 31
558 366 446
559 520 859
560 882 216
561 866 142
562 201 723
563 489 953
564 207 436
565 931 286
566 315 420
567 465 765
568 178 725
569 959 212
570 286 836
571 106 783
572 839 161
573 207 653
574 880 197
575 100 699
576 413 467
577 587 908
578 900 226
579 409 902
580 108 725
581 173 511
582 192 541
583 439 901
584 359 922
585 201 403
586 494 798
587 567 243
588 254 441
589 405 913
590 186 353
591 592 884
592 241 806
593 93 947
594 253 495
595 201 793
596 865 120
597 150 564
598 870 80
599 96 770
600 269 599
601 881 203
602 173 844
603 326 854
604 840 141
605 153 454
606 302 878
607 347 728
608 829 280
609 182 600
610 235 375
611 94 682
612 476 900
613 127 659
614 250 889
615 165 659
616 822 95
617 328 818
618 562 462
619 894 76
620 237 482
621 824 116
622 266 674
623 336 376
624 301 679
625 193 527
626 105 922
627 449 905
628 456 866
629 192 347
630 432 995
631 183 480
632 192 660
633 472 711
634 187 859
635 581 666
636 144 458
637 310 462
638 506 672
639 309 439
640 129 762
641 182 351
642 193 763
643 848 251
644 69 514
645 978 382
646 291 445
647 360 980
648 253 694
649 121 840
650 254 614
651 255 472
652 229 456
653 187 667
654 242 459
655 295 602
656 247 488
657 248 604
658 62 657
659 229 502
660 141 521
661 906 287
662 84 662
663 18 916
664 255 564
665 310 815
666 345 904
667 215 593
668 464 806
669 161 464
670 392 457
671 608 839
672 417 815
673 257 751
674 409 779
675 211 656
676 438 990
677 941 191
678 357 627
679 207 488
680 298 756
681 217 656
682 139 755
683 163 715
684 68 718
685 770 153
686 927 408
687 894 196
688 185 765
689 135 490
690 462 963
691 90 548
692 464 630
693 179 821
694 794 244
695 415 844
696 183 692
697 852 76
698 421 782
699 911 258
700 220 422
701 22 663
702 115 875
703 395 921
704 476 787
705 258 531
706 59 511
707 160 758
708 243 815
709 100 547
710 350 659
711 290 496
712 202 526
713 834 185
714 179 431
715 831 192
716 48 759
717 420 813
718 17 690
719 76 737
720 135 595
721 670 983
722 339 453
723 283 751
724 181 571
725 143 945
726 18 770
727 284 822
728 469 797
729 188 429
730 866 252
731 240 763
732 368 807
733 135 728
734 946 170
735 223 936
736 262 582
737 488 315
738 466 885
739 171 610
740 781 308
741 204 837
742 240 317
743 310 479
744 812 120
745 173 655
746 150 951
747 208 651
748 991 264
749 572 917
750 262 410
751 158 650
752 179 716
753 124 629
754 31 691
755 306 444
756 186 627
757 435 842
758 247 809
759 591 791
760 152 737
761 382 828
762 292 231
763 180 671
764 282 357
765 184 786
766 179 972
767 991 236
768 861 165
769 178 631
770 168 595
771 361 801
772 445 783
773 905 182
774 420 492
775 232 684
776 836 157
777 208 436
778 202 676
779 366 385
780 186 381
781 191 251
782 320 398
783 440 871
784 258 785
785 234 547
786 912 151
787 250 390
788 936 66
789 68 604
790 760 76
791 346 276
792 178 751
793 213 655
794 106 789
795 531 949
796 185 662
797 495 886
798 277 823
799 271 387
800 228 881
801 816 221
802 893 185
803 238 980
804 215 871
805 119 397
806 166 588
807 91 782
808 238 440
809 139 814
810 332 800
811 305 717
812 27 398
813 194 401
814 305 676
815 466 826
816 256 531
817 153 742
818 262 837
819 268 447
820 923 23
821 442 792
822 846 349
823 193 755
824 857 271
825 224 543
826 627 869
827 972 244
828 209 903
829 266 665
830 275 565
831 128 462
832 487 879
833 110 751
834 168 744
835 837 152
836 172 880
837 496 803
838 215 624
839 992 152
840 218 497
841 960 163
842 954 191
843 249 552
844 156 649
845 237 830
846 229 818
847 261 498
848 350 941
849 419 930
850 887 318
851 57 375
852 432 935
853 226 708
854 178 634
855 200 453
856 452 696
857 155 636
858 304 808
859 265 655
860 522 889
861 199 348
862 268 963
863 966 105
864 315 324
865 197 285
866 485 935
867 398 221
868 214 630
869 857 266
870 244 736
871 230 784
872 177 772
873 205 796
DEMAND_SECTION
2 25
3 94
4 71
5 59
6 35
7 5
8 45
9 40
10 6
11 72
12 23
13 93
14 13
15 83
16 26
17 11
18 6
19 91
20 68
21 7
22 75
23 31
24 33
25 86
26 42
27 43
28 77
29 35
30 74
31 37
32 55
33 49
34 18
35 72
36 69
37 72
38 72
39 65
40 51
41 71
42 69
43 23
44 58
45 28
46 91
47 4
48 2
49 62
50 11
51 94
52 1
53 76
54 56
55 21
56 57
57 24
58 95
59 84
60 54
61 6
62 55
63 10
64 87
65 94
66 55
67 42
68 14
69 70
70 79
71 40
72 32
73 1
74 57
75 21
76 78
77 33
78 82
79 8
80 54
81 11
82 49
83 23
84 83
85 26
86 21
87 86
88 83
89 82
90 14
91 54
92 67
93 93
94 13
95 75
96 72
97 7
98 15
99 71
100 9
101 44
102 84
103 49
104 42
105 71
106 50
107 30
108 85
109 99
110 15
111 11
112 35
113 98
114 99
115 43
116 17
117 47
118 97
119 42
120 64
121 100
122 75
123 20
124 20
125 87
126 78
127 45
128 62
129 28
130 74
131 23
132 57
133 84
134 14
135 5
136 32
137 23
138 25
139 18
140 84
141 17
142 19
143 29
144 98
145 64
146 38
147 20
148 4
149 29
150 14
151 2
152 53
153 20
154 58
155 46
156 15
157 77
158 78
159 38
160 11
161 98
162 12
163 66
164 60
165 81
166 99
167 24
168 58
169 96
170 60
171 49
172 77
173 77
174 21
175 76
176 96
177 48
178 44
179 19
180 50
181 64
182 98
183 84
184 3
185 81
186 41
187 99
188 57
189 54
190 40
191 69
192 72
193 57
194 7
195 63
196 23
197 26
198 65
199 23
200 70
201 31
202 34
203 90
204 67
205 70
206 50
207 68
208 83
209 93
210 97
211 7
212 55
213 42
214 78
215 4
216 67
217 25
218 1
219 43
220 47
221 10
222 92
223 52
224 98
225 47
226 36
227 82
228 48
229 9
230 41
231 16
232 24
233 68
234 25
235 5
236 58
237 86
238 33
239 22
240 12
241 38
242 73
243 48
244 25
245 53
246 82
247 75
248 98
249 92
250 17
251 46
252 89
253 35
254 63
255 5
256 42
257 7
258 78
259 87
260 38
261 22
262 55
263 20
264 72
265 50
266 11
267 61
268 53
269 17
270 99
271 53
272 35
273 23
274 50
275 8
276 62
277 89
278 39
279 15
280 50
281 22
282 67
283 71
284 87
285 19
286 81
287 43
288 58
289 79
290 11
291 44
292 97
293 53
294 36
295 50
296 66
297 15
298 69
299 23
300 54
301 52
302 75
303 76
304 5
305 91
306 8
307 54
308 68
309 39
310 76
311 39
312 76
313 57
314 29
315 86
316 43
317 53
318 73
319 80
320 97
321 2
322 13
323 19
324 27
325 95
326 11
327 21
328 61
329 5
330 79
331 56
332 66
333 83
334 91
335 7
336 77
337 81
338 24
339 50
340 48
341 95
342 21
343 62
344 28
345 37
346 81
347 55
348 60
349 27
350 69
351 34
COVERAGE_SECTION
2 9 556 868 310 747 466 573 455 34 124 
3 9 414 24 249 552 289 285 343 255 35 
4 9 74 106 185 227 642 688 435 765 872 
5 9 783 282 175 628 128 154 464 433 392 
6 9 439 144 465 504 7 352 652 808 73 
7 9 652 144 465 351 6 439 352 654 156 
8 9 260 363 226 261 830 516 655 122 391 
9 9 682 817 760 463 235 640 733 707 79 
10 9 595 93 873 321 227 765 435 106 4 
11 9 528 666 96 584 327 151 108 400 325 
12 9 75 133 452 35 249 478 24 343 768 
13 9 658 324 91 471 662 176 138 701 300 
14 9 835 572 776 604 508 72 258 768 198 
15 9 809 267 415 286 66 117 501 83 481 
16 9 672 717 37 526 111 695 337 757 290 
17 9 409 469 805 416 831 404 851 636 320 
18 9 281 482 786 734 255 285 30 160 148 
19 9 375 647 848 459 407 241 584 350 46 
20 9 204 535 484 873 846 155 595 741 10 
21 9 522 229 683 752 82 696 568 85 450 
22 9 39 342 674 771 103 496 517 537 732 
23 9 441 520 570 313 302 727 500 798 818 
24 9 3 249 414 552 343 289 35 285 12 
25 9 326 657 736 182 600 114 650 341 664 
26 9 827 49 88 767 434 457 569 479 515 
27 9 393 536 253 818 45 313 845 614 800 
28 9 163 650 182 80 657 231 372 600 432 
29 9 79 707 453 298 872 97 792 834 117 
30 9 184 786 397 285 289 255 3 414 24 
31 9 651 447 654 218 620 656 426 652 156 
32 9 483 269 210 855 296 52 631 533 387 
33 9 759 202 542 332 671 418 40 401 454 
34 9 60 119 90 556 756 2 838 868 769 
35 9 452 12 249 343 24 75 133 289 3 
36 9 104 280 54 103 810 617 771 732 665 
37 9 526 474 717 16 672 290 757 821 337 
38 9 476 389 716 807 357 599 81 571 726 
39 9 22 537 342 771 103 607 496 732 810 
40 9 127 826 671 529 510 591 332 542 365 
41 9 625 712 581 121 582 245 172 679 840 
42 9 812 469 706 451 17 851 329 644 497 
43 9 100 699 555 578 195 134 159 540 294 
44 9 48 71 291 870 853 319 344 562 84 
45 9 845 155 741 536 535 804 118 27 846 
46 9 350 411 213 703 459 396 407 849 306 
47 9 700 187 120 777 564 585 489 73 279 
48 9 44 71 291 870 344 430 853 319 562 
49 9 434 26 569 88 827 767 515 457 842 
50 9 689 636 831 669 605 322 387 308 425 
51 9 201 836 548 477 634 828 131 602 234 
52 9 533 679 483 631 32 210 156 269 387 
53 9 753 492 62 183 273 92 181 76 613 
54 9 104 810 36 617 280 103 771 665 500 
55 9 239 797 405 413 312 545 99 612 832 
56 9 58 685 378 164 170 412 143 472 72 
57 9 832 257 382 168 738 358 628 101 128 
58 9 56 685 412 72 170 198 164 295 776 
59 9 727 798 858 665 570 123 500 313 23 
60 9 119 34 90 488 192 556 251 756 838 
61 9 339 710 814 624 98 105 521 262 224 
62 9 181 76 273 753 317 53 183 857 492 
63 9 864 145 297 147 518 623 764 399 791 
64 9 101 512 219 381 559 168 837 586 815 
65 9 420 485 868 135 838 310 550 80 556 
66 9 117 267 286 501 29 453 79 15 707 
67 9 799 544 70 764 189 129 787 147 376 
68 9 371 353 323 140 317 437 739 76 857 
69 9 355 294 498 578 179 687 677 195 773 
70 9 129 67 799 499 376 473 782 566 750 
71 9 44 48 291 319 430 870 490 84 562 
72 9 198 835 295 776 604 572 14 494 258 
73 9 250 564 777 352 120 855 6 210 144 
74 9 4 185 642 227 321 688 106 292 10 
75 9 133 12 452 35 249 24 478 552 768 
76 9 317 62 181 273 371 68 857 183 753 
77 9 709 691 373 429 153 217 246 497 519 
78 9 152 670 558 513 551 130 576 495 531 
79 9 29 707 453 97 298 834 872 792 359 
80 9 135 28 163 550 650 231 420 65 485 
81 9 719 716 684 538 389 278 318 38 303 
82 9 752 522 21 696 229 356 568 383 562 
83 9 481 693 415 602 286 501 809 15 93 
84 9 449 291 366 562 823 292 319 568 71 
85 9 683 115 21 229 522 733 462 450 165 
86 9 861 491 629 590 330 641 514 780 610 
87 9 171 360 663 338 237 702 38 234 649 
88 9 767 515 26 49 827 479 434 748 569 
89 9 102 458 141 678 288 188 276 122 386 
90 9 556 119 838 34 868 60 2 251 485 
91 9 13 658 324 701 176 471 138 300 662 
92 9 613 53 166 753 62 181 328 462 844 
93 9 10 765 595 435 227 106 873 321 501 
94 9 199 346 740 367 408 109 822 206 266 
95 9 207 659 840 132 426 679 620 113 656 
96 9 327 151 584 11 666 703 407 528 589 
97 9 359 792 834 298 707 165 79 29 366 
98 9 624 521 814 105 224 311 339 220 180 
99 9 312 545 405 239 860 55 413 460 190 
100 9 43 699 195 555 159 578 134 294 69 
101 9 512 57 168 64 358 832 815 628 559 
102 9 89 141 458 678 288 188 276 122 386 
103 9 771 732 280 104 36 54 810 761 39 
104 9 36 280 54 810 103 771 617 732 665 
105 9 521 814 624 98 220 224 443 339 223 
106 9 227 435 765 4 872 74 453 10 93 
107 9 611 662 471 575 316 176 92 462 613 
108 9 603 302 528 400 500 617 280 36 520 
109 9 822 850 146 608 740 186 824 661 869 
110 9 440 390 162 811 311 344 224 283 648 
111 9 672 761 16 717 380 215 212 695 732 
112 9 379 349 577 749 230 442 510 591 209 
113 9 594 847 242 705 816 656 659 132 426 
114 9 664 736 543 843 830 25 226 326 261 
115 9 733 85 760 683 9 450 817 165 580 
116 9 676 630 461 396 470 690 306 277 411 
117 9 66 267 286 29 453 501 79 15 707 
118 9 845 708 155 846 758 252 592 123 818 
119 9 60 90 34 556 838 251 488 868 192 
120 9 564 777 250 73 467 729 47 700 352 
121 9 172 245 582 712 625 436 41 825 132 
122 9 386 655 288 432 372 363 276 600 458 
123 9 252 758 708 592 118 174 798 784 818 
124 9 675 573 793 466 747 455 310 681 377 
125 9 139 820 205 243 136 619 506 788 557 
126 9 728 668 315 704 305 815 474 586 381 
127 9 40 510 591 826 529 671 577 349 365 
128 9 175 282 382 392 628 738 5 422 431 
129 9 70 499 566 782 473 67 376 799 299 
130 9 495 558 513 531 722 670 78 150 152 
131 9 735 828 766 746 51 725 388 836 548 
132 9 95 207 659 840 712 825 113 426 41 
133 9 75 12 452 249 24 35 552 478 3 
134 9 203 560 578 294 601 43 574 687 69 
135 9 550 80 420 65 859 354 231 485 28 
136 9 619 506 205 788 139 598 502 244 507 
137 9 653 468 796 301 632 763 240 377 778 
138 9 789 324 13 658 173 424 91 662 471 
139 9 205 125 820 136 619 244 506 243 598 
140 9 353 68 769 854 739 857 371 323 756 
141 9 102 89 458 288 678 188 122 276 260 
142 9 494 596 604 561 295 621 406 523 14 
143 9 164 378 685 178 56 167 58 472 170 
144 9 465 7 6 439 652 352 351 504 808 
145 9 147 275 764 864 63 194 254 544 189 
146 9 850 661 565 555 699 824 540 43 869 
147 9 764 145 275 544 67 864 189 63 254 
148 9 160 340 233 482 841 734 18 525 786 
149 9 368 211 258 713 221 715 768 508 478 
150 9 722 531 639 755 566 513 637 448 558 
151 9 327 703 96 589 213 554 579 256 325 
152 9 551 78 513 558 670 779 130 531 399 
153 9 373 216 720 217 709 77 691 429 519 
154 9 433 5 783 628 757 175 282 358 272 
155 9 846 845 118 708 535 20 45 592 204 
156 9 351 7 620 652 426 144 447 679 31 
157 9 775 354 247 648 283 681 622 793 829 
158 9 241 862 362 232 177 388 614 735 606 
159 9 195 457 100 355 699 43 26 69 555 
160 9 148 340 233 482 841 734 18 525 786 
161 9 256 579 554 547 464 583 325 589 783 
162 9 390 811 110 427 440 224 274 723 311 
163 9 28 231 650 182 372 80 600 432 657 
164 9 143 685 378 56 178 58 167 170 472 
165 9 450 760 834 359 817 97 568 683 792 
166 9 462 328 613 92 85 615 844 751 229 
167 9 178 143 164 333 685 378 790 56 58 
168 9 832 797 57 101 257 512 55 559 382 
169 9 238 347 692 524 188 678 856 208 102 
170 9 412 472 56 259 378 801 58 402 694 
171 9 360 87 338 663 237 626 702 234 593 
172 9 245 121 582 436 625 712 825 41 724 
173 9 424 789 246 429 138 446 248 410 691 
174 9 539 784 592 758 871 123 252 403 708 
175 9 282 5 128 628 783 392 154 382 738 
176 9 316 471 300 658 662 611 107 324 13 
177 9 606 232 302 362 520 241 603 666 441 
178 9 167 143 164 685 333 378 56 790 58 
179 9 687 773 498 802 294 574 601 69 552 
180 9 829 223 859 622 220 443 311 550 105 
181 9 62 76 857 317 273 753 844 68 371 
182 9 600 28 650 163 372 657 432 25 736 
183 9 273 492 753 62 53 317 76 720 181 
184 9 30 397 786 289 3 285 414 343 255 
185 9 642 688 292 4 74 823 872 106 227 
186 9 686 645 109 438 822 850 146 565 661 
187 9 585 47 813 279 700 120 489 527 564 
188 9 678 89 102 458 710 141 276 347 524 
189 9 544 254 787 799 610 67 764 275 147 
190 9 866 413 239 196 545 563 55 312 99 
191 9 557 445 309 243 314 334 790 244 697 
192 9 488 251 369 60 609 667 119 480 34 
193 9 343 289 397 35 561 249 452 184 3 
194 9 275 742 254 330 145 189 764 147 544 
195 9 159 100 699 43 355 457 69 578 555 
196 9 866 612 413 190 431 239 422 627 277 
197 9 265 321 871 490 74 430 595 873 319 
198 9 295 72 604 835 776 494 14 572 621 
199 9 740 346 408 266 94 608 694 822 109 
200 9 726 278 716 81 318 38 718 389 719 
201 9 836 51 548 477 634 602 481 234 702 
202 9 542 33 759 332 671 40 365 418 127 
203 9 560 134 601 294 574 578 687 221 179 
204 9 20 484 873 535 595 846 10 93 155 
205 9 139 136 619 125 820 244 598 506 502 
206 9 367 94 331 546 618 635 541 199 109 
207 9 95 840 659 132 426 679 620 156 447 
208 9 511 856 549 214 633 394 524 509 342 
209 9 442 230 795 112 268 749 379 349 563 
210 9 855 32 351 269 352 250 73 483 52 
211 9 221 715 456 402 713 149 419 368 258 
212 9 380 695 400 370 761 337 272 547 16 
213 9 589 703 849 554 579 151 411 327 46 
214 9 633 549 856 208 511 567 638 394 486 
215 9 517 698 674 717 672 111 821 16 37 
216 9 720 153 373 183 273 492 317 437 597 
217 9 519 597 373 505 153 660 709 77 425 
218 9 654 398 31 651 652 465 588 439 808 
219 9 381 837 586 64 418 126 704 728 512 
220 9 443 223 180 859 105 231 829 521 622 
221 9 456 211 149 402 419 715 713 601 203 
222 9 780 527 320 493 813 585 404 307 590 
223 9 180 859 829 220 443 622 231 105 311 
224 9 98 624 521 814 311 105 162 811 390 
225 9 299 646 819 534 473 588 755 376 639 
226 9 830 261 363 8 516 736 114 664 260 
227 9 106 435 765 4 10 872 74 93 185 
228 9 723 680 421 673 364 784 403 274 539 
229 9 21 696 522 82 683 752 85 383 763 
230 9 442 209 112 379 349 795 749 577 721 
231 9 163 28 80 372 443 859 220 223 650 
232 9 177 241 606 666 158 362 11 302 584 
233 9 148 160 482 525 340 863 18 786 841 
234 9 702 237 548 649 201 626 51 836 481 
235 9 640 463 682 833 9 293 475 303 571 
236 9 774 374 576 444 670 495 130 238 141 
237 9 702 649 234 171 809 548 15 481 87 
238 9 169 692 347 524 188 678 856 236 208 
239 9 413 545 55 312 99 405 190 797 612 
240 9 377 778 137 632 653 455 468 301 383 
241 9 232 158 848 177 666 584 606 862 11 
242 9 847 594 113 711 417 348 656 705 816 
243 9 557 191 445 125 139 205 244 697 598 
244 9 697 502 598 361 445 619 205 616 136 
245 9 172 121 582 436 625 712 825 41 724 
246 9 429 173 446 691 424 248 410 709 77 
247 9 648 775 283 853 157 622 354 440 311 
248 9 410 446 246 424 173 429 497 789 706 
249 9 24 3 343 414 35 289 552 12 452 
250 9 73 564 777 352 120 855 210 6 467 
251 9 488 667 192 119 60 369 90 341 34 
252 9 123 758 708 592 118 174 845 846 798 
253 9 614 536 27 362 393 800 804 45 818 
254 9 189 275 194 330 544 610 764 787 799 
255 9 285 414 3 552 281 773 786 24 30 
256 9 579 161 554 325 547 589 464 151 213 
257 9 382 738 431 612 832 57 422 797 128 
258 9 572 508 368 768 776 14 149 478 713 
259 9 694 801 170 412 419 472 402 266 456 
260 9 8 363 261 226 830 391 516 655 122 
261 9 226 830 516 8 363 260 664 114 736 
262 9 607 509 496 61 427 339 710 537 811 
263 9 284 529 826 40 127 510 671 349 591 
264 9 530 762 781 865 423 742 791 867 194 
265 9 197 871 490 321 430 319 731 74 595 
266 9 694 408 259 472 740 346 170 801 412 
267 9 66 117 15 286 809 415 501 640 293 
268 9 563 795 866 190 277 690 470 461 413 
269 9 32 296 483 855 210 250 631 395 52 
270 9 867 737 587 791 503 762 297 63 864 
271 9 384 748 479 827 767 515 88 457 26 
272 9 370 464 337 783 154 547 5 433 695 
273 9 183 317 62 76 492 753 181 53 371 
274 9 364 537 427 680 811 162 607 390 723 
275 9 194 254 764 145 147 189 544 742 330 
276 9 288 458 386 678 89 122 710 339 443 
277 9 690 461 563 866 196 190 470 268 116 
278 9 200 716 726 81 318 38 719 684 389 
279 9 187 514 585 489 610 47 813 700 787 
280 9 36 104 103 54 771 732 617 810 761 
281 9 18 255 773 285 498 786 734 677 30 
282 9 175 5 128 783 628 392 154 382 464 
283 9 648 247 622 311 440 157 775 829 110 
284 9 263 529 826 40 127 671 332 510 591 
285 9 255 414 3 552 24 30 786 249 289 
286 9 501 66 415 117 15 267 809 83 693 
287 9 745 615 301 468 796 854 751 769 844 
288 9 122 458 89 386 276 102 655 141 678 
289 9 343 3 249 414 24 184 35 193 397 
290 9 526 757 337 433 37 154 474 16 695 
291 9 71 84 44 48 449 562 319 366 430 
292 9 823 642 185 688 366 298 792 74 4 
293 9 571 794 357 599 807 476 235 640 833 
294 9 578 134 560 687 69 179 203 601 498 
295 9 198 72 604 835 494 776 14 621 572 
296 9 269 32 395 483 855 714 210 467 669 
297 9 518 399 623 779 63 864 782 551 147 
298 9 792 97 688 292 823 872 359 453 642 
299 9 225 473 646 819 534 755 376 639 588 
300 9 754 176 318 718 316 701 658 13 684 
301 9 468 796 632 137 653 763 287 377 745 
302 9 603 520 606 23 108 441 500 177 570 
303 9 475 580 833 538 719 463 235 599 733 
304 9 333 790 167 178 191 309 314 557 334 
305 9 315 772 821 486 728 126 668 704 474 
306 9 411 396 852 849 46 350 116 213 461 
307 9 714 395 467 527 729 320 296 120 813 
308 9 425 660 322 581 689 519 50 217 387 
309 9 314 790 334 445 191 616 557 345 333 
310 9 124 747 793 466 573 675 681 455 2 
311 9 622 224 283 98 180 829 521 624 648 
312 9 99 545 405 239 860 55 413 460 797 
313 9 441 570 23 818 798 520 727 393 27 
314 9 309 790 334 616 445 345 191 333 744 
315 9 728 305 126 668 704 821 486 772 474 
316 9 176 611 107 575 684 471 662 300 658 
317 9 76 371 273 68 62 181 183 353 437 
318 9 300 754 684 81 718 278 719 176 316 
319 9 430 490 71 291 823 265 292 366 642 
320 9 527 307 404 222 714 395 467 729 813 
321 9 595 10 873 74 197 4 265 93 227 
322 9 308 581 425 660 689 387 50 631 41 
323 9 739 437 68 770 353 371 609 140 480 
324 9 658 13 471 91 662 138 176 107 611 
325 9 547 256 161 579 370 554 151 464 272 
326 9 25 657 341 736 114 543 667 182 650 
327 9 151 96 703 589 213 554 579 584 256 
328 9 615 751 844 166 745 287 613 763 857 
329 9 644 497 706 691 77 709 246 429 446 
330 9 86 254 194 861 491 742 610 514 275 
331 9 618 541 206 774 576 546 236 94 737 
332 9 671 202 33 759 542 40 826 529 127 
333 9 790 314 309 178 167 334 164 685 345 
334 9 616 345 314 621 744 309 445 697 361 
335 9 701 718 91 754 300 13 658 324 176 
336 9 444 553 743 374 391 448 711 637 495 
337 9 757 695 272 290 433 370 154 526 16 
338 9 663 360 171 87 593 626 237 702 234 
339 9 61 814 710 105 521 624 98 224 276 
340 9 841 148 160 734 482 18 233 532 839 
341 9 667 326 251 369 25 488 192 657 543 
342 9 394 22 496 509 39 674 517 698 607 
343 9 289 249 35 3 24 414 452 193 12 
344 9 870 421 673 48 44 71 440 731 110 
345 9 744 621 616 334 295 198 494 72 604 
346 9 408 199 740 266 385 694 472 259 608 
347 9 169 524 238 188 692 678 208 710 89 
348 9 417 711 534 743 242 448 651 847 637 
349 9 379 112 577 749 510 591 127 826 230 
350 9 46 411 459 213 396 703 407 306 849 
351 9 7 352 144 652 156 210 6 465 855 
352 9 73 6 250 144 351 777 7 564 210 
353 9 140 68 371 739 323 769 857 437 317 
354 9 681 157 793 675 310 124 775 550 135 
355 9 69 569 195 434 677 159 842 498 294 
356 9 383 696 778 82 240 562 853 137 229 
357 9 807 476 794 571 293 599 389 38 833 
358 9 628 154 433 57 175 282 5 128 512 
359 9 834 97 792 165 450 298 817 568 707 
360 9 663 171 338 87 626 593 237 702 234 
361 9 502 697 598 244 523 596 142 507 616 
362 9 614 253 158 536 800 27 177 393 606 
363 9 8 226 261 830 260 655 432 122 600 
364 9 274 537 680 427 228 723 811 162 607 
365 9 460 559 591 860 510 542 127 405 577 
366 9 823 292 84 792 642 298 97 185 688 
367 9 206 94 109 186 822 686 199 740 346 
368 9 149 768 478 508 258 75 133 12 452 
369 9 192 488 667 251 341 724 609 480 60 
370 9 272 547 464 337 695 212 783 154 325 
371 9 68 317 353 437 323 76 140 739 273 
372 9 432 163 182 600 28 655 231 386 650 
373 9 153 216 217 709 77 519 691 720 597 
374 9 444 495 336 130 531 670 553 236 774 
375 9 647 19 459 848 407 350 46 584 241 
376 7 750 473 299 70 799 225 129 
377 9 240 632 455 137 468 573 653 778 124 
378 9 143 164 56 472 170 685 58 412 178 
379 9 349 112 577 749 230 510 591 442 127 
380 9 212 761 400 111 695 16 370 337 672 
381 9 837 219 586 64 126 728 668 815 704 
382 9 738 257 431 128 422 57 392 175 612 
383 9 356 778 696 240 137 653 82 763 377 
384 9 271 748 479 827 457 565 26 767 88 
385 9 346 408 266 472 587 378 143 199 164 
386 9 122 655 432 372 288 276 600 231 163 
387 9 631 483 669 32 533 52 269 322 296 
388 9 803 862 735 158 131 766 362 828 241 
389 9 476 599 538 807 38 719 357 81 716 
390 9 162 811 110 440 427 224 723 274 311 
391 9 553 711 260 516 336 8 242 261 444 
392 9 422 128 431 175 282 738 382 627 583 
393 9 27 536 818 253 313 45 441 845 614 
394 9 342 511 674 496 509 517 698 22 549 
395 9 714 467 729 307 296 269 120 250 527 
396 9 306 411 116 350 46 852 849 676 461 
397 9 184 30 289 193 786 343 3 414 285 
398 8 588 808 218 654 439 465 504 819 
399 9 779 518 297 623 551 152 782 63 499 
400 9 380 212 761 528 325 108 695 547 370 
401 9 454 759 635 33 418 202 638 542 546 
402 9 715 211 713 801 456 221 419 412 149 
403 9 731 539 673 421 784 174 871 430 490 
404 9 805 320 493 222 409 527 307 780 416 
405 9 860 312 99 55 239 545 797 460 413 
406 9 523 507 596 193 142 397 561 184 289 
407 9 459 848 584 46 350 96 703 327 375 
408 9 346 740 199 266 694 259 472 608 385 
409 9 805 17 416 404 469 320 851 493 831 
410 9 248 446 246 424 173 429 497 706 789 
411 9 849 306 852 396 46 350 213 703 589 
412 9 170 402 801 56 259 715 58 472 713 
413 9 239 190 55 545 196 312 866 612 99 
414 9 3 24 552 249 285 289 343 255 35 
415 9 809 83 15 286 481 501 693 267 66 
416 9 409 805 851 17 404 469 493 812 320 
417 9 348 711 743 448 242 847 534 637 651 
418 9 219 454 837 586 381 64 704 542 33 
419 9 456 801 221 211 402 643 715 259 730 
420 9 65 135 485 550 80 868 838 310 354 
421 9 673 344 403 870 723 731 228 539 784 
422 9 431 392 738 382 257 612 627 128 175 
423 9 865 781 491 629 641 590 861 86 742 
424 9 173 789 246 138 429 446 248 410 91 
425 9 660 308 322 689 519 581 217 50 597 
426 9 620 447 656 659 207 840 95 156 594 
427 9 811 162 274 390 607 364 224 537 262 
428 9 839 340 841 532 525 148 160 863 233 
429 9 246 691 709 173 77 424 153 373 446 
430 9 490 319 731 265 71 197 48 291 44 
431 9 422 738 382 257 392 612 128 627 175 
432 9 372 600 655 182 386 163 122 28 363 
433 9 154 757 290 337 5 358 628 783 272 
434 9 569 49 26 842 355 677 88 827 457 
435 9 765 106 227 4 93 10 872 453 74 
436 8 582 245 172 121 724 625 712 505 
437 9 323 371 770 68 739 806 353 317 480 
438 9 645 384 271 565 748 146 686 186 661 
439 9 465 6 144 504 652 808 7 352 398 
440 9 110 390 162 283 648 311 344 224 811 
441 9 23 313 520 570 818 302 727 798 393 
442 9 209 230 112 795 379 749 349 268 577 
443 9 220 223 180 231 859 105 829 521 622 
444 9 336 374 553 391 495 743 448 130 711 
445 9 557 244 697 191 309 334 616 314 361 
446 9 248 410 246 424 173 429 497 691 706 
447 9 620 656 426 31 594 651 156 654 659 
448 9 637 743 755 417 348 639 646 711 722 
449 9 562 84 291 568 366 752 82 44 71 
450 9 165 760 817 834 359 568 683 97 752 
451 9 812 851 42 469 416 409 17 805 404 
452 9 35 12 75 249 133 343 478 768 24 
453 9 872 29 79 106 688 298 227 435 707 
454 9 418 586 837 704 219 401 567 381 728 
455 9 573 466 747 124 675 793 377 310 632 
456 9 221 211 419 402 715 149 801 713 203 
457 9 159 827 26 195 49 434 88 355 569 
458 9 89 102 141 288 678 188 276 122 386 
459 9 407 350 46 848 375 584 647 703 96 
460 9 860 405 99 312 365 559 545 55 239 
461 9 690 277 116 470 676 306 563 396 852 
462 9 166 85 613 328 92 115 575 107 611 
463 9 235 640 682 833 9 475 733 303 817 
464 9 783 272 5 370 547 161 282 175 154 
465 9 439 144 6 652 7 504 808 352 654 
466 9 573 747 124 455 675 793 310 681 2 
467 9 729 714 395 120 307 564 250 777 73 
468 9 796 301 137 632 653 763 377 745 240 
469 9 17 409 851 812 805 416 42 831 404 
470 9 690 461 116 676 277 630 563 268 396 
471 9 662 324 658 107 176 611 13 316 91 
472 9 170 378 412 259 694 266 56 801 143 
473 9 299 225 376 646 129 750 819 70 639 
474 9 37 526 668 815 290 126 315 305 821 
475 9 580 303 833 463 733 538 235 115 9 
476 9 807 357 599 389 571 38 794 293 538 
477 9 634 836 201 602 481 51 548 741 804 
478 9 768 508 12 452 368 75 35 133 258 
479 9 748 767 515 88 827 26 271 49 384 
480 8 770 806 609 323 739 437 724 192 
481 9 83 602 415 693 477 809 634 15 286 
482 9 160 18 148 233 786 30 184 340 281 
483 9 32 269 631 52 533 210 387 296 855 
484 9 204 20 873 595 846 321 871 10 592 
485 9 65 838 420 868 90 556 80 119 650 
486 9 567 305 772 315 704 728 821 126 668 
487 9 788 506 863 525 233 136 619 148 160 
488 9 192 251 60 369 667 119 609 90 34 
489 7 700 47 279 787 750 187 504 
490 9 430 319 265 197 731 71 871 74 291 
491 9 861 629 86 590 641 330 514 780 742 
492 9 183 753 53 273 62 76 317 181 216 
493 9 222 641 404 590 780 629 320 861 527 
494 9 604 142 295 198 14 835 72 561 596 
495 9 130 531 558 513 722 374 670 78 150 
496 9 509 262 342 607 394 22 39 537 511 
497 9 329 644 706 691 77 709 246 429 446 
498 9 179 773 69 281 687 802 294 255 677 
499 9 782 566 129 70 639 623 150 473 755 
500 9 665 617 858 520 603 23 570 302 727 
501 9 286 93 435 765 66 106 117 415 227 
502 9 598 361 244 697 619 507 523 406 596 
503 9 270 867 304 587 264 762 791 737 167 
504 9 439 808 6 465 144 652 7 398 352 
505 8 597 519 217 806 724 480 770 436 
506 9 788 136 487 619 205 820 139 863 507 
507 9 523 406 596 193 502 598 397 619 142 
508 9 768 478 258 368 14 452 572 12 75 
509 9 496 262 342 607 394 22 39 511 537 
510 9 591 127 577 40 826 349 749 529 365 
511 9 208 856 549 214 394 633 509 342 496 
512 9 101 57 64 168 358 815 832 628 381 
513 9 558 130 531 722 152 495 78 150 670 
514 9 279 610 780 86 585 187 813 861 330 
515 9 767 88 479 26 827 49 748 434 569 
516 9 261 830 226 705 816 664 843 114 8 
517 9 674 215 698 717 672 821 772 111 342 
518 9 297 623 399 779 63 782 864 499 551 
519 8 217 597 505 660 373 425 308 153 
520 9 23 441 302 570 313 500 603 606 727 
521 9 624 98 814 105 224 311 339 220 443 
522 9 752 21 683 82 568 229 696 450 85 
523 9 507 406 596 142 193 502 598 361 397 
524 9 347 169 188 208 238 710 511 678 856 
525 9 863 233 148 160 487 340 482 428 839 
526 9 290 37 757 474 337 16 433 717 672 
527 9 307 813 320 714 729 222 467 585 395 
528 9 11 666 108 400 96 603 327 584 151 
529 9 826 40 284 127 671 510 263 591 332 
530 9 762 781 865 742 194 423 145 275 330 
531 9 722 130 513 150 495 558 637 448 639 
532 9 841 842 734 839 340 569 434 677 49 
533 9 52 679 483 631 32 210 387 840 156 
534 9 819 225 646 299 588 651 348 218 398 
535 9 741 20 204 155 846 45 484 845 693 
536 9 27 253 393 800 45 614 804 818 845 
537 9 274 364 607 39 427 680 22 811 262 
538 9 719 303 389 475 833 81 580 684 599 
539 9 174 784 403 871 731 592 758 123 252 
540 9 730 869 824 643 43 555 134 699 100 
541 9 331 618 236 692 238 774 169 546 576 
542 9 202 33 671 759 332 365 40 418 127 
543 9 843 664 785 114 825 326 341 736 25 
544 9 189 67 799 764 787 254 147 70 275 
545 9 99 239 312 413 55 405 190 860 797 
546 9 635 638 401 541 692 633 454 214 759 
547 9 325 370 256 464 161 272 579 783 554 
548 9 201 51 836 234 477 702 634 602 481 
549 9 214 633 511 856 208 567 394 486 772 
550 9 135 80 420 859 65 354 231 829 180 
551 9 152 78 779 399 513 558 670 130 518 
552 9 24 414 3 249 285 133 75 255 12 
553 9 336 391 711 743 444 417 448 348 242 
554 9 579 589 256 161 213 151 703 327 325 
555 9 699 43 100 661 195 565 540 159 578 
556 9 90 838 868 34 2 119 60 485 756 
557 9 445 191 243 309 244 697 314 334 361 
558 9 513 130 531 495 78 152 670 722 150 
559 9 64 168 860 460 101 405 365 797 512 
560 9 203 134 601 294 574 578 687 179 221 
561 9 193 35 452 478 596 343 508 14 142 
562 9 449 84 291 82 568 752 44 71 366 
563 9 866 268 277 190 690 461 196 413 470 
564 9 777 73 250 120 352 855 700 6 47 
565 9 661 555 699 146 457 100 159 195 43 
566 9 499 639 129 782 150 755 473 70 646 
567 9 486 704 772 305 315 728 821 126 668 
568 9 752 522 165 450 683 359 449 21 82 
569 9 434 49 842 355 26 677 88 827 532 
570 9 313 23 727 441 798 520 59 818 500 
571 9 293 794 357 807 599 476 235 640 833 
572 9 776 835 14 258 72 508 604 198 768 
573 9 466 747 124 455 675 793 310 681 377 
574 9 601 687 802 560 203 179 133 294 75 
575 9 611 107 316 580 462 475 684 176 303 
576 9 670 774 78 130 495 558 152 374 513 
577 9 749 510 591 349 112 379 127 365 40 
578 9 134 294 560 43 203 69 100 601 687 
579 9 554 256 589 161 213 151 325 703 327 
580 9 475 303 833 575 733 538 115 463 719 
581 9 322 41 308 625 387 631 712 425 660 
582 9 245 121 172 436 625 712 41 724 825 
583 9 627 392 161 422 431 464 128 175 282 
584 9 96 848 407 666 11 327 459 151 703 
585 9 187 813 47 279 527 120 700 780 729 
586 9 837 381 219 704 126 728 668 315 418 
587 9 385 737 270 867 346 167 178 143 408 
588 7 398 819 808 218 654 504 534 
589 9 213 554 579 703 151 327 256 849 161 
590 9 641 629 861 491 86 780 493 514 222 
591 9 510 127 577 40 826 749 365 349 671 
592 9 758 708 252 123 174 846 118 155 484 
593 9 626 725 746 171 234 702 360 338 663 
594 9 656 847 113 447 242 426 620 651 31 
595 9 10 873 321 93 765 204 227 484 74 
596 9 142 406 523 507 561 494 193 361 604 
597 8 505 519 217 806 724 373 720 770 
598 9 502 244 361 697 619 507 523 136 406 
599 9 807 293 476 571 357 389 794 833 235 
600 9 182 432 372 736 25 28 650 163 657 
601 9 574 560 203 687 294 134 802 179 221 
602 9 481 83 477 634 693 741 415 201 836 
603 9 302 108 500 520 606 23 617 528 441 
604 9 494 835 295 14 198 72 776 572 142 
605 9 636 669 50 831 296 395 269 387 714 
606 9 177 302 520 441 232 23 603 313 362 
607 9 262 537 496 427 274 509 364 39 811 
608 9 824 869 643 730 540 694 419 740 259 
609 9 480 739 770 192 323 488 806 60 437 
610 9 514 787 189 279 254 330 489 544 799 
611 9 107 575 316 662 471 176 462 92 613 
612 9 257 431 422 738 382 196 55 413 797 
613 9 92 166 53 328 462 753 181 844 62 
614 9 253 362 800 536 27 393 804 828 158 
615 9 745 751 287 328 844 763 796 301 468 
616 9 334 621 345 744 361 697 142 314 244 
617 9 54 665 810 36 104 500 280 858 603 
618 9 331 541 774 576 236 737 206 670 78 
619 9 136 598 502 205 506 507 523 244 361 
620 9 447 426 656 31 156 594 651 659 207 
621 9 345 744 616 295 494 198 142 334 604 
622 9 829 180 311 223 859 283 648 157 220 
623 9 518 782 399 779 297 499 63 129 70 
624 9 98 521 814 105 224 311 339 220 180 
625 9 712 41 121 582 245 172 436 581 132 
626 9 593 725 234 702 746 171 548 237 51 
627 9 583 392 422 431 738 612 128 382 196 
628 9 175 358 282 128 5 154 783 433 57 
629 9 861 590 491 641 86 780 330 514 493 
630 9 676 116 470 396 461 690 306 411 277 
631 9 387 483 533 52 32 269 679 669 296 
632 9 301 468 796 137 377 653 240 455 763 
633 9 214 549 856 208 511 638 567 486 394 
634 9 477 602 836 741 201 804 481 535 83 
635 9 546 401 638 454 633 692 214 759 33 
636 9 605 831 50 669 689 296 387 395 269 
637 9 448 743 755 639 646 150 722 417 348 
638 9 633 214 692 856 549 635 208 401 511 
639 9 755 646 566 150 637 299 473 225 448 
640 9 235 463 682 9 833 293 571 707 817 
641 9 590 629 861 491 86 493 780 222 514 
642 9 185 292 688 823 74 4 298 366 872 
643 9 869 730 824 540 419 608 456 221 801 
644 9 329 497 706 691 77 709 246 429 446 
645 9 438 686 186 384 146 271 565 850 661 
646 9 225 299 755 639 473 534 819 637 448 
647 9 375 19 459 407 848 350 46 584 396 
648 9 283 247 775 157 622 311 440 853 829 
649 9 237 809 702 15 234 415 481 83 267 
650 9 28 182 657 163 80 600 25 372 231 
651 9 31 447 218 654 656 620 534 594 426 
652 9 7 144 465 439 6 351 654 218 352 
653 9 137 796 468 301 763 632 240 377 778 
654 9 218 31 652 398 7 465 144 439 651 
655 9 122 386 432 372 363 600 288 182 8 
656 9 447 594 620 426 31 847 651 113 659 
657 9 650 25 182 326 28 600 163 485 736 
658 9 324 13 91 471 662 176 138 300 107 
659 9 95 207 840 426 132 620 656 113 447 
660 9 425 308 322 519 689 217 581 597 50 
661 9 555 146 565 699 850 43 100 540 195 
662 9 471 107 324 611 658 176 13 316 138 
663 9 338 360 171 87 593 626 237 702 234 
664 9 114 843 543 736 830 226 516 261 25 
665 9 858 500 617 59 54 727 810 570 798 
666 9 11 584 96 528 232 848 327 151 177 
667 9 251 341 488 369 192 119 60 326 90 
668 9 126 315 728 474 305 815 704 821 381 
669 9 605 636 50 387 296 631 269 483 32 
670 9 78 576 130 558 495 513 152 531 774 
671 9 40 332 127 542 826 202 529 510 33 
672 9 717 16 37 111 215 526 695 290 757 
673 9 421 403 344 870 731 723 228 539 430 
674 9 517 698 215 342 821 717 772 672 22 
675 9 124 793 573 466 681 747 455 310 377 
676 9 630 116 470 461 396 690 306 277 411 
677 9 842 734 355 281 498 569 69 434 18 
678 9 188 89 458 102 710 141 276 288 61 
679 9 533 52 840 207 156 95 631 483 659 
680 9 228 723 364 274 390 162 421 537 811 
681 9 793 675 124 310 573 747 466 455 354 
682 9 9 640 235 463 817 707 760 79 29 
683 9 522 21 85 752 450 568 165 229 82 
684 9 719 81 316 318 538 176 575 300 303 
685 9 56 164 58 143 378 170 412 744 178 
686 9 186 645 438 109 850 146 822 565 661 
687 9 179 802 574 601 294 773 498 560 203 
688 9 185 642 292 298 872 4 823 74 453 
689 9 50 322 425 308 831 660 636 669 605 
690 9 461 277 470 116 563 676 866 306 852 
691 9 77 709 429 246 373 153 497 644 329 
692 9 238 169 347 638 524 856 208 633 214 
693 9 83 481 501 602 415 93 286 535 741 
694 9 259 266 801 472 170 419 412 608 402 
695 9 337 212 370 757 16 272 290 380 526 
696 9 229 82 383 21 356 763 522 752 137 
697 9 244 361 502 598 445 616 619 334 523 
698 9 517 674 215 821 772 717 305 672 486 
699 9 555 100 43 195 159 661 565 578 540 
700 9 47 777 120 564 504 187 489 73 6 
701 9 335 91 718 754 300 13 658 324 176 
702 9 234 237 649 548 626 201 51 171 836 
703 9 213 589 151 327 554 46 579 350 849 
704 9 728 126 315 486 586 668 305 567 837 
705 9 816 113 516 843 785 242 664 847 132 
706 9 329 644 497 691 77 446 246 709 248 
707 9 79 29 97 834 817 298 453 359 792 
708 9 758 592 118 252 846 123 845 155 174 
709 9 77 691 373 429 153 217 246 519 497 
710 9 61 339 678 188 276 262 814 458 89 
711 9 417 348 242 743 553 847 391 448 594 
712 9 625 121 41 245 172 582 132 825 95 
713 9 715 211 149 258 402 572 368 221 776 
714 9 395 307 467 729 296 527 120 250 269 
715 9 713 402 211 149 221 456 258 368 572 
716 9 81 278 38 389 726 719 200 538 476 
717 9 672 16 37 215 111 526 290 474 821 
718 9 754 300 701 318 335 91 176 13 658 
719 9 538 81 684 303 389 475 580 716 833 
720 9 216 183 273 317 437 371 76 153 68 
721 9 379 230 349 112 442 263 209 577 749 
722 9 531 150 513 130 495 558 637 639 448 
723 9 228 680 421 673 364 390 110 162 274 
724 8 436 480 806 369 505 770 609 192 
725 9 746 626 766 593 131 51 548 201 836 
726 9 200 278 716 38 81 318 389 476 719 
727 9 798 59 570 313 858 23 665 818 123 
728 9 126 315 668 704 305 486 586 821 474 
729 9 467 714 395 120 307 564 250 777 527 
730 9 540 869 643 824 134 43 203 560 419 
731 9 403 430 490 673 539 265 871 421 197 
732 9 103 771 280 36 104 761 54 111 810 
733 9 115 9 760 817 463 475 85 450 580 
734 9 841 18 340 677 842 281 160 148 482 
735 9 131 828 388 803 862 158 614 800 766 
736 9 114 25 600 664 326 830 226 182 657 
737 9 587 270 867 297 399 551 779 791 518 
738 9 382 431 257 422 128 392 57 612 175 
739 9 323 353 68 437 609 770 140 371 480 
740 9 199 408 346 266 608 694 822 259 109 
741 9 535 20 45 204 155 634 693 846 602 
742 9 194 330 275 254 86 491 145 861 865 
743 9 448 637 417 711 348 336 553 755 646 
744 9 345 621 295 198 616 334 72 494 604 
745 9 287 615 301 468 796 751 763 653 844 
746 9 725 766 131 626 593 51 548 201 836 
747 9 466 573 124 455 675 793 310 681 2 
748 9 479 271 384 767 827 515 88 26 457 
749 9 577 112 349 591 510 379 460 795 99 
750 7 376 787 799 489 473 70 588 
751 9 844 615 857 328 745 287 181 140 854 
752 9 522 568 82 21 683 229 449 450 562 
753 9 53 492 62 183 273 181 76 317 92 
754 9 300 718 318 701 176 91 335 13 658 
755 9 639 646 637 299 150 448 566 225 473 
756 9 769 854 34 60 140 2 119 556 353 
757 9 290 337 526 433 154 695 272 37 16 
758 9 252 592 708 123 118 174 846 845 155 
759 9 33 202 332 542 671 418 401 40 454 
760 9 817 165 450 9 834 733 359 115 682 
761 9 380 111 732 212 400 103 280 771 16 
762 9 530 791 864 145 742 781 867 63 194 
763 9 653 137 796 468 301 632 745 615 240 
764 9 147 544 67 275 145 189 254 799 194 
765 9 435 227 106 93 4 10 872 74 453 
766 9 746 131 725 735 803 388 828 51 548 
767 9 88 515 479 26 827 49 748 434 457 
768 9 478 508 368 12 452 258 75 133 35 
769 9 854 756 140 353 287 34 739 857 745 
770 8 806 480 323 437 609 739 68 371 
771 9 103 732 280 104 36 54 810 761 39 
772 9 821 305 486 315 698 567 728 668 126 
773 9 179 802 498 255 281 285 552 687 414 
774 9 576 236 670 374 495 78 130 558 444 
775 9 157 247 354 648 853 283 778 681 356 
776 9 572 835 14 72 258 604 198 295 508 
777 9 564 73 250 120 352 700 6 47 855 
778 9 240 383 377 137 653 356 632 455 468 
779 9 399 518 623 551 297 152 782 499 513 
780 9 222 813 585 514 590 527 641 493 187 
781 9 865 423 530 742 491 629 86 861 330 
782 9 499 129 566 623 70 639 67 150 518 
783 9 5 282 175 464 154 128 272 628 433 
784 9 539 174 403 123 758 252 592 731 871 
785 9 825 543 843 664 816 705 132 114 121 
786 9 30 184 255 285 397 18 482 3 289 
787 8 610 799 189 489 750 544 67 279 
788 9 506 487 136 619 820 863 205 139 525 
789 9 173 424 138 246 429 324 13 91 153 
790 9 333 314 309 334 345 616 191 744 445 
791 9 864 63 762 297 867 145 518 147 399 
792 9 97 298 359 834 292 366 688 823 642 
793 9 675 124 681 573 747 310 466 455 377 
794 9 571 293 357 807 599 476 267 640 235 
795 9 268 190 545 563 99 209 312 866 239 
796 9 468 301 653 137 632 763 377 745 287 
797 9 832 55 168 257 405 239 612 57 860 
798 9 727 59 570 313 818 123 252 23 441 
799 9 67 544 787 189 70 750 376 129 764 
800 9 804 536 253 614 828 27 45 393 362 
801 9 259 419 402 412 456 211 694 715 170 
802 9 687 179 773 552 574 133 24 75 498 
803 9 388 862 735 766 131 158 828 241 362 
804 9 800 45 536 634 828 253 741 477 27 
805 9 409 404 17 416 320 493 469 222 307 
806 8 770 480 437 323 609 724 739 505 
807 9 357 476 599 571 293 794 389 38 833 
808 9 504 439 398 465 6 144 588 652 218 
809 9 15 415 267 286 83 66 481 649 117 
810 9 54 104 36 617 280 665 103 771 858 
811 9 162 390 427 224 110 274 440 364 98 
812 9 451 851 42 469 17 416 409 805 404 
813 9 585 187 527 780 222 279 47 729 120 
814 9 521 624 98 105 224 339 311 61 220 
815 9 474 668 126 290 512 526 728 315 381 
816 9 705 113 843 516 785 242 664 847 132 
817 9 760 165 450 9 834 707 359 682 97 
818 9 313 393 798 27 570 118 123 845 252 
819 9 534 225 588 299 398 646 218 473 651 
820 9 125 139 205 788 506 136 619 487 243 
821 9 772 305 315 486 698 668 37 474 728 
822 9 109 850 146 608 740 824 869 661 199 
823 9 292 366 642 185 688 298 792 74 84 
824 9 869 540 730 643 608 555 419 43 661 
825 9 785 121 172 543 132 245 843 712 582 
826 9 529 40 127 510 671 591 284 332 577 
827 9 26 88 457 767 479 49 515 748 434 
828 9 800 804 735 131 51 614 836 253 634 
829 9 180 622 859 223 220 311 550 443 135 
830 9 226 261 516 114 664 736 363 8 843 
831 9 636 50 605 689 669 322 387 17 296 
832 9 168 797 57 257 382 738 55 612 431 
833 9 463 303 235 475 640 599 580 538 293 
834 9 359 97 165 792 450 817 298 707 760 
835 9 776 14 72 572 604 198 295 258 494 
836 9 201 51 477 548 634 602 481 804 828 
837 9 586 381 219 704 126 728 668 418 64 
838 9 868 90 556 119 485 2 34 65 60 
839 9 428 532 841 340 148 160 525 734 842 
840 9 207 95 659 679 426 132 533 620 52 
841 9 340 734 160 148 532 842 18 677 839 
842 9 677 569 734 434 532 841 355 49 281 
843 9 543 664 785 114 816 705 516 825 830 
844 9 751 615 857 328 745 287 181 140 854 
845 9 118 155 846 708 45 758 252 592 818 
846 9 155 118 708 845 592 484 20 758 204 
847 9 594 242 113 656 447 651 426 348 620 
848 9 407 584 459 375 666 96 241 647 19 
849 9 411 852 213 306 589 703 46 554 350 
850 9 146 661 822 109 565 555 824 869 540 
851 9 416 812 451 469 409 17 805 42 404 
852 9 849 306 411 396 213 627 583 589 46 
853 9 247 44 48 775 356 562 648 71 157 
854 9 769 756 140 287 353 745 34 857 739 
855 9 210 250 269 32 73 352 351 564 296 
856 9 208 214 633 511 549 638 394 524 692 
857 9 181 844 751 140 76 353 62 68 317 
858 9 665 59 500 727 617 810 798 54 570 
859 9 223 180 829 550 622 220 135 231 443 
860 9 405 460 312 99 55 545 797 239 559 
861 9 86 629 491 590 641 330 514 780 610 
862 9 388 803 158 735 241 232 362 19 614 
863 9 525 487 233 148 160 428 340 788 482 
864 9 63 145 147 764 297 518 275 623 791 
865 9 423 781 742 491 629 86 530 861 330 
866 9 190 196 563 277 413 239 545 268 612 
867 9 270 791 762 737 864 63 297 518 530 
868 9 838 556 90 2 65 485 34 119 310 
869 9 824 540 643 730 608 419 555 43 134 
870 9 344 48 44 673 421 71 731 430 403 
871 9 265 197 174 539 484 490 731 321 592 
872 9 453 106 688 227 4 435 298 185 765 
873 9 595 10 321 484 204 93 20 197 765 
DEPOT_SECTION
   1
   -1
EOF
