NAME :  X-n856-kX-w85-c9.cctp
COMMENT : 	Adapted by Maziero, Usberti and Cavellucci from the Uchoa, Pecin, Pessoa, Poggi, Subramanian, and Vidal (2013)
TYPE :  CCTP
DIMENSION :    414
EDGE_WEIGHT_TYPE : 	EUC_2D	
CAPACITY : 	9
VERTICES_WITHIN_COVERAGE :  9
VERTICES_WITH_DEMAND : 	85
NODE_COORD_SECTION
1 500 500
2 440 732
3 221 348
4 117 545
5 493 645
6 135 12
7 775 997
8 745 444
9 950 311
10 530 150
11 900 508
12 48 519
13 269 217
14 722 349
15 480 733
16 977 422
17 999 220
18 636 332
19 851 162
20 559 567
21 389 69
22 529 835
23 303 427
24 400 638
25 894 904
26 482 109
27 579 800
28 184 82
29 669 753
30 906 424
31 374 692
32 174 613
33 75 37
34 38 563
35 838 157
36 710 709
37 176 67
38 449 326
39 71 389
40 710 115
41 237 547
42 530 27
43 631 223
44 171 342
45 226 65
46 6 998
47 24 635
48 668 165
49 318 608
50 429 82
51 212 237
52 853 126
53 387 47
54 677 144
55 111 790
56 957 32
57 511 647
58 457 561
59 86 687
60 290 456
61 473 563
62 807 725
63 461 468
64 739 235
65 257 340
66 588 545
67 6 311
68 268 976
69 552 414
70 994 946
71 452 534
72 422 545
73 248 611
74 43 366
75 977 96
76 822 580
77 940 650
78 86 263
79 715 99
80 668 981
81 424 638
82 297 607
83 251 282
84 237 413
85 202 573
86 181 385
87 126 528
88 978 846
89 333 357
90 157 734
91 627 268
92 978 59
93 42 595
94 870 933
95 165 679
96 319 417
97 187 376
98 251 482
99 657 219
100 209 397
101 566 559
102 490 156
103 216 547
104 964 677
105 938 222
106 543 747
107 569 59
108 616 306
109 604 995
110 1000 653
111 778 101
112 462 74
113 87 682
114 608 430
115 511 313
116 710 300
117 630 24
118 531 719
119 598 824
120 995 622
121 258 981
122 279 169
123 286 268
124 259 659
125 782 132
126 457 603
127 210 438
128 44 44
129 527 818
130 39 282
131 323 340
132 333 488
133 517 137
134 122 280
135 159 655
136 446 283
137 107 315
138 588 270
139 158 374
140 26 353
141 959 76
142 437 138
143 922 499
144 970 664
145 8 561
146 989 908
147 10 960
148 842 190
149 286 965
150 199 373
151 159 67
152 979 25
153 488 479
154 804 620
155 528 160
156 223 342
157 503 159
158 711 681
159 339 340
160 342 509
161 766 953
162 710 172
163 521 451
164 639 155
165 269 241
166 825 761
167 901 124
168 692 19
169 949 178
170 79 795
171 833 852
172 336 444
173 877 0
174 296 597
175 940 377
176 939 827
177 908 120
178 50 741
179 753 744
180 577 351
181 141 616
182 97 625
183 496 160
184 515 598
185 274 510
186 291 170
187 74 609
188 395 290
189 525 743
190 260 385
191 1 346
192 231 504
193 837 572
194 606 473
195 477 169
196 383 59
197 510 410
198 890 101
199 952 635
200 825 722
201 68 598
202 172 367
203 84 19
204 694 916
205 454 412
206 261 233
207 693 375
208 588 854
209 276 538
210 599 569
211 739 325
212 845 639
213 638 182
214 858 93
215 37 599
216 638 39
217 568 674
218 439 570
219 587 278
220 992 674
221 597 608
222 65 330
223 620 129
224 339 681
225 178 811
226 469 749
227 475 791
228 799 594
229 692 130
230 59 223
231 5 946
232 219 305
233 759 951
234 582 18
235 899 286
236 512 358
237 220 951
238 503 801
239 483 402
240 483 722
241 13 301
242 607 709
243 857 739
244 51 422
245 818 797
246 302 646
247 474 101
248 817 66
249 948 686
250 153 503
251 47 817
252 740 970
253 920 879
254 268 373
255 894 60
256 539 352
257 605 457
258 563 524
259 861 875
260 700 810
261 160 753
262 985 455
263 981 276
264 708 646
265 575 249
266 777 725
267 853 773
268 743 430
269 301 574
270 38 983
271 575 209
272 10 683
273 745 333
274 616 311
275 537 110
276 531 647
277 157 736
278 609 356
279 534 11
280 436 279
281 340 578
282 41 809
283 971 282
284 389 628
285 633 578
286 219 471
287 619 737
288 700 50
289 722 223
290 112 450
291 857 66
292 81 295
293 314 964
294 829 981
295 645 700
296 277 268
297 459 81
298 573 211
299 368 81
300 262 451
301 629 44
302 842 703
303 780 254
304 653 177
305 763 432
306 615 183
307 629 543
308 822 574
309 355 86
310 519 683
311 111 12
312 957 366
313 265 184
314 985 701
315 22 32
316 551 214
317 422 750
318 196 122
319 199 182
320 960 334
321 421 756
322 732 438
323 286 3
324 19 558
325 921 499
326 876 405
327 786 558
328 467 684
329 625 441
330 935 443
331 95 48
332 137 252
333 769 375
334 925 421
335 117 30
336 119 18
337 134 297
338 614 521
339 887 325
340 772 461
341 916 509
342 983 447
343 96 17
344 671 926
345 93 287
346 795 581
347 119 223
348 80 58
349 123 266
350 683 363
351 187 62
352 918 677
353 909 427
354 937 395
355 647 389
356 705 454
357 154 38
358 702 637
359 112 263
360 908 625
361 422 744
362 168 96
363 278 215
364 854 616
365 826 582
366 204 336
367 724 356
368 131 31
369 318 200
370 245 352
371 220 93
372 208 26
373 903 248
374 180 59
375 199 69
376 978 705
377 754 759
378 854 615
379 315 718
380 262 65
381 533 687
382 140 44
383 575 779
384 893 487
385 73 13
386 474 772
387 684 471
388 953 616
389 967 425
390 82 60
391 497 721
392 926 500
393 529 867
394 274 236
395 813 702
396 210 304
397 905 380
398 831 580
399 399 106
400 139 43
401 170 77
402 959 379
403 982 463
404 769 970
405 341 453
406 884 435
407 745 448
408 118 13
409 695 341
410 25 18
411 912 446
412 568 430
413 821 687
414 411 722
DEMAND_SECTION
2 1
3 1
4 1
5 1
6 1
7 1
8 1
9 1
10 1
11 1
12 1
13 1
14 1
15 1
16 1
17 1
18 1
19 1
20 1
21 1
22 1
23 1
24 1
25 1
26 1
27 1
28 1
29 1
30 1
31 1
32 1
33 1
34 1
35 1
36 1
37 1
38 1
39 1
40 1
41 1
42 1
43 1
44 1
45 1
46 1
47 1
48 1
49 1
50 1
51 1
52 1
53 1
54 1
55 1
56 1
57 1
58 1
59 1
60 1
61 1
62 1
63 1
64 1
65 1
66 1
67 1
68 1
69 1
70 1
71 1
72 1
73 1
74 1
75 1
76 1
77 1
78 1
79 1
80 1
81 1
82 1
83 1
84 1
85 1
86 1
COVERAGE_SECTION
2 9 361 317 321 414 226 15 240 386 328 
3 9 156 366 370 150 65 232 97 396 44 
4 9 87 250 201 12 181 187 34 182 32 
5 9 57 276 310 328 184 126 381 81 391 
6 8 336 408 368 311 335 400 357 382 
7 8 404 252 161 233 294 80 94 204 
8 6 407 268 322 305 340 356 
9 8 320 283 263 312 235 339 175 402 
10 9 155 133 157 183 102 275 195 26 316 
11 5 341 384 325 143 392 
12 9 34 324 145 4 93 87 201 215 187 
13 9 363 206 394 165 313 122 186 296 369 
14 8 367 273 409 211 207 350 116 333 
15 9 240 226 391 386 2 189 328 118 227 
16 7 389 342 262 403 330 402 354 
17 9 263 105 169 283 373 9 235 320 75 
18 9 274 108 278 350 355 409 180 91 207 
19 9 35 148 52 167 214 177 198 125 111 
20 9 101 66 210 258 184 221 338 307 285 
21 8 196 53 299 309 399 50 297 112 
22 3 129 393 238 
23 9 96 60 172 405 300 190 254 84 132 
24 9 284 81 31 126 224 218 328 281 414 
25 9 253 94 259 171 176 146 294 88 70 
26 9 247 297 112 133 102 183 142 157 275 
27 8 383 119 129 208 22 106 287 238 
28 8 401 37 351 375 362 374 151 371 
29 7 287 295 36 260 242 158 179 
30 6 353 334 411 406 330 326 
31 9 224 414 24 379 284 361 81 317 2 
32 9 181 135 85 95 73 103 182 4 41 
33 7 203 348 331 385 390 343 128 
34 9 324 145 93 215 12 201 187 47 4 
35 9 19 148 52 125 214 167 198 177 111 
36 8 158 179 29 264 295 377 266 358 
37 8 374 351 401 28 151 375 362 357 
38 7 136 280 115 188 236 239 205 
39 9 74 244 140 222 290 137 191 139 292 
40 9 79 229 54 162 48 288 111 125 164 
41 9 103 209 192 85 185 73 98 269 174 
42 9 279 107 234 112 275 297 247 26 117 
43 9 99 213 306 91 304 271 298 265 138 
44 9 202 366 139 97 150 86 3 156 396 
45 8 375 371 380 351 372 28 374 37 
46 3 270 147 231 
47 9 215 93 272 187 201 34 182 145 324 
48 9 304 54 164 213 229 162 99 306 223 
49 9 82 174 281 269 246 73 284 224 124 
50 9 297 112 399 21 247 196 53 142 26 
51 9 206 165 319 13 83 394 396 232 363 
52 9 214 35 19 198 167 177 291 148 248 
53 8 196 21 299 309 50 399 112 297 
54 9 229 48 164 304 162 40 213 79 223 
55 7 170 261 251 225 277 90 282 
56 9 152 92 141 75 255 173 198 177 291 
57 9 5 276 310 381 184 328 217 126 118 
58 9 61 218 71 72 126 184 81 153 5 
59 9 113 182 178 272 95 187 135 47 90 
60 9 300 23 98 172 96 405 132 185 84 
61 9 58 218 71 126 72 184 5 153 20 
62 9 200 395 266 166 413 302 243 179 377 
63 9 153 205 163 71 239 197 72 58 61 
64 7 289 303 162 116 99 211 273 
65 9 370 156 254 3 190 232 366 83 396 
66 9 101 210 258 338 20 307 285 221 194 
67 7 241 191 130 140 222 74 292 
68 4 121 149 293 237 
69 9 412 197 163 114 256 180 257 236 239 
70 9 146 253 88 25 94 176 259 294 171 
71 9 58 72 61 218 153 63 126 184 81 
72 9 218 71 58 61 126 63 160 281 284 
73 9 82 124 174 85 246 41 269 49 103 
74 9 140 39 222 191 244 67 241 292 137 
75 9 141 92 56 152 177 167 169 198 255 
76 7 365 308 398 193 228 346 327 
77 8 199 144 352 104 388 249 360 220 
78 8 345 359 292 349 134 230 130 332 
79 9 40 229 288 54 111 162 125 48 168 
80 4 344 109 204 252 
81 9 24 284 126 328 5 218 31 58 414 
82 9 174 49 269 246 73 281 124 209 41 
83 9 296 123 232 165 396 206 394 65 51 
84 9 100 190 127 300 254 150 286 97 370 
85 9 103 41 32 73 181 192 209 250 87 
86 9 97 202 150 139 100 44 3 366 127 
87 9 4 250 12 290 85 181 201 103 34 
88 7 176 146 253 70 25 259 94 
89 7 159 131 96 254 23 65 190 
90 4 277 261 95 55 
91 8 138 108 219 274 43 265 99 18 
92 9 141 56 152 75 255 177 198 167 173 
93 9 215 201 34 187 47 324 145 182 12 
94 9 25 259 294 253 171 161 404 233 7 
95 7 135 90 277 32 181 261 113 
96 9 23 172 405 60 89 300 190 254 132 
97 9 86 150 202 139 100 44 366 3 156 
98 9 192 300 286 185 60 127 209 41 84 
99 9 43 213 304 48 306 91 289 164 162 
100 9 150 86 97 84 127 202 3 190 139 
101 9 20 66 210 258 221 338 184 307 285 
102 9 183 157 195 133 155 10 26 142 247 
103 9 41 85 192 209 185 73 98 286 250 
104 9 144 249 220 376 314 77 110 199 352 
105 9 373 169 17 283 263 235 9 148 167 
106 6 189 118 383 391 381 27 
107 9 234 42 279 275 301 117 216 223 133 
108 8 274 18 91 219 138 278 180 265 
109 1 80 
110 9 220 120 144 104 314 199 376 77 388 
111 9 125 248 79 40 52 214 35 291 229 
112 9 297 247 50 26 142 399 21 53 196 
113 9 59 182 178 187 135 272 95 47 181 
114 9 329 257 412 194 355 69 278 180 387 
115 8 236 256 38 136 180 280 219 138 
116 9 211 409 273 14 367 350 64 207 289 
117 9 216 301 234 168 107 288 279 42 223 
118 7 189 106 381 391 310 240 15 
119 6 27 208 383 22 129 393 
120 7 110 388 199 144 220 77 104 
121 4 68 149 237 293 
122 5 186 313 363 13 369 
123 7 296 165 394 83 206 13 363 
124 6 246 73 82 174 49 379 
125 9 111 35 52 40 19 79 248 162 148 
126 9 218 58 61 81 5 184 24 72 71 
127 9 286 84 100 300 86 98 97 150 192 
128 5 315 33 410 348 390 
129 5 22 238 393 27 227 
130 7 241 67 292 78 345 222 230 
131 6 159 89 254 65 96 190 
132 9 160 405 172 60 185 23 96 209 300 
133 9 10 155 157 183 102 275 26 195 247 
134 9 349 359 337 345 332 137 78 292 347 
135 8 95 181 32 182 113 90 59 277 
136 4 280 38 188 115 
137 9 345 337 292 134 222 349 359 78 44 
138 8 219 265 91 108 274 298 271 43 
139 9 202 86 97 44 150 100 366 3 156 
140 9 74 191 222 67 241 39 130 244 292 
141 9 92 75 56 152 177 255 198 167 169 
142 8 399 195 247 26 102 50 297 183 
143 4 325 392 341 11 
144 9 104 220 249 110 77 199 314 376 120 
145 9 324 34 93 215 12 201 47 187 4 
146 8 70 88 253 25 176 94 259 171 
147 3 231 270 46 
148 8 19 35 52 125 373 167 303 177 
149 3 68 293 121 
150 9 97 86 100 202 3 366 156 139 44 
151 8 401 37 374 351 28 357 362 382 
152 9 56 92 141 75 255 173 198 177 167 
153 9 63 163 71 197 205 239 61 258 58 
154 9 228 346 76 365 212 398 308 364 378 
155 9 10 133 157 183 102 275 195 316 271 
156 9 3 366 370 65 232 150 396 97 44 
157 9 183 102 155 133 10 195 26 275 247 
158 6 36 264 358 295 179 266 
159 6 131 89 188 254 96 65 
160 9 132 405 172 185 281 209 60 269 72 
161 7 233 404 252 7 294 204 344 
162 9 48 54 229 289 40 304 64 99 79 
163 9 197 153 69 412 63 239 205 257 258 
164 9 304 213 48 223 306 54 229 99 43 
165 9 394 206 13 296 363 123 83 51 313 
166 9 267 245 200 243 62 266 302 395 377 
167 9 177 198 52 214 19 255 35 169 291 
168 9 288 216 117 301 79 40 234 229 111 
169 9 105 17 177 167 373 75 198 19 141 
170 4 55 251 282 178 
171 7 259 245 25 267 94 166 253 
172 9 405 96 23 132 60 160 300 89 185 
173 8 255 291 56 248 214 198 152 141 
174 9 82 269 49 281 246 73 209 124 41 
175 9 354 402 312 397 334 320 389 16 30 
176 6 88 253 25 259 146 267 
177 9 167 198 52 214 255 141 19 169 75 
178 8 170 59 282 113 272 251 55 90 
179 9 377 266 36 62 395 166 200 158 29 
180 8 278 256 274 108 18 236 69 219 
181 9 32 135 182 95 187 4 85 201 113 
182 9 187 201 181 113 59 93 215 135 47 
183 9 102 157 195 133 155 10 26 142 247 
184 9 57 5 276 20 61 126 101 58 218 
185 9 209 98 192 41 60 300 132 286 160 
186 5 122 313 369 363 13 
187 9 201 182 93 215 47 34 181 113 324 
188 3 280 136 38 
189 7 106 118 391 15 240 226 381 
190 9 254 84 370 65 100 3 156 23 150 
191 9 140 67 74 241 222 130 39 244 292 
192 9 98 286 41 185 103 209 300 127 85 
193 5 398 308 365 76 346 
194 9 257 329 114 338 412 258 66 307 387 
195 9 102 183 157 133 142 155 10 26 247 
196 6 21 53 299 309 399 50 
197 9 239 69 163 236 205 412 256 153 63 
198 9 167 177 214 255 52 291 19 141 35 
199 8 77 388 144 104 120 360 110 249 
200 9 62 395 302 413 243 166 266 267 179 
201 9 187 93 215 182 34 47 324 145 4 
202 9 139 97 86 44 150 366 100 3 156 
203 9 343 385 33 311 331 335 336 408 348 
204 4 344 80 252 233 
205 9 239 63 197 153 163 236 38 69 256 
206 9 165 394 13 363 296 123 51 313 83 
207 9 350 409 367 14 355 273 211 18 268 
208 4 119 27 393 22 
209 9 185 41 269 192 98 103 174 82 160 
210 8 66 101 285 221 20 307 338 258 
211 6 273 14 367 116 409 333 
212 7 364 378 154 413 365 398 76 
213 9 304 306 164 48 43 99 54 223 271 
214 9 291 52 198 248 255 167 177 35 19 
215 9 93 201 34 47 187 324 145 182 12 
216 9 301 117 168 234 288 107 223 79 40 
217 6 381 276 310 242 118 57 
218 9 58 72 61 71 126 81 284 24 184 
219 8 138 265 108 91 274 298 43 271 
220 9 110 144 104 314 376 249 120 199 77 
221 7 210 285 20 101 66 217 307 
222 9 292 74 137 140 345 130 39 241 67 
223 9 164 306 213 304 54 48 229 275 301 
224 9 31 379 246 284 24 49 124 414 82 
225 2 261 55 
226 9 15 386 240 2 391 227 317 361 321 
227 4 386 238 226 15 
228 8 346 154 76 308 365 398 327 193 
229 9 54 40 79 48 162 164 304 223 213 
230 1 78 
231 3 147 270 46 
232 9 396 366 156 83 3 65 370 44 51 
233 7 161 404 252 7 204 294 344 
234 9 107 117 279 42 301 216 275 168 223 
235 5 373 339 9 283 105 
236 8 256 115 197 239 180 69 38 205 
237 3 121 68 149 
238 5 129 227 386 22 189 
239 9 197 205 236 163 63 69 256 153 38 
240 9 15 391 226 328 2 189 118 386 310 
241 7 67 130 191 140 222 292 74 
242 5 287 295 217 106 29 
243 7 267 200 166 302 62 395 413 
244 9 39 74 290 140 191 222 12 139 67 
245 9 166 267 171 243 62 377 200 266 179 
246 9 82 49 124 174 224 73 269 379 281 
247 9 26 297 112 50 142 133 102 183 275 
248 8 291 214 111 52 125 255 198 173 
249 8 104 144 352 376 77 314 220 199 
250 9 87 4 290 286 103 192 85 127 41 
251 4 282 170 55 178 
252 7 233 404 161 7 204 80 344 
253 8 25 176 259 88 94 146 171 70 
254 9 190 370 65 84 3 156 23 100 131 
255 9 291 198 214 173 177 167 141 56 248 
256 8 236 180 115 69 197 278 239 412 
257 9 194 329 114 412 338 69 258 355 387 
258 9 66 101 20 338 210 194 307 257 163 
259 8 171 25 94 253 245 176 267 294 
260 2 29 377 
261 4 277 90 55 225 
262 4 342 403 16 389 
263 9 283 9 17 320 105 235 373 312 169 
264 3 358 158 36 
265 8 138 219 298 271 316 91 43 108 
266 9 62 179 377 395 200 413 166 36 302 
267 6 166 243 245 200 62 302 
268 7 8 322 407 305 340 356 333 
269 9 174 82 49 281 209 73 41 185 246 
270 3 46 147 231 
271 9 298 316 265 306 43 138 155 213 219 
272 9 47 178 59 113 215 93 187 201 182 
273 6 211 14 367 116 333 409 
274 8 108 18 91 219 278 138 180 265 
275 9 133 10 155 26 107 157 247 183 102 
276 9 57 5 310 381 217 184 118 328 221 
277 4 90 261 95 55 
278 8 180 18 274 108 355 256 114 350 
279 9 42 234 107 112 117 275 301 297 216 
280 4 136 188 38 115 
281 9 49 269 174 82 160 284 209 246 24 
282 4 251 170 178 55 
283 9 263 9 320 17 105 235 373 312 339 
284 9 24 81 31 281 126 224 49 218 72 
285 5 210 307 221 66 338 
286 9 98 127 192 300 84 185 60 250 100 
287 6 242 295 29 383 27 106 
288 9 168 79 216 40 301 117 229 111 54 
289 9 64 162 99 303 116 48 304 43 54 
290 9 244 250 39 87 139 12 4 86 127 
291 8 214 255 248 198 52 173 167 177 
292 9 345 78 137 222 130 134 359 349 337 
293 2 149 68 
294 9 7 404 94 161 233 252 25 259 171 
295 5 242 287 29 36 158 
296 9 123 165 83 394 206 13 363 232 51 
297 9 112 247 50 26 142 399 21 196 53 
298 9 271 316 265 306 43 138 155 219 213 
299 6 309 21 196 53 399 50 
300 9 60 98 84 286 23 127 185 192 96 
301 9 216 117 234 107 168 288 223 42 279 
302 8 200 413 395 243 62 166 212 266 
303 6 64 289 211 116 273 148 
304 9 213 48 164 306 54 99 43 162 223 
305 5 268 8 407 340 322 
306 9 213 164 304 43 271 298 223 99 48 
307 6 338 285 210 66 101 258 
308 7 76 365 398 193 346 228 327 
309 5 299 21 196 399 53 
310 8 381 57 118 276 391 5 217 328 
311 9 408 336 343 335 6 203 368 385 331 
312 9 402 175 320 354 397 9 16 389 334 
313 8 122 186 13 363 206 394 369 165 
314 8 376 220 104 144 249 110 77 352 
315 3 410 128 33 
316 9 298 271 265 155 10 138 306 157 219 
317 5 321 361 2 414 226 
318 3 362 371 28 
319 1 51 
320 9 9 312 402 175 283 263 354 397 339 
321 4 317 361 2 414 
322 7 8 268 407 356 305 340 387 
323 5 380 372 45 309 375 
324 9 145 34 93 215 12 201 187 47 4 
325 4 143 392 341 11 
326 3 406 30 397 
327 4 346 228 308 76 
328 9 240 5 391 15 310 2 57 81 226 
329 9 114 257 194 355 412 387 69 338 356 
330 4 411 334 353 30 
331 6 348 390 33 335 203 343 
332 8 349 359 134 347 337 78 345 137 
333 4 273 367 14 305 
334 7 353 30 330 411 354 389 406 
335 9 336 368 408 311 6 343 400 382 331 
336 9 408 311 335 6 368 343 400 382 203 
337 9 134 137 349 359 345 332 292 44 78 
338 8 307 66 194 210 258 285 101 257 
339 3 235 397 9 
340 5 305 407 8 268 322 
341 4 325 143 392 11 
342 4 262 403 16 389 
343 9 203 311 408 336 385 335 33 331 368 
344 2 204 80 
345 9 292 78 134 137 359 349 337 222 130 
346 7 228 327 76 308 365 398 154 
347 6 332 359 349 78 134 230 
348 3 390 331 33 
349 9 359 134 332 337 78 345 347 292 137 
350 9 207 409 14 367 355 18 211 116 273 
351 9 374 37 375 28 401 151 45 362 357 
352 6 249 77 104 360 144 199 
353 5 30 334 411 406 330 
354 9 175 402 334 312 397 30 389 353 16 
355 9 350 207 278 329 114 18 409 180 257 
356 7 387 322 407 8 268 305 340 
357 8 382 400 368 151 6 374 37 335 
358 3 264 158 36 
359 9 349 134 78 332 345 337 347 292 137 
360 4 77 199 388 352 
361 5 317 321 2 414 226 
362 4 401 28 37 151 
363 8 13 394 206 165 313 369 122 186 
364 6 378 212 398 365 193 76 
365 8 76 398 308 193 228 346 378 154 
366 9 156 3 396 44 232 150 97 370 202 
367 8 14 273 409 211 207 350 333 116 
368 8 335 400 382 336 6 408 357 311 
369 5 186 363 122 13 313 
370 9 65 3 156 254 190 366 150 232 100 
371 7 45 375 28 318 351 380 37 
372 9 351 45 374 375 37 357 28 151 401 
373 8 235 105 283 9 339 263 148 169 
374 8 351 37 375 401 151 28 357 362 
375 9 351 28 374 37 45 401 371 151 362 
376 8 314 104 220 249 144 110 352 77 
377 9 179 266 62 36 166 245 260 200 395 
378 6 364 212 398 365 193 76 
379 4 224 31 246 124 
380 2 45 371 
381 8 310 118 217 276 57 391 189 5 
382 7 400 357 368 335 151 6 336 
383 6 27 106 119 287 129 189 
384 1 11 
385 9 203 343 33 311 331 128 408 336 348 
386 6 227 226 15 238 240 2 
387 6 356 322 407 329 8 268 
388 6 199 77 120 360 144 110 
389 7 16 342 262 330 403 334 354 
390 3 348 331 33 
391 8 240 15 118 189 226 310 328 381 
392 4 143 325 341 11 
393 1 22 
394 9 165 206 13 363 296 123 83 313 369 
395 8 413 200 62 302 266 243 166 212 
396 9 232 366 156 3 83 44 65 370 51 
397 6 175 354 326 30 334 353 
398 7 365 76 193 308 228 346 378 
399 8 21 50 299 309 142 196 53 297 
400 7 382 368 357 335 6 151 336 
401 7 37 28 151 362 374 351 375 
402 9 312 175 354 320 16 389 334 397 330 
403 3 262 342 16 
404 7 161 233 7 252 294 204 80 
405 9 172 132 96 23 60 160 300 185 98 
406 2 30 353 
407 7 8 322 268 305 340 356 387 
408 9 336 311 6 335 343 368 203 400 382 
409 9 350 14 367 207 116 211 273 18 355 
410 5 315 128 385 33 203 
411 5 353 30 330 334 406 
412 9 69 114 257 163 194 329 197 180 256 
413 8 395 302 200 62 212 266 243 154 
414 6 361 317 2 321 31 226 
DEPOT_SECTION
   1
   -1
EOF
