NAME :  X-n876-kX-w350-c11.cctp
COMMENT : 	Adapted by Maziero, Usberti and Cavellucci from the Uchoa, Pecin, Pessoa, Poggi, Subramanian, and Vidal (2013)
TYPE :  CCTP
DIMENSION :    875
EDGE_WEIGHT_TYPE : 	EUC_2D	
CAPACITY : 	764
VERTICES_WITHIN_COVERAGE :  11
VERTICES_WITH_DEMAND : 	350
NODE_COORD_SECTION
1 0 0
2 205 638
3 893 161
4 191 775
5 444 871
6 225 445
7 226 456
8 301 566
9 140 746
10 196 791
11 356 894
12 876 165
13 56 653
14 845 153
15 139 808
16 418 823
17 94 422
18 928 162
19 341 981
20 209 815
21 172 705
22 374 765
23 291 847
24 890 163
25 250 591
26 970 235
27 251 857
28 260 618
29 162 764
30 906 149
31 247 471
32 191 464
33 587 796
34 198 622
35 878 157
36 346 812
37 435 818
38 61 783
39 362 765
40 612 859
41 194 515
42 17 446
43 903 248
44 224 732
45 225 847
46 397 945
47 215 418
48 226 733
49 972 221
50 142 476
51 168 895
52 200 480
53 119 633
54 336 808
55 499 899
56 777 171
57 476 870
58 792 163
59 288 812
60 198 613
61 336 674
62 137 629
63 325 333
64 504 837
65 230 635
66 152 785
67 280 381
68 157 615
69 919 211
70 292 398
71 222 739
72 828 150
73 208 442
74 197 773
75 877 170
76 143 623
77 99 543
78 389 437
79 161 762
80 252 631
81 57 741
82 186 706
83 167 827
84 198 737
85 150 707
86 205 347
87 38 861
88 986 232
89 348 608
90 209 620
91 45 650
92 123 656
93 189 796
94 745 402
95 223 504
96 371 909
97 173 748
98 300 680
99 519 907
100 912 247
101 486 851
102 351 603
103 361 802
104 345 809
105 300 669
106 184 781
107 95 678
108 341 854
109 850 357
110 277 718
111 398 817
112 595 938
113 251 511
114 256 570
115 139 720
116 439 977
117 152 784
118 239 824
119 204 615
120 203 430
121 201 538
122 305 605
123 257 811
124 210 654
125 896 5
126 469 802
127 608 873
128 456 878
129 298 404
130 364 459
131 193 936
132 225 517
133 878 171
134 889 224
135 246 643
136 903 67
137 188 667
138 74 625
139 891 34
140 166 625
141 352 593
142 852 122
143 738 166
144 226 451
145 289 331
146 902 312
147 290 350
148 949 143
149 853 187
150 331 440
151 388 908
152 379 421
153 113 576
154 443 857
155 228 825
156 223 473
157 236 677
158 276 929
159 935 243
160 948 144
161 420 893
162 296 718
163 265 621
164 750 158
165 163 734
166 138 677
167 706 133
168 494 871
169 431 620
170 785 201
171 59 888
172 200 544
173 62 591
174 248 791
175 450 874
176 66 681
177 304 891
178 716 135
179 902 193
180 271 663
181 143 633
182 264 607
183 125 615
184 903 146
185 192 766
186 920 407
187 207 406
188 368 628
189 258 369
190 496 929
191 802 23
192 198 597
193 883 141
194 253 331
195 928 241
196 475 920
197 217 778
198 827 143
199 758 327
200 9 757
201 164 879
202 584 811
203 880 217
204 208 811
205 891 43
206 712 541
207 222 501
208 435 700
209 561 983
210 203 458
211 841 201
212 399 849
213 405 922
214 466 714
215 413 793
216 122 590
217 134 553
218 246 457
219 506 813
220 286 652
221 851 207
222 172 387
223 274 658
224 298 692
225 279 442
226 280 567
227 186 782
228 286 764
229 171 696
230 590 986
231 271 633
232 308 909
233 941 128
234 119 877
235 125 758
236 413 530
237 102 856
238 440 612
239 503 909
240 200 669
241 311 931
242 270 504
243 846 9
244 857 70
245 198 543
246 67 565
247 240 696
248 34 561
249 886 161
250 205 442
251 209 600
252 253 812
253 251 877
254 251 355
255 907 166
256 410 893
257 475 886
258 846 170
259 799 232
260 307 561
261 281 561
262 356 706
263 685 879
264 213 97
265 221 776
266 766 256
267 139 792
268 504 966
269 188 458
270 462 208
271 990 280
272 425 862
273 132 617
274 317 742
275 264 341
276 324 634
277 469 950
278 27 749
279 219 393
280 351 815
281 921 173
282 449 874
283 256 693
284 669 859
285 903 164
286 159 801
287 175 650
288 323 607
289 891 152
290 440 836
291 210 737
292 191 758
293 108 780
294 900 213
295 828 139
296 181 452
297 359 351
298 178 757
299 283 436
300 44 689
301 186 659
302 314 859
303 102 737
304 658 1
305 453 791
306 425 948
307 173 424
308 149 514
309 790 64
310 214 648
311 277 686
312 516 905
313 278 844
314 787 72
315 461 796
316 78 694
317 144 616
318 41 715
319 213 755
320 158 408
321 205 785
322 157 504
323 166 607
324 66 652
325 400 881
326 242 589
327 385 910
328 153 665
329 67 514
330 228 344
331 579 475
332 614 815
333 735 79
334 810 90
335 4 658
336 330 500
337 427 846
338 19 918
339 327 672
340 956 153
341 224 587
342 392 748
343 886 154
344 249 734
345 812 115
346 733 302
347 414 635
348 283 479
349 608 925
350 397 947
351 217 460
352 214 448
353 164 620
354 230 662
355 935 216
356 201 694
357 94 787
358 461 857
359 171 743
360 35 898
361 856 88
362 264 895
363 292 579
364 316 750
365 557 864
366 192 747
367 790 501
368 859 177
369 202 584
370 418 862
371 154 613
372 278 613
373 116 568
374 367 501
375 355 974
376 270 414
377 199 663
378 753 185
379 611 937
380 389 841
381 493 814
382 467 883
383 196 686
384 979 283
385 671 251
386 299 613
387 175 481
388 246 965
389 78 763
390 292 719
391 303 526
392 452 889
393 255 855
394 412 741
395 179 436
396 420 960
397 899 140
398 248 445
399 365 372
400 378 855
401 567 731
402 826 202
403 250 767
404 139 394
405 513 894
406 881 116
407 370 942
408 750 291
409 104 402
410 31 560
411 417 940
412 798 198
413 495 914
414 894 162
415 154 817
416 94 373
417 287 483
418 528 792
419 246 423
420 835 226
421 234 636
422 260 750
423 461 894
424 167 289
425 56 594
426 140 517
427 234 489
428 318 719
429 994 143
430 77 565
431 224 758
432 464 893
433 281 604
434 443 852
435 961 214
436 183 785
437 186 551
438 158 602
439 978 344
440 230 446
441 271 713
442 286 851
443 571 979
444 287 648
445 344 511
446 828 52
447 38 560
448 243 482
449 309 469
450 198 727
451 162 732
452 11 367
453 875 159
454 172 772
455 522 762
456 204 654
457 844 215
458 953 250
459 343 611
460 373 950
461 535 887
462 456 964
463 131 688
464 125 751
465 429 875
466 230 449
467 207 652
468 188 430
469 186 661
470 72 422
471 464 984
472 79 664
473 765 213
474 284 425
475 450 818
476 110 733
477 84 781
478 178 864
479 863 164
480 993 250
481 176 591
482 161 837
483 930 143
484 189 469
485 217 803
486 229 622
487 459 776
488 950 81
489 201 599
490 236 408
491 222 762
492 198 340
493 119 621
494 157 367
495 844 132
496 362 469
497 376 725
498 68 519
499 914 192
500 316 406
501 313 830
502 169 799
503 866 82
504 447 48
505 231 439
506 155 565
507 926 70
508 884 109
509 857 163
510 378 718
511 598 885
512 430 709
513 484 848
514 360 441
515 214 376
516 998 234
517 274 547
518 410 782
519 348 364
520 141 549
521 299 851
522 300 676
523 175 712
524 881 110
525 406 657
526 961 115
527 437 830
528 178 409
529 355 879
530 639 866
531 246 245
532 347 454
533 976 180
534 199 482
535 272 456
536 208 828
537 241 865
538 335 749
539 85 741
540 250 783
541 872 257
542 517 540
543 578 822
544 240 562
545 269 374
546 511 912
547 592 642
548 412 876
549 151 889
550 454 724
551 248 646
552 388 408
553 892 169
554 314 508
555 410 905
556 905 265
557 208 626
558 826 31
559 366 446
560 520 859
561 882 216
562 866 142
563 201 723
564 489 953
565 207 436
566 931 286
567 315 420
568 465 765
569 178 725
570 959 212
571 286 836
572 106 783
573 839 161
574 207 653
575 880 197
576 100 699
577 413 467
578 587 908
579 900 226
580 409 902
581 108 725
582 173 511
583 192 541
584 439 901
585 359 922
586 201 403
587 494 798
588 567 243
589 254 441
590 405 913
591 186 353
592 592 884
593 241 806
594 93 947
595 253 495
596 201 793
597 865 120
598 150 564
599 870 80
600 96 770
601 269 599
602 881 203
603 173 844
604 326 854
605 840 141
606 153 454
607 302 878
608 347 728
609 829 280
610 182 600
611 235 375
612 94 682
613 476 900
614 127 659
615 250 889
616 165 659
617 822 95
618 328 818
619 562 462
620 894 76
621 237 482
622 824 116
623 266 674
624 336 376
625 301 679
626 193 527
627 105 922
628 449 905
629 456 866
630 192 347
631 432 995
632 183 480
633 192 660
634 472 711
635 187 859
636 581 666
637 144 458
638 310 462
639 506 672
640 309 439
641 129 762
642 182 351
643 193 763
644 848 251
645 69 514
646 978 382
647 291 445
648 360 980
649 253 694
650 121 840
651 254 614
652 255 472
653 229 456
654 187 667
655 242 459
656 295 602
657 247 488
658 248 604
659 62 657
660 229 502
661 141 521
662 906 287
663 84 662
664 18 916
665 255 564
666 310 815
667 345 904
668 215 593
669 464 806
670 161 464
671 392 457
672 608 839
673 417 815
674 257 751
675 409 779
676 211 656
677 438 990
678 941 191
679 357 627
680 207 488
681 298 756
682 217 656
683 139 755
684 163 715
685 68 718
686 770 153
687 927 408
688 894 196
689 185 765
690 135 490
691 462 963
692 90 548
693 464 630
694 179 821
695 794 244
696 415 844
697 183 692
698 852 76
699 421 782
700 911 258
701 220 422
702 22 663
703 115 875
704 395 921
705 476 787
706 258 531
707 59 511
708 160 758
709 243 815
710 100 547
711 350 659
712 290 496
713 202 526
714 834 185
715 179 431
716 831 192
717 48 759
718 420 813
719 17 690
720 76 737
721 135 595
722 670 983
723 339 453
724 283 751
725 181 571
726 143 945
727 18 770
728 284 822
729 469 797
730 188 429
731 866 252
732 240 763
733 368 807
734 135 728
735 946 170
736 223 936
737 262 582
738 488 315
739 466 885
740 171 610
741 781 308
742 204 837
743 240 317
744 310 479
745 812 120
746 173 655
747 150 951
748 208 651
749 991 264
750 572 917
751 262 410
752 158 650
753 179 716
754 124 629
755 31 691
756 306 444
757 186 627
758 435 842
759 247 809
760 591 791
761 152 737
762 165 574
763 382 828
764 292 231
765 180 671
766 282 357
767 184 786
768 179 972
769 991 236
770 861 165
771 178 631
772 168 595
773 361 801
774 445 783
775 905 182
776 420 492
777 232 684
778 836 157
779 208 436
780 202 676
781 366 385
782 186 381
783 191 251
784 320 398
785 440 871
786 258 785
787 234 547
788 912 151
789 250 390
790 936 66
791 68 604
792 760 76
793 346 276
794 178 751
795 213 655
796 106 789
797 531 949
798 185 662
799 495 886
800 277 823
801 271 387
802 228 881
803 816 221
804 893 185
805 238 980
806 215 871
807 119 397
808 166 588
809 91 782
810 238 440
811 139 814
812 332 800
813 305 717
814 27 398
815 194 401
816 305 676
817 466 826
818 256 531
819 153 742
820 262 837
821 268 447
822 923 23
823 442 792
824 846 349
825 193 755
826 857 271
827 224 543
828 627 869
829 972 244
830 209 903
831 266 665
832 275 565
833 128 462
834 487 879
835 110 751
836 168 744
837 837 152
838 172 880
839 496 803
840 215 624
841 992 152
842 218 497
843 960 163
844 954 191
845 249 552
846 156 649
847 237 830
848 229 818
849 261 498
850 350 941
851 419 930
852 887 318
853 57 375
854 432 935
855 226 708
856 178 634
857 200 453
858 452 696
859 155 636
860 304 808
861 265 655
862 522 889
863 199 348
864 268 963
865 966 105
866 315 324
867 197 285
868 485 935
869 398 221
870 214 630
871 857 266
872 244 736
873 230 784
874 177 772
875 205 796
DEMAND_SECTION
2 25
3 94
4 71
5 59
6 35
7 5
8 45
9 40
10 6
11 72
12 23
13 93
14 13
15 83
16 26
17 11
18 6
19 91
20 68
21 7
22 75
23 31
24 33
25 86
26 42
27 43
28 77
29 35
30 74
31 37
32 55
33 49
34 18
35 72
36 69
37 72
38 72
39 65
40 51
41 71
42 69
43 23
44 58
45 28
46 91
47 4
48 2
49 62
50 11
51 94
52 1
53 76
54 56
55 21
56 57
57 24
58 95
59 84
60 54
61 6
62 55
63 10
64 87
65 94
66 55
67 42
68 14
69 70
70 79
71 40
72 32
73 1
74 57
75 21
76 78
77 33
78 82
79 8
80 54
81 11
82 49
83 23
84 83
85 26
86 21
87 86
88 83
89 82
90 14
91 54
92 67
93 93
94 13
95 75
96 72
97 7
98 15
99 71
100 9
101 44
102 84
103 49
104 42
105 71
106 50
107 30
108 85
109 99
110 15
111 11
112 35
113 98
114 99
115 43
116 17
117 47
118 97
119 42
120 64
121 100
122 75
123 20
124 20
125 87
126 78
127 45
128 62
129 28
130 74
131 23
132 57
133 84
134 14
135 5
136 32
137 23
138 25
139 18
140 84
141 17
142 19
143 29
144 98
145 64
146 38
147 20
148 4
149 29
150 14
151 2
152 53
153 20
154 58
155 46
156 15
157 77
158 78
159 38
160 11
161 98
162 12
163 66
164 60
165 81
166 99
167 24
168 58
169 96
170 60
171 49
172 77
173 77
174 21
175 76
176 96
177 48
178 44
179 19
180 50
181 64
182 98
183 84
184 3
185 81
186 41
187 99
188 57
189 54
190 40
191 69
192 72
193 57
194 7
195 63
196 23
197 26
198 65
199 23
200 70
201 31
202 34
203 90
204 67
205 70
206 50
207 68
208 83
209 93
210 97
211 7
212 55
213 42
214 78
215 4
216 67
217 25
218 1
219 43
220 47
221 10
222 92
223 52
224 98
225 47
226 36
227 82
228 48
229 9
230 41
231 16
232 24
233 68
234 25
235 5
236 58
237 86
238 33
239 22
240 12
241 38
242 73
243 48
244 25
245 53
246 82
247 75
248 98
249 92
250 17
251 46
252 89
253 35
254 63
255 5
256 42
257 7
258 78
259 87
260 38
261 22
262 55
263 20
264 72
265 50
266 11
267 61
268 53
269 17
270 99
271 53
272 35
273 23
274 50
275 8
276 62
277 89
278 39
279 15
280 50
281 22
282 67
283 71
284 87
285 19
286 81
287 43
288 58
289 79
290 11
291 44
292 97
293 53
294 36
295 50
296 66
297 15
298 69
299 23
300 54
301 52
302 75
303 76
304 5
305 91
306 8
307 54
308 68
309 39
310 76
311 39
312 76
313 57
314 29
315 86
316 43
317 53
318 73
319 80
320 97
321 2
322 13
323 19
324 27
325 95
326 11
327 21
328 61
329 5
330 79
331 56
332 66
333 83
334 91
335 7
336 77
337 81
338 24
339 50
340 48
341 95
342 21
343 62
344 28
345 37
346 81
347 55
348 60
349 27
350 69
351 34
COVERAGE_SECTION
2 11 557 870 310 748 467 574 456 34 124 840 90 
3 11 414 24 249 553 289 285 343 255 35 12 30 
4 11 74 106 185 227 643 689 436 767 874 10 292 
5 11 785 282 175 629 128 154 465 434 392 272 358 
6 11 440 144 466 505 7 352 653 810 73 351 779 
7 11 653 144 466 351 6 440 352 655 156 505 218 
8 11 260 363 226 261 832 517 656 122 391 737 433 
9 11 683 819 761 464 235 641 734 708 79 115 165 
10 11 596 93 875 321 227 767 436 106 4 74 204 
11 11 529 667 96 585 327 151 108 400 325 704 850 
12 11 75 133 453 35 249 479 24 343 770 553 3 
13 11 659 324 91 472 663 176 138 702 300 755 107 
14 11 837 573 778 605 509 72 258 770 198 479 495 
15 11 811 267 415 286 66 117 502 83 482 650 796 
16 11 673 718 37 527 111 696 337 758 290 215 212 
17 11 409 470 807 416 833 404 853 637 320 606 814 
18 11 281 483 788 735 255 285 30 160 148 340 184 
19 11 375 648 850 460 407 241 585 350 46 864 667 
20 11 204 536 485 875 848 155 596 742 10 93 321 
21 11 523 229 684 753 82 697 569 85 451 165 356 
22 11 39 342 675 773 103 497 518 538 733 394 608 
23 11 442 521 571 313 302 728 501 800 820 607 59 
24 11 3 249 414 553 343 289 35 285 12 133 75 
25 11 326 658 737 182 601 114 651 341 665 28 544 
26 11 829 49 88 769 435 458 570 480 516 159 749 
27 11 393 537 253 820 45 313 847 615 802 118 442 
28 11 163 651 182 80 658 231 372 601 433 25 135 
29 11 79 708 454 298 874 97 794 836 117 66 359 
30 11 184 788 397 285 289 255 3 414 24 343 249 
31 11 652 448 655 218 621 657 427 653 156 595 7 
32 11 484 269 210 857 296 52 632 534 387 250 351 
33 11 760 202 543 332 672 418 40 401 455 365 127 
34 11 60 119 90 557 757 2 840 870 771 489 856 
35 11 453 12 249 343 24 75 133 289 3 193 414 
36 11 104 280 54 103 812 618 773 733 666 501 763 
37 11 527 475 718 16 673 290 758 823 337 669 305 
38 11 477 389 717 809 357 600 81 572 727 796 293 
39 11 22 538 342 773 103 608 497 733 812 104 364 
40 11 127 828 672 530 511 592 332 543 365 578 202 
41 11 626 713 582 121 583 245 172 680 842 95 132 
42 11 814 470 707 452 17 853 329 645 498 409 416 
43 11 100 700 556 579 195 134 159 541 294 731 561 
44 11 48 71 291 872 855 319 344 563 84 431 450 
45 11 847 155 742 537 536 806 118 27 848 393 802 
46 11 350 411 213 704 460 396 407 851 306 590 854 
47 11 701 187 120 779 565 586 490 73 279 250 505 
48 11 44 71 291 872 344 431 855 319 563 84 450 
49 11 435 26 570 88 829 769 516 458 844 480 355 
50 11 690 637 833 670 606 322 387 308 426 632 661 
51 11 201 838 549 478 635 830 131 603 234 806 726 
52 11 534 680 484 632 32 210 156 269 387 842 351 
53 11 754 493 62 183 273 92 181 76 614 317 859 
54 11 104 812 36 618 280 103 773 666 501 733 860 
55 11 239 799 405 413 312 546 99 613 834 862 257 
56 11 58 686 378 164 170 412 143 473 72 198 402 
57 11 834 257 382 168 739 358 629 101 128 513 799 
58 11 56 686 412 72 170 198 164 295 778 378 837 
59 11 728 800 860 666 571 123 501 313 23 252 820 
60 11 119 34 90 489 192 557 251 757 840 610 870 
61 11 339 711 816 625 98 105 522 262 224 276 428 
62 11 181 76 273 754 317 53 183 859 493 371 68 
63 11 866 145 297 147 519 624 766 399 793 275 784 
64 11 101 513 219 381 560 168 839 587 817 57 834 
65 11 421 486 870 135 840 310 551 80 557 2 682 
66 11 117 267 286 502 29 454 79 15 708 874 436 
67 11 801 545 70 766 189 129 789 147 376 751 254 
68 11 371 353 323 140 317 438 740 76 859 181 772 
69 11 355 294 499 579 179 688 678 195 775 134 159 
70 11 129 67 801 500 376 474 784 567 751 545 299 
71 11 44 48 291 319 431 872 491 84 563 344 450 
72 11 198 837 295 778 605 573 14 495 258 509 622 
73 11 250 565 779 352 120 857 6 210 144 351 440 
74 11 4 185 643 227 321 689 106 292 10 436 767 
75 11 133 12 453 35 249 24 479 553 770 3 343 
76 11 317 62 181 273 371 68 859 183 754 353 140 
77 11 710 692 373 430 153 217 246 498 520 645 329 
78 11 152 671 559 514 552 130 577 496 532 723 781 
79 11 29 708 454 97 298 836 874 794 359 819 683 
80 11 135 28 163 551 651 231 421 65 486 182 658 
81 11 720 717 685 539 389 278 318 38 303 477 600 
82 11 753 523 21 697 229 356 569 383 563 450 684 
83 11 482 694 415 603 286 502 811 15 93 635 742 
84 11 450 291 366 563 825 292 319 569 71 794 44 
85 11 684 115 21 229 523 734 463 451 165 753 761 
86 11 863 492 630 591 330 642 515 782 611 743 254 
87 11 171 360 664 338 237 703 38 234 650 627 477 
88 11 769 516 26 49 829 480 435 749 570 458 271 
89 11 102 459 141 679 288 188 276 122 386 711 656 
90 11 557 119 840 34 870 60 2 251 486 489 757 
91 11 13 659 324 702 176 472 138 300 663 335 755 
92 11 614 53 166 754 62 181 328 463 846 493 107 
93 11 10 767 596 436 227 106 875 321 502 4 74 
94 11 199 346 741 367 408 109 824 206 266 609 695 
95 11 207 660 842 132 427 680 621 113 657 448 713 
96 11 327 151 585 11 667 704 407 529 590 213 850 
97 11 359 794 836 298 708 165 79 29 366 451 292 
98 11 625 522 816 105 224 311 339 220 180 223 444 
99 11 312 546 405 239 862 55 413 461 190 799 834 
100 11 43 700 195 556 159 579 134 294 69 355 662 
101 11 513 57 168 64 358 834 817 629 560 799 257 
102 11 89 141 459 679 288 188 276 122 386 656 711 
103 11 773 733 280 104 36 54 812 763 39 618 22 
104 11 36 280 54 812 103 773 618 733 666 501 860 
105 11 522 816 625 98 220 224 444 339 223 311 180 
106 11 227 436 767 4 874 74 454 10 93 689 185 
107 11 612 663 472 576 316 176 92 463 614 324 659 
108 11 604 302 529 400 501 618 280 36 521 11 104 
109 11 824 852 146 609 741 186 826 662 871 687 199 
110 11 441 390 162 813 311 344 224 283 649 724 422 
111 11 673 763 16 718 380 215 212 696 733 37 518 
112 11 379 349 578 750 230 443 511 592 209 797 127 
113 11 595 849 242 706 818 657 660 132 427 95 448 
114 11 665 737 544 845 832 25 226 326 261 517 601 
115 11 734 85 761 684 9 451 819 165 581 476 463 
116 11 677 631 462 396 471 691 306 277 411 854 851 
117 11 66 267 286 29 454 502 79 15 708 874 436 
118 11 847 709 155 848 759 252 593 123 820 45 485 
119 11 60 90 34 557 840 251 489 870 192 757 2 
120 11 565 779 250 73 468 730 47 701 352 857 187 
121 11 172 245 583 713 626 437 41 827 132 787 582 
122 11 386 656 288 433 372 363 276 601 459 8 182 
123 11 252 759 709 593 118 174 800 786 820 847 540 
124 11 676 574 795 467 748 456 310 682 377 2 240 
125 11 139 822 205 243 136 620 507 790 558 244 599 
126 11 729 669 315 705 305 817 475 587 381 839 487 
127 11 40 511 592 828 530 672 578 349 365 750 332 
128 11 175 282 382 392 629 739 5 423 432 785 257 
129 11 70 500 567 784 474 67 376 801 299 751 640 
130 11 496 559 514 532 723 671 78 150 152 374 577 
131 11 736 830 768 747 51 726 388 838 549 805 201 
132 11 95 207 660 842 713 827 113 427 41 787 121 
133 11 75 12 453 249 24 35 553 479 3 414 770 
134 11 203 561 579 294 602 43 575 688 69 100 179 
135 11 551 80 421 65 861 354 231 486 28 163 651 
136 11 620 507 205 790 139 599 503 244 508 524 822 
137 11 654 469 798 301 633 765 240 377 780 746 287 
138 11 791 324 13 659 173 425 91 663 472 493 53 
139 11 205 125 822 136 620 244 507 243 599 503 790 
140 11 353 68 771 856 740 859 371 323 757 76 181 
141 11 102 89 459 288 679 188 122 276 260 386 8 
142 11 495 597 605 562 295 622 406 524 14 198 361 
143 11 164 378 686 178 56 167 58 473 170 412 333 
144 11 466 7 6 440 653 352 351 505 810 655 73 
145 11 147 275 766 866 63 194 254 545 189 67 743 
146 11 852 662 566 556 700 826 541 43 871 100 824 
147 11 766 145 275 545 67 866 189 63 254 194 801 
148 11 160 340 233 483 843 735 18 526 788 281 865 
149 11 368 211 258 714 221 716 770 509 479 75 457 
150 11 723 532 640 756 567 514 638 449 559 500 130 
151 11 327 704 96 590 213 555 580 256 325 585 11 
152 11 552 78 514 559 671 781 130 532 399 496 723 
153 11 373 216 721 217 710 77 692 430 520 598 183 
154 11 434 5 785 629 758 175 282 358 272 337 290 
155 11 848 847 118 709 536 20 45 593 204 485 759 
156 11 351 7 621 653 427 144 448 680 31 52 655 
157 11 777 354 247 649 283 682 623 795 831 551 676 
158 11 241 864 362 232 177 388 615 736 607 253 805 
159 11 195 458 100 355 700 43 26 69 556 829 435 
160 11 148 340 233 483 843 735 18 526 788 281 30 
161 11 256 580 555 548 465 584 325 590 785 272 370 
162 11 390 813 110 428 441 224 274 724 311 98 364 
163 11 28 231 651 182 372 80 601 433 658 135 551 
164 11 143 686 378 56 178 58 167 170 473 412 745 
165 11 451 761 836 359 819 97 569 684 794 708 753 
166 11 463 328 614 92 85 616 846 752 229 746 765 
167 11 178 143 164 333 686 378 792 56 58 473 314 
168 11 834 799 57 101 257 513 55 560 382 405 739 
169 11 238 347 693 525 188 679 858 208 102 141 89 
170 11 412 473 56 259 378 803 58 402 695 716 686 
171 11 360 87 338 664 237 627 703 234 594 650 549 
172 11 245 121 583 437 626 713 827 41 725 787 132 
173 11 425 791 246 430 138 447 248 410 692 153 710 
174 11 540 786 593 759 873 123 252 403 709 732 265 
175 11 282 5 128 629 785 392 154 382 739 358 465 
176 11 316 472 300 659 663 612 107 324 13 755 91 
177 11 607 232 302 362 521 241 604 667 442 23 158 
178 11 167 143 164 686 333 378 56 792 58 473 170 
179 11 688 775 499 804 294 575 602 69 553 255 281 
180 11 831 223 861 623 220 444 311 551 105 231 135 
181 11 62 76 859 317 273 754 846 68 371 752 53 
182 11 601 28 651 163 372 658 433 25 737 80 231 
183 11 273 493 754 62 53 317 76 721 181 216 371 
184 11 30 397 788 289 3 285 414 343 255 24 193 
185 11 643 689 292 4 74 825 874 106 227 298 366 
186 11 687 646 109 439 824 852 146 566 662 384 556 
187 11 586 47 815 279 701 120 490 528 565 730 779 
188 11 679 89 102 459 711 141 276 347 525 288 61 
189 11 545 254 789 801 611 67 766 275 147 194 330 
190 11 868 413 239 196 546 564 55 312 99 277 613 
191 11 558 446 309 243 314 334 792 244 698 617 361 
192 11 489 251 369 60 610 668 119 481 34 90 341 
193 11 343 289 397 35 562 249 453 184 3 24 30 
194 11 275 743 254 330 145 189 766 147 545 611 86 
195 11 159 100 700 43 355 458 69 579 556 294 26 
196 11 868 613 413 190 432 239 423 628 277 55 257 
197 11 265 321 873 491 74 431 596 875 319 10 485 
198 11 295 72 605 837 778 495 14 573 622 745 345 
199 11 741 346 408 266 94 609 695 824 109 259 473 
200 11 727 278 717 81 318 38 719 389 720 755 685 
201 11 838 51 549 478 635 603 482 234 703 830 83 
202 11 543 33 760 332 672 40 365 418 127 828 592 
203 11 561 134 602 294 575 579 688 221 179 804 457 
204 11 20 485 875 536 596 848 10 93 155 321 742 
205 11 139 136 620 125 822 244 599 507 503 698 790 
206 11 367 94 331 547 619 636 542 199 109 824 401 
207 11 95 842 660 132 427 680 621 156 448 657 52 
208 11 512 858 550 214 634 394 525 510 342 497 347 
209 11 443 230 797 112 268 750 379 349 564 578 190 
210 11 857 32 351 269 352 250 73 484 52 565 7 
211 11 221 716 457 402 714 149 420 368 258 803 575 
212 11 380 696 400 370 763 337 272 548 16 111 325 
213 11 590 704 851 555 580 151 411 327 46 350 256 
214 11 634 550 858 208 512 568 639 394 487 774 455 
215 11 518 699 675 718 673 111 823 16 37 774 305 
216 11 721 153 373 183 273 493 317 438 598 76 217 
217 11 520 598 373 506 153 661 710 77 426 762 216 
218 11 655 398 31 652 653 466 589 440 810 7 144 
219 11 381 839 587 64 418 126 705 729 513 817 101 
220 11 444 223 180 861 105 231 831 522 623 98 625 
221 11 457 211 149 402 420 716 714 602 203 368 575 
222 11 782 528 320 494 815 586 404 307 591 642 187 
223 11 180 861 831 220 444 623 231 105 311 551 135 
224 11 98 625 522 816 311 105 162 813 390 110 428 
225 10 299 647 821 535 474 589 756 376 640 398 
226 11 832 261 363 8 517 737 114 665 260 601 845 
227 11 106 436 767 4 10 874 74 93 185 454 689 
228 11 724 681 422 674 364 786 403 274 540 390 732 
229 11 21 697 523 82 684 753 85 383 765 356 569 
230 11 443 209 112 379 349 797 750 578 722 268 511 
231 11 163 28 80 372 444 861 220 223 651 551 135 
232 11 177 241 607 667 158 362 11 302 585 850 529 
233 11 148 160 483 526 340 865 18 788 843 30 184 
234 11 703 237 549 650 201 627 51 838 482 478 171 
235 11 641 464 683 835 9 293 476 303 572 600 734 
236 11 776 374 577 445 671 496 130 238 141 336 169 
237 11 703 650 234 171 811 549 15 482 87 415 201 
238 11 169 693 347 525 188 679 858 236 208 102 639 
239 11 413 546 55 312 99 405 190 799 613 862 196 
240 11 377 780 137 633 654 456 469 301 383 574 676 
241 11 232 158 850 177 667 585 607 864 11 19 362 
242 11 849 595 113 712 417 348 657 706 818 448 652 
243 11 558 191 446 125 139 205 244 698 599 503 309 
244 11 698 503 599 361 446 620 205 617 136 508 524 
245 11 172 121 583 437 626 713 827 41 725 787 132 
246 11 430 173 447 692 425 248 410 710 77 791 498 
247 11 649 777 283 855 157 623 354 441 311 44 344 
248 11 410 447 246 425 173 430 498 791 707 329 692 
249 11 24 3 343 414 35 289 553 12 453 75 133 
250 11 73 565 779 352 120 857 210 6 468 730 351 
251 11 489 668 192 119 60 369 90 341 34 840 557 
252 11 123 759 709 593 118 174 847 848 800 786 820 
253 11 615 537 27 362 393 802 806 45 820 313 442 
254 11 189 275 194 330 545 611 766 789 801 67 147 
255 11 285 414 3 553 281 775 788 24 30 184 18 
256 11 580 161 555 325 548 590 465 151 213 327 584 
257 11 382 739 432 613 834 57 423 799 128 392 168 
258 11 573 509 368 770 778 14 149 479 714 837 72 
259 11 695 803 170 412 420 473 402 266 457 716 211 
260 11 8 363 261 226 832 391 517 656 122 288 433 
261 11 226 832 517 8 363 260 665 114 737 845 706 
262 11 608 510 497 61 428 339 711 538 813 274 342 
263 11 284 530 828 40 127 511 672 349 592 379 332 
264 11 531 764 783 867 424 743 793 869 194 504 492 
265 11 197 873 491 321 431 319 732 74 596 875 485 
266 11 695 408 259 473 741 346 170 803 412 609 199 
267 11 66 117 15 286 811 415 502 641 293 796 572 
268 11 564 797 868 190 277 691 471 462 413 196 546 
269 11 32 296 484 857 210 250 632 395 52 73 387 
270 11 869 738 588 793 504 764 297 63 866 399 519 
271 11 384 749 480 829 769 516 88 458 26 566 49 
272 11 370 465 337 785 154 548 5 434 696 758 282 
273 11 183 317 62 76 493 754 181 53 371 721 68 
274 11 364 538 428 681 813 162 608 390 724 228 110 
275 11 194 254 766 145 147 189 545 743 330 67 611 
276 11 288 459 386 679 89 122 711 339 444 102 61 
277 11 691 462 564 868 196 190 471 268 116 854 306 
278 11 200 717 727 81 318 38 720 685 389 755 539 
279 11 187 515 586 490 611 47 815 701 789 782 120 
280 11 36 104 103 54 773 733 618 812 763 108 501 
281 11 18 255 775 285 499 788 735 678 30 179 414 
282 11 175 5 128 785 629 392 154 382 465 739 358 
283 11 649 247 623 311 441 157 777 831 110 180 855 
284 11 263 530 828 40 127 672 332 511 592 349 578 
285 11 255 414 3 553 24 30 788 249 289 184 775 
286 11 502 66 415 117 15 267 811 83 694 436 767 
287 11 746 616 301 469 798 856 752 771 846 633 137 
288 11 122 459 89 386 276 102 656 141 679 363 433 
289 11 343 3 249 414 24 184 35 193 397 30 285 
290 11 527 758 337 434 37 154 475 16 696 817 272 
291 11 71 84 44 48 450 563 319 366 431 825 292 
292 11 825 643 185 689 366 298 794 74 4 874 97 
293 11 572 796 357 600 809 477 235 641 835 267 389 
294 11 579 134 561 688 69 179 203 602 499 575 804 
295 11 198 72 605 837 495 778 14 622 573 745 142 
296 11 269 32 395 484 857 715 210 468 670 730 250 
297 11 519 399 624 781 63 866 784 552 147 500 145 
298 11 794 97 689 292 825 874 359 454 643 836 29 
299 11 225 474 647 821 535 756 376 640 589 751 129 
300 11 755 176 318 719 316 702 659 13 685 91 324 
301 11 469 798 633 137 654 765 287 377 746 240 456 
302 11 604 521 607 23 108 442 501 177 571 313 618 
303 11 476 581 835 539 720 464 235 600 734 389 641 
304 11 333 792 167 178 191 309 314 558 334 446 164 
305 11 315 774 823 487 729 126 669 705 475 568 37 
306 11 411 396 854 851 46 350 116 213 462 590 691 
307 11 715 395 468 528 730 320 296 120 815 586 565 
308 11 426 661 322 582 690 520 50 217 387 41 626 
309 11 314 792 334 446 191 617 558 345 333 745 622 
310 11 124 748 795 467 574 676 682 456 2 870 65 
311 11 623 224 283 98 180 831 522 625 649 223 441 
312 11 99 546 405 239 862 55 413 461 799 190 834 
313 11 442 571 23 820 800 521 728 393 27 59 501 
314 11 309 792 334 617 446 345 191 333 745 558 622 
315 11 729 305 126 669 705 823 487 774 475 817 568 
316 11 176 612 107 576 685 472 663 300 659 318 581 
317 11 76 371 273 68 62 181 183 353 438 721 859 
318 11 300 755 685 81 719 278 720 176 316 717 539 
319 11 431 491 71 291 825 265 292 366 643 84 197 
320 11 528 307 404 222 715 395 468 730 815 782 494 
321 11 596 10 875 74 197 4 265 93 227 106 767 
322 11 308 582 426 661 690 387 50 632 41 670 626 
323 11 740 438 68 772 353 371 610 140 481 808 317 
324 11 659 13 472 91 663 138 176 107 612 300 316 
325 11 548 256 161 580 370 555 151 465 272 212 590 
326 11 25 658 341 737 114 544 668 182 651 665 601 
327 11 151 96 704 590 213 555 580 585 256 11 325 
328 11 616 752 846 166 746 287 614 765 859 92 463 
329 11 645 498 707 692 77 710 246 430 447 248 410 
330 11 86 254 194 863 492 743 611 515 275 630 189 
331 11 619 542 206 776 577 547 236 94 738 671 636 
332 11 672 202 33 760 543 40 828 530 127 284 511 
333 11 792 314 309 178 167 334 164 686 345 143 191 
334 11 617 345 314 622 745 309 446 698 361 244 295 
335 11 702 719 91 755 300 13 659 324 176 318 472 
336 11 445 554 744 374 391 449 712 638 496 417 723 
337 11 758 696 272 290 434 370 154 527 16 212 785 
338 11 664 360 171 87 594 627 237 703 234 726 650 
339 11 61 816 711 105 522 625 98 224 276 262 220 
340 11 843 148 160 735 483 18 233 533 841 526 844 
341 11 668 326 251 369 25 489 192 658 544 119 486 
342 11 394 22 497 510 39 675 518 699 608 215 512 
343 11 289 249 35 3 24 414 453 193 12 553 75 
344 11 872 422 674 48 44 71 441 732 110 403 431 
345 11 745 622 617 334 295 198 495 72 605 142 837 
346 11 408 199 741 266 385 695 473 259 609 94 170 
347 11 169 525 238 188 693 679 208 711 89 102 858 
348 11 417 712 535 744 242 449 652 849 638 595 647 
349 11 379 112 578 750 511 592 127 828 230 443 40 
350 11 46 411 460 213 396 704 407 306 851 590 854 
351 11 7 352 144 653 156 210 6 466 857 440 73 
352 11 73 6 250 144 351 779 7 565 210 857 440 
353 11 140 68 371 740 323 771 859 438 317 856 76 
354 11 682 157 795 676 310 124 777 551 135 467 574 
355 11 69 570 195 435 678 159 844 499 294 579 49 
356 11 383 697 780 82 240 563 855 137 229 654 21 
357 11 809 477 796 572 293 600 389 38 835 235 641 
358 11 629 154 434 57 175 282 5 128 513 785 101 
359 11 836 97 794 165 451 298 819 569 708 761 79 
360 11 664 171 338 87 627 594 237 703 234 650 549 
361 11 503 698 599 244 524 597 142 508 617 406 620 
362 11 615 253 158 537 802 27 177 393 607 232 442 
363 11 8 226 261 832 260 656 433 122 601 737 386 
364 11 274 538 681 428 228 724 813 162 608 390 39 
365 11 461 560 592 862 511 543 127 405 578 40 750 
366 11 825 292 84 794 643 298 97 185 689 291 359 
367 11 206 94 109 186 824 687 199 741 346 852 331 
368 11 149 770 479 509 258 75 133 12 453 573 714 
369 11 192 489 668 251 341 725 610 481 60 119 772 
370 11 272 548 465 337 696 212 785 154 325 758 434 
371 11 68 317 353 438 323 76 140 740 273 62 181 
372 11 433 163 182 601 28 656 231 386 651 122 658 
373 11 153 216 217 710 77 520 692 721 598 430 506 
374 11 445 496 336 130 532 671 554 236 776 559 723 
375 11 648 19 460 850 407 350 46 585 241 396 704 
376 10 751 474 299 419 70 801 225 129 589 789 
377 11 240 633 456 137 469 574 654 780 124 301 467 
378 11 143 164 56 473 170 686 58 412 178 259 167 
379 11 349 112 578 750 230 511 592 443 127 209 828 
380 11 212 763 400 111 696 16 370 337 673 733 325 
381 11 839 219 587 64 126 729 669 817 705 513 315 
382 11 739 257 432 128 423 57 392 175 613 282 629 
383 11 356 780 697 240 137 654 82 765 377 633 798 
384 11 271 749 480 829 458 566 26 769 88 516 159 
385 11 346 408 266 473 588 378 143 199 164 167 695 
386 11 122 656 433 372 288 276 601 231 163 363 182 
387 11 632 484 670 32 534 52 269 322 296 582 50 
388 11 805 864 736 158 131 768 362 830 241 615 232 
389 11 477 600 539 809 38 720 357 81 717 293 572 
390 11 162 813 110 441 428 224 724 274 311 681 364 
391 11 554 712 260 517 336 8 242 261 445 706 417 
392 11 423 128 432 175 282 739 382 628 584 5 785 
393 11 27 537 820 253 313 45 442 847 615 118 571 
394 11 342 512 675 497 510 518 699 22 550 208 215 
395 11 715 468 730 307 296 269 120 250 528 857 565 
396 11 306 411 116 350 46 854 851 677 462 631 213 
397 11 184 30 289 193 788 343 3 414 285 24 249 
398 11 589 810 218 655 440 466 505 821 419 653 6 
399 11 781 519 297 624 552 152 784 63 500 78 514 
400 11 380 212 763 529 325 108 696 548 370 111 11 
401 11 455 760 636 33 418 202 639 543 547 332 634 
402 11 716 211 714 803 457 221 420 412 149 258 259 
403 11 732 540 674 422 786 174 873 431 491 265 872 
404 11 807 320 494 222 409 528 307 782 416 17 715 
405 11 862 312 99 55 239 546 799 461 413 168 834 
406 11 524 508 597 193 142 397 562 184 289 503 343 
407 11 460 850 585 46 350 96 704 327 375 151 648 
408 11 346 741 199 266 695 259 473 609 385 803 170 
409 11 807 17 416 404 470 320 853 494 833 637 222 
410 11 248 447 246 425 173 430 498 707 791 329 645 
411 11 851 306 854 396 46 350 213 704 590 555 580 
412 11 170 402 803 56 259 716 58 473 714 211 420 
413 11 239 190 55 546 196 312 868 613 99 405 799 
414 11 3 24 553 249 285 289 343 255 35 12 30 
415 11 811 83 15 286 482 502 694 267 66 117 603 
416 11 409 807 853 17 404 470 494 814 320 222 452 
417 11 348 712 744 449 242 849 535 638 652 595 554 
418 11 219 455 839 587 381 64 705 543 33 202 729 
419 10 490 810 589 751 398 505 376 701 440 6 
420 11 457 803 221 211 402 644 716 259 731 714 149 
421 11 65 135 486 551 80 870 840 310 354 682 557 
422 11 674 344 403 872 724 732 228 540 786 110 431 
423 11 432 392 739 382 257 613 628 128 175 282 584 
424 11 867 783 492 630 642 591 863 86 743 494 330 
425 11 173 791 246 138 430 447 248 410 91 692 13 
426 11 661 308 322 690 520 582 217 50 598 77 387 
427 11 621 448 657 660 207 842 95 156 595 31 652 
428 11 813 162 274 390 608 364 224 538 262 110 681 
429 11 841 340 843 533 526 148 160 865 233 735 844 
430 11 246 692 710 173 77 425 153 373 447 791 248 
431 11 491 319 732 265 71 197 48 291 44 873 403 
432 11 423 739 382 257 392 613 128 628 175 282 57 
433 11 372 601 656 182 386 163 122 28 363 651 737 
434 11 154 758 290 337 5 358 629 785 272 175 282 
435 11 570 49 26 844 355 678 88 829 458 533 769 
436 11 767 106 227 4 93 10 874 454 74 502 596 
437 11 583 245 172 121 725 626 713 762 506 41 369 
438 11 323 371 772 68 740 808 353 317 481 140 610 
439 11 646 384 271 566 749 146 687 186 662 480 852 
440 11 466 6 144 505 653 810 7 352 398 655 218 
441 11 110 390 162 283 649 311 344 224 813 247 872 
442 11 23 313 521 571 820 302 728 800 393 607 501 
443 11 209 230 112 797 379 750 349 268 578 564 99 
444 11 220 223 180 231 861 105 831 522 623 816 625 
445 11 336 374 554 391 496 744 449 130 712 532 723 
446 11 558 244 698 191 309 334 617 314 361 243 503 
447 11 248 410 246 425 173 430 498 692 707 791 329 
448 11 621 657 427 31 595 652 156 655 660 849 218 
449 11 638 744 756 417 348 640 647 712 723 150 336 
450 11 563 84 291 569 366 753 82 44 71 523 825 
451 11 165 761 819 836 359 569 684 97 753 523 794 
452 11 814 853 42 470 416 409 17 807 404 494 833 
453 11 35 12 75 249 133 343 479 770 24 289 3 
454 11 874 29 79 106 689 298 227 436 708 767 4 
455 11 418 587 839 705 219 401 568 381 729 487 126 
456 11 574 467 748 124 676 795 377 310 633 682 2 
457 11 221 211 420 402 716 149 803 714 203 644 561 
458 11 159 829 26 195 49 435 88 355 570 480 749 
459 11 89 102 141 288 679 188 276 122 386 656 711 
460 11 407 350 46 850 375 585 648 704 96 327 213 
461 11 862 405 99 312 365 560 546 55 239 799 168 
462 11 691 277 116 471 677 306 564 396 854 631 868 
463 11 166 85 614 328 92 115 576 107 612 734 229 
464 11 235 641 683 835 9 476 734 303 819 761 581 
465 11 785 272 5 370 548 161 282 175 154 256 128 
466 11 440 144 6 653 7 505 810 352 655 351 218 
467 11 574 748 124 456 676 795 310 682 2 377 633 
468 11 730 715 395 120 307 565 250 779 73 296 528 
469 11 798 301 137 633 654 765 377 746 240 287 456 
470 11 17 409 853 814 807 416 42 833 404 637 452 
471 11 691 462 116 677 277 631 564 268 396 306 868 
472 11 663 324 659 107 176 612 13 316 91 138 576 
473 11 170 378 412 259 695 266 56 803 143 58 164 
474 11 299 225 376 647 129 751 821 70 640 756 567 
475 11 37 527 669 817 290 126 315 305 823 729 758 
476 11 581 303 835 464 734 539 235 115 9 720 576 
477 11 809 357 600 389 572 38 796 293 539 835 717 
478 11 635 838 201 603 482 51 549 742 806 83 694 
479 11 770 509 12 453 368 75 35 133 258 14 562 
480 11 749 769 516 88 829 26 271 49 384 458 435 
481 11 772 808 610 323 740 762 438 725 192 489 369 
482 11 83 603 415 694 478 811 635 15 286 502 650 
483 11 160 18 148 233 788 30 184 340 281 397 735 
484 11 32 269 632 52 534 210 387 296 857 680 670 
485 11 204 20 875 596 848 321 873 10 593 155 197 
486 11 65 840 421 870 90 557 80 119 651 658 135 
487 11 568 305 774 315 705 729 823 126 669 699 587 
488 11 790 507 865 526 233 136 620 148 160 822 483 
489 11 192 251 60 369 668 119 610 90 34 341 481 
490 10 419 701 47 279 789 751 187 505 810 611 
491 11 431 319 265 197 732 71 873 74 291 403 48 
492 11 863 630 86 591 642 330 515 782 743 494 611 
493 11 183 754 53 273 62 76 317 181 216 721 92 
494 11 222 642 404 591 782 630 320 863 528 807 492 
495 11 605 142 295 198 14 837 72 562 597 622 778 
496 11 130 532 559 514 723 374 671 78 150 336 445 
497 11 510 262 342 608 394 22 39 538 512 428 274 
498 11 329 645 707 692 77 710 246 430 447 248 410 
499 11 179 775 69 281 688 804 294 255 678 285 355 
500 11 784 567 129 70 640 624 150 474 756 67 299 
501 11 666 618 860 521 604 23 571 302 728 59 54 
502 11 286 93 436 767 66 106 117 415 227 694 454 
503 11 599 361 244 698 620 508 524 406 597 136 142 
504 11 270 869 304 588 264 764 793 738 167 531 178 
505 11 440 810 6 466 144 653 7 398 352 701 419 
506 11 598 762 520 217 808 725 481 772 437 721 438 
507 11 790 136 488 620 205 822 139 865 508 526 599 
508 11 524 406 597 193 503 599 397 620 142 361 562 
509 11 770 479 258 368 14 453 573 12 75 35 133 
510 11 497 262 342 608 394 22 39 512 538 208 428 
511 11 592 127 578 40 828 349 750 530 365 672 112 
512 11 208 858 550 214 394 634 510 342 497 525 568 
513 11 101 57 64 168 358 817 834 629 381 560 257 
514 11 559 130 532 723 152 496 78 150 671 552 567 
515 11 279 611 782 86 586 187 815 863 330 591 630 
516 11 769 88 480 26 829 49 749 435 570 271 458 
517 11 261 832 226 706 818 665 845 114 8 260 391 
518 11 675 215 699 718 673 823 774 111 342 22 394 
519 11 297 624 399 781 63 784 866 500 552 147 129 
520 11 217 598 506 661 373 426 762 308 153 710 77 
521 11 23 442 302 571 313 501 604 607 728 800 666 
522 11 625 98 816 105 224 311 339 220 444 180 223 
523 11 753 21 684 82 569 229 697 451 85 165 450 
524 11 508 406 597 142 193 503 599 361 397 562 620 
525 11 347 169 188 208 238 711 512 679 858 693 510 
526 11 865 233 148 160 488 340 483 429 841 843 790 
527 11 290 37 758 475 337 16 434 718 673 696 154 
528 11 307 815 320 715 730 222 468 586 395 187 782 
529 11 11 667 108 400 96 604 327 585 151 325 302 
530 11 828 40 284 127 672 511 263 592 332 349 578 
531 11 764 783 867 743 194 424 145 275 330 793 866 
532 11 723 130 514 150 496 559 638 449 640 756 78 
533 11 843 844 735 841 340 570 435 678 49 429 148 
534 11 52 680 484 632 32 210 387 842 156 269 351 
535 11 821 225 647 299 589 652 348 218 398 31 655 
536 11 742 20 204 155 848 45 485 847 694 118 875 
537 11 27 253 393 802 45 615 806 820 847 362 118 
538 11 274 364 608 39 428 681 22 813 262 497 162 
539 11 720 303 389 476 835 81 581 685 600 477 464 
540 11 174 786 403 873 732 593 759 123 252 265 197 
541 11 731 871 826 644 43 556 134 700 100 203 561 
542 11 331 619 236 693 238 776 169 547 577 639 347 
543 11 202 33 672 760 332 365 40 418 127 592 511 
544 11 845 665 787 114 827 326 341 737 25 818 832 
545 11 189 67 801 766 789 254 147 70 275 611 751 
546 11 99 239 312 413 55 405 190 862 799 461 868 
547 11 636 639 401 542 693 634 455 214 760 858 33 
548 11 325 370 256 465 161 272 580 785 555 212 5 
549 11 201 51 838 234 478 703 635 603 482 627 650 
550 11 214 634 512 858 208 568 394 487 774 342 305 
551 11 135 80 421 861 65 354 231 831 180 223 28 
552 11 152 78 781 399 514 559 671 130 519 624 532 
553 11 24 414 3 249 285 133 75 255 12 343 804 
554 11 336 391 712 744 445 417 449 348 242 638 260 
555 11 580 590 256 161 213 151 704 327 325 851 548 
556 11 700 43 100 662 195 566 541 159 579 731 134 
557 11 90 840 870 34 2 119 60 486 757 310 65 
558 11 446 191 243 309 244 698 314 334 361 617 139 
559 11 514 130 532 496 78 152 671 723 150 552 577 
560 11 64 168 862 461 101 405 365 799 513 834 55 
561 11 203 134 602 294 575 579 688 179 221 804 69 
562 11 193 35 453 479 597 343 509 14 142 495 770 
563 11 450 84 291 82 569 753 44 71 366 48 523 
564 11 868 268 277 190 691 462 196 413 471 797 239 
565 11 779 73 250 120 352 857 701 6 47 468 730 
566 11 662 556 700 146 458 100 159 195 43 384 852 
567 11 500 640 129 784 150 756 474 70 647 299 723 
568 11 487 705 774 305 315 729 823 126 669 550 587 
569 11 753 523 165 451 684 359 450 21 82 836 84 
570 11 435 49 844 355 26 678 88 829 533 458 159 
571 11 313 23 728 442 800 521 59 820 501 666 860 
572 11 293 796 357 809 600 477 235 641 835 267 389 
573 11 778 837 14 258 72 509 605 198 770 479 295 
574 11 467 748 124 456 676 795 310 682 377 2 240 
575 11 602 688 804 561 203 179 133 294 75 134 149 
576 11 612 107 316 581 463 476 685 176 303 663 472 
577 11 671 776 78 130 496 559 152 374 514 236 552 
578 11 750 511 592 349 112 379 127 365 40 461 828 
579 11 134 294 561 43 203 69 100 602 688 195 179 
580 11 555 256 590 161 213 151 325 704 327 548 584 
581 11 476 303 835 576 734 539 115 464 720 235 9 
582 11 322 41 308 626 387 632 713 426 661 583 121 
583 11 245 121 172 437 626 713 41 725 827 582 132 
584 11 628 392 161 423 432 465 128 175 282 555 5 
585 11 96 850 407 667 11 327 460 151 704 529 46 
586 11 187 815 47 279 528 120 701 782 730 468 515 
587 11 839 381 219 705 126 729 669 315 418 64 817 
588 11 385 738 270 869 346 167 178 143 408 378 266 
589 10 398 821 810 218 419 655 505 535 225 440 
590 11 213 555 580 704 151 327 256 851 161 411 325 
591 11 642 630 863 492 86 782 494 515 222 330 815 
592 11 511 127 578 40 828 750 365 349 672 530 112 
593 11 759 709 252 123 174 848 118 155 485 847 540 
594 11 627 726 747 171 234 703 360 338 664 549 768 
595 11 657 849 113 448 242 427 621 652 31 660 95 
596 11 10 875 321 93 767 204 227 485 74 436 4 
597 11 142 406 524 508 562 495 193 361 605 503 14 
598 11 506 520 762 217 808 725 373 721 772 481 216 
599 11 503 244 361 698 620 508 524 136 406 597 205 
600 11 809 293 477 572 357 389 796 835 235 539 303 
601 11 182 433 372 737 25 28 651 163 658 656 326 
602 11 575 561 203 688 294 134 804 179 221 579 133 
603 11 482 83 478 635 694 742 415 201 838 536 286 
604 11 302 108 501 521 607 23 618 529 442 666 177 
605 11 495 837 295 14 198 72 778 573 142 562 509 
606 11 637 670 50 833 296 395 269 387 715 307 32 
607 11 177 302 521 442 232 23 604 313 362 571 108 
608 11 262 538 497 428 274 510 364 39 813 22 342 
609 11 826 871 644 731 541 695 420 741 259 803 266 
610 11 481 740 772 192 323 489 808 60 438 369 34 
611 11 515 789 189 279 254 330 490 545 801 86 187 
612 11 107 576 316 663 472 176 463 92 614 324 659 
613 11 257 432 423 739 382 196 55 413 799 834 392 
614 11 92 166 53 328 463 754 181 846 62 752 859 
615 11 253 362 802 537 27 393 806 830 158 45 442 
616 11 746 752 287 328 846 765 798 301 469 654 137 
617 11 334 622 345 745 361 698 142 314 244 446 495 
618 11 54 666 812 36 104 501 280 860 604 103 773 
619 11 331 542 776 577 236 738 206 671 78 547 552 
620 11 136 599 503 205 507 508 524 244 361 139 406 
621 11 448 427 657 31 156 595 652 660 207 655 842 
622 11 345 745 617 295 495 198 142 334 605 72 837 
623 11 831 180 311 223 861 283 649 157 220 444 551 
624 11 519 784 399 781 297 500 63 129 70 567 147 
625 11 98 522 816 105 224 311 339 220 180 223 444 
626 11 713 41 121 583 245 172 437 582 132 827 95 
627 11 594 726 234 703 747 171 549 237 51 201 360 
628 11 584 392 423 432 739 613 128 382 196 161 175 
629 11 175 358 282 128 5 154 785 434 57 382 739 
630 11 863 591 492 642 86 782 330 515 494 222 611 
631 11 677 116 471 396 462 691 306 411 277 350 854 
632 11 387 484 534 52 32 269 680 670 296 210 857 
633 11 301 469 798 137 377 654 240 456 765 467 574 
634 11 214 550 858 208 512 639 568 487 394 455 705 
635 11 478 603 838 742 201 806 482 536 83 694 45 
636 11 547 401 639 455 634 693 214 760 33 858 418 
637 11 606 833 50 670 690 296 387 395 269 715 307 
638 11 449 744 756 640 647 150 723 417 348 225 299 
639 11 634 214 693 858 550 636 208 401 512 238 169 
640 11 756 647 567 150 638 299 474 225 449 723 500 
641 11 235 464 683 9 835 293 572 708 819 79 117 
642 11 591 630 863 492 86 494 782 222 515 330 815 
643 11 185 292 689 825 74 4 298 366 874 794 106 
644 11 871 731 826 541 420 609 457 221 803 203 134 
645 11 329 498 707 692 77 710 246 430 447 248 410 
646 11 439 687 186 384 146 271 566 852 662 749 109 
647 11 225 299 756 640 474 535 821 638 449 348 567 
648 11 375 19 460 407 850 350 46 585 396 241 704 
649 11 283 247 777 157 623 311 441 855 831 110 180 
650 11 237 811 703 15 234 415 482 83 267 603 796 
651 11 28 182 658 163 80 601 25 372 231 486 326 
652 11 31 448 218 655 657 621 535 595 427 849 398 
653 11 7 144 466 440 6 351 655 218 352 505 156 
654 11 137 798 469 301 765 633 240 377 780 746 287 
655 11 218 31 653 398 7 466 144 440 652 810 6 
656 11 122 386 433 372 363 601 288 182 8 163 28 
657 11 448 595 621 427 31 849 652 113 660 156 207 
658 11 651 25 182 326 28 601 163 486 737 80 341 
659 11 324 13 91 472 663 176 138 300 107 316 702 
660 11 95 207 842 427 132 621 657 113 448 595 680 
661 11 426 308 322 520 690 217 582 598 50 506 77 
662 11 556 146 566 700 852 43 100 541 195 826 159 
663 11 472 107 324 612 659 176 13 316 138 92 576 
664 11 338 360 171 87 594 627 237 703 234 650 726 
665 11 114 845 544 737 832 226 517 261 25 787 326 
666 11 860 501 618 59 54 728 812 571 800 36 104 
667 11 11 585 96 529 232 850 327 151 177 241 407 
668 11 251 341 489 369 192 119 60 326 90 840 486 
669 11 126 315 729 475 305 817 705 823 381 487 774 
670 11 606 637 50 387 296 632 269 484 32 395 833 
671 11 78 577 130 559 496 514 152 532 776 552 374 
672 11 40 332 127 543 828 202 530 511 33 592 760 
673 11 718 16 37 111 215 527 696 290 758 337 475 
674 11 422 403 344 872 732 724 228 540 431 786 48 
675 11 518 699 215 342 823 718 774 673 22 394 111 
676 11 124 795 574 467 682 748 456 310 377 240 2 
677 11 631 116 471 462 396 691 306 277 411 854 350 
678 11 844 735 355 281 499 570 69 435 18 843 533 
679 11 188 89 459 102 711 141 276 288 61 339 122 
680 11 534 52 842 207 156 95 632 484 660 427 32 
681 11 228 724 364 274 390 162 422 538 813 674 428 
682 11 795 676 124 310 574 748 467 456 354 377 240 
683 11 9 641 235 464 819 708 761 79 29 734 835 
684 11 523 21 85 753 451 569 165 229 82 115 761 
685 11 720 81 316 318 539 176 576 300 303 581 612 
686 11 56 164 58 143 378 170 412 745 178 345 72 
687 11 186 646 439 109 852 146 824 566 662 384 271 
688 11 179 804 575 602 294 775 499 561 203 553 134 
689 11 185 643 292 298 874 4 825 74 454 106 794 
690 11 50 322 426 308 833 661 637 670 606 387 582 
691 11 462 277 471 116 564 677 868 306 854 268 396 
692 11 77 710 430 246 373 153 498 645 329 217 707 
693 11 238 169 347 639 525 858 208 634 214 512 550 
694 11 83 482 502 603 415 93 286 536 742 20 204 
695 11 259 266 803 473 170 420 412 609 402 644 457 
696 11 337 212 370 758 16 272 290 380 527 434 673 
697 11 229 82 383 21 356 765 523 753 137 654 780 
698 11 244 361 503 599 446 617 620 334 524 142 508 
699 11 518 675 215 823 774 718 305 673 487 37 16 
700 11 556 100 43 195 159 662 566 579 541 134 458 
701 11 47 779 120 565 505 187 490 73 6 250 810 
702 11 335 91 719 755 300 13 659 324 176 318 472 
703 11 234 237 650 549 627 201 51 171 838 482 478 
704 11 213 590 151 327 555 46 580 350 851 96 411 
705 11 729 126 315 487 587 669 305 568 839 774 381 
706 11 818 113 517 845 787 242 665 849 132 544 595 
707 11 329 645 498 692 77 447 246 710 248 410 430 
708 11 79 29 97 836 819 298 454 359 794 683 761 
709 11 759 593 118 252 848 123 847 155 174 485 820 
710 11 77 692 373 430 153 217 246 520 498 645 329 
711 11 61 339 679 188 276 262 816 459 89 105 522 
712 11 417 348 242 744 554 849 391 449 595 638 336 
713 11 626 121 41 245 172 583 132 827 95 437 207 
714 11 716 211 149 258 402 573 368 221 778 457 509 
715 11 395 307 468 730 296 528 120 250 269 565 779 
716 11 714 402 211 149 221 457 258 368 573 803 412 
717 11 81 278 38 389 727 720 200 539 477 318 685 
718 11 673 16 37 215 111 527 290 475 823 696 699 
719 11 755 300 702 318 335 91 176 13 659 685 278 
720 11 539 81 685 303 389 476 581 717 835 600 318 
721 11 216 183 273 317 438 371 76 153 68 493 808 
722 11 379 230 349 112 443 263 209 578 750 530 511 
723 11 532 150 514 130 496 559 638 640 449 756 744 
724 11 228 681 422 674 364 390 110 162 274 403 344 
725 11 762 437 481 808 369 506 772 610 192 583 598 
726 11 747 627 768 594 131 51 549 201 838 234 703 
727 11 200 278 717 38 81 318 389 477 720 685 539 
728 11 800 59 571 313 860 23 666 820 123 442 501 
729 11 126 315 669 705 305 487 587 823 475 774 839 
730 11 468 715 395 120 307 565 250 779 528 73 296 
731 11 541 871 644 826 134 43 203 561 420 556 457 
732 11 403 431 491 674 540 265 873 422 197 872 319 
733 11 103 773 280 36 104 763 54 111 812 380 618 
734 11 115 9 761 819 464 476 85 451 581 683 165 
735 11 843 18 340 678 844 281 160 148 483 533 255 
736 11 131 830 388 805 864 158 615 802 768 362 253 
737 11 114 25 601 665 326 832 226 182 658 261 433 
738 11 588 270 869 297 399 552 781 793 519 152 78 
739 11 382 432 257 423 128 392 57 613 175 282 629 
740 11 323 353 68 438 610 772 140 371 481 771 757 
741 11 199 408 346 266 609 695 824 259 109 826 871 
742 11 536 20 45 204 155 635 694 848 603 847 485 
743 11 194 330 275 254 86 492 145 863 867 189 630 
744 11 449 638 417 712 348 336 554 756 647 723 640 
745 11 345 622 295 198 617 334 72 495 605 142 837 
746 11 287 616 301 469 798 752 765 654 846 137 633 
747 11 726 768 131 627 594 51 549 201 838 736 830 
748 11 467 574 124 456 676 795 310 682 2 377 633 
749 11 480 271 384 769 829 516 88 26 458 49 435 
750 11 578 112 349 592 511 379 461 797 99 365 127 
751 10 376 419 789 801 490 474 70 589 299 67 
752 11 846 616 859 328 746 287 181 140 856 771 301 
753 11 523 569 82 21 684 229 450 451 563 165 697 
754 11 53 493 62 183 273 181 76 317 92 614 859 
755 11 300 719 318 702 176 91 335 13 659 685 316 
756 11 640 647 638 299 150 449 567 225 474 723 744 
757 11 771 856 34 60 140 2 119 557 353 740 90 
758 11 290 337 527 434 154 696 272 37 16 370 475 
759 11 252 593 709 123 118 174 848 847 155 540 786 
760 11 33 202 332 543 672 418 401 40 455 365 127 
761 11 819 165 451 9 836 734 359 115 683 708 97 
762 11 506 808 725 598 481 772 438 437 610 323 520 
763 11 380 111 733 212 400 103 280 773 16 673 696 
764 11 531 793 866 145 743 783 869 63 194 867 275 
765 11 654 137 798 469 301 633 746 616 240 377 697 
766 11 147 545 67 275 145 189 254 801 194 70 789 
767 11 436 227 106 93 4 10 874 74 454 596 502 
768 11 747 131 726 736 805 388 830 51 549 627 864 
769 11 88 516 480 26 829 49 749 435 458 570 271 
770 11 479 509 368 12 453 258 75 133 35 14 573 
771 11 856 757 140 353 287 34 740 859 746 68 60 
772 11 808 481 323 438 610 740 762 68 371 353 725 
773 11 103 733 280 104 36 54 812 763 39 618 22 
774 11 823 305 487 315 699 568 729 669 126 705 215 
775 11 179 804 499 255 281 285 553 688 414 3 24 
776 11 577 236 671 374 496 78 130 559 445 514 152 
777 11 157 247 354 649 855 283 780 682 356 240 623 
778 11 573 837 14 72 258 605 198 295 509 495 770 
779 11 565 73 250 120 352 701 6 47 857 468 730 
780 11 240 383 377 137 654 356 633 456 469 676 798 
781 11 399 519 624 552 297 152 784 500 514 78 559 
782 11 222 815 586 515 591 528 642 494 187 279 630 
783 11 867 424 531 743 492 630 86 863 330 642 194 
784 11 500 129 567 624 70 640 67 150 519 474 756 
785 11 5 282 175 465 154 128 272 629 434 392 370 
786 11 540 174 403 123 759 252 593 732 873 674 709 
787 11 827 544 845 665 818 706 132 114 121 172 245 
788 11 30 184 255 285 397 18 483 3 289 414 281 
789 10 611 801 189 490 751 545 67 279 376 419 
790 11 507 488 136 620 822 865 205 139 526 233 508 
791 11 173 425 138 246 430 324 13 91 153 447 659 
792 11 333 314 309 334 345 617 191 745 446 178 622 
793 11 866 63 764 297 869 145 519 147 399 624 766 
794 11 97 298 359 836 292 366 689 825 643 708 79 
795 11 676 124 682 574 748 310 467 456 377 354 2 
796 11 572 293 357 809 600 477 267 641 235 15 389 
797 11 268 190 546 564 99 209 312 868 239 413 443 
798 11 469 301 654 137 633 765 377 746 287 240 616 
799 11 834 55 168 257 405 239 613 57 862 312 382 
800 11 728 59 571 313 820 123 252 23 442 860 759 
801 10 67 545 789 189 70 751 376 129 766 254 
802 11 806 537 253 615 830 27 45 393 362 635 742 
803 11 259 420 402 412 457 211 695 716 170 221 714 
804 11 688 179 775 553 575 133 24 75 499 602 285 
805 11 388 864 736 768 131 158 830 241 362 615 747 
806 11 802 45 537 635 830 253 742 478 27 615 393 
807 11 409 404 17 416 320 494 470 222 307 528 606 
808 11 772 481 762 438 323 610 725 740 506 68 371 
809 11 357 477 600 572 293 796 389 38 835 539 235 
810 11 505 440 398 466 6 144 589 653 218 419 655 
811 11 15 415 267 286 83 66 482 650 117 502 694 
812 11 54 104 36 618 280 666 103 773 860 501 733 
813 11 162 390 428 224 110 274 441 364 98 625 681 
814 11 452 853 42 470 17 416 409 807 404 707 833 
815 11 586 187 528 782 222 279 47 730 120 468 307 
816 11 522 625 98 105 224 339 311 61 220 444 180 
817 11 475 669 126 290 513 527 729 315 381 358 37 
818 11 706 113 845 517 787 242 665 849 132 827 544 
819 11 761 165 451 9 836 708 359 683 97 79 734 
820 11 313 393 800 27 571 118 123 847 252 728 442 
821 11 535 225 589 299 398 647 218 474 652 655 810 
822 11 125 139 205 790 507 136 620 488 243 599 244 
823 11 774 305 315 487 699 669 37 475 729 126 215 
824 11 109 852 146 609 741 826 871 662 199 186 541 
825 11 292 366 643 185 689 298 794 74 84 4 319 
826 11 871 541 731 644 609 556 420 43 662 700 852 
827 11 787 121 172 544 132 245 845 713 583 818 626 
828 11 530 40 127 511 672 592 284 332 578 263 349 
829 11 26 88 458 769 480 49 516 749 435 570 159 
830 11 802 806 736 131 51 615 838 253 635 478 537 
831 11 180 623 861 223 220 311 551 444 135 283 157 
832 11 226 261 517 114 665 737 363 8 845 260 544 
833 11 637 50 606 690 670 322 387 17 296 308 426 
834 11 168 799 57 257 382 739 55 613 432 101 405 
835 11 464 303 235 476 641 600 581 539 293 683 9 
836 11 359 97 165 794 451 819 298 708 761 79 29 
837 11 778 14 72 573 605 198 295 258 495 509 770 
838 11 201 51 478 549 635 603 482 806 830 83 234 
839 11 587 381 219 705 126 729 669 418 64 315 817 
840 11 870 90 557 119 486 2 34 65 60 421 310 
841 11 429 533 843 340 148 160 526 735 844 865 233 
842 11 207 95 660 680 427 132 534 621 52 156 448 
843 11 340 735 160 148 533 844 18 678 841 483 429 
844 11 678 570 735 435 533 843 355 49 281 340 18 
845 11 544 665 787 114 818 706 517 827 832 261 737 
846 11 752 616 859 328 746 287 181 140 856 62 771 
847 11 118 155 848 709 45 759 252 593 820 123 536 
848 11 155 118 709 847 593 485 20 759 204 536 252 
849 11 595 242 113 657 448 652 427 348 621 712 31 
850 11 407 585 460 375 667 96 241 648 19 11 46 
851 11 411 854 213 306 590 704 46 555 350 396 580 
852 11 146 662 824 109 566 556 826 871 541 700 609 
853 11 416 814 452 470 409 17 807 42 404 494 320 
854 11 851 306 411 396 213 628 584 590 46 350 555 
855 11 247 44 48 777 356 563 649 71 157 291 872 
856 11 771 757 140 287 353 746 34 859 740 301 752 
857 11 210 250 269 32 73 352 351 565 296 484 779 
858 11 208 214 634 512 550 639 394 525 693 568 347 
859 11 181 846 752 140 76 353 62 68 317 371 856 
860 11 666 59 501 728 618 812 800 54 571 23 104 
861 11 223 180 831 551 623 220 135 231 444 80 311 
862 11 405 461 312 99 55 546 799 239 560 168 834 
863 11 86 630 492 591 642 330 515 782 611 494 222 
864 11 388 805 158 736 241 232 362 19 615 131 177 
865 11 526 488 233 148 160 429 340 790 483 507 841 
866 11 63 145 147 766 297 519 275 624 793 194 67 
867 11 424 783 743 492 630 86 531 863 330 642 591 
868 11 190 196 564 277 413 239 546 268 613 691 55 
869 11 270 793 764 738 866 63 297 519 531 145 399 
870 11 840 557 90 2 65 486 34 119 310 421 748 
871 11 826 541 644 731 609 420 556 43 134 457 662 
872 11 344 48 44 674 422 71 732 431 403 855 291 
873 11 265 197 174 540 485 491 732 321 593 403 431 
874 11 454 106 689 227 4 436 298 185 767 29 643 
875 11 596 10 321 485 204 93 20 197 767 74 227 
DEPOT_SECTION
   1
   -1
EOF
