NAME :  X-n895-kX-w357-c9.cctp
COMMENT : 	Adapted by Maziero, Usberti and Cavellucci from the Uchoa, Pecin, Pessoa, Poggi, Subramanian, and Vidal (2013)
TYPE :  CCTP
DIMENSION :    889
EDGE_WEIGHT_TYPE : 	EUC_2D	
CAPACITY : 	1816
VERTICES_WITHIN_COVERAGE :  9
VERTICES_WITH_DEMAND : 	357
NODE_COORD_SECTION
1 706 137
2 392 662
3 692 274
4 944 370
5 726 945
6 869 43
7 621 770
8 112 402
9 523 374
10 619 178
11 553 457
12 95 814
13 696 130
14 27 417
15 940 487
16 943 965
17 670 435
18 931 752
19 307 776
20 404 101
21 199 526
22 117 312
23 762 505
24 433 864
25 868 155
26 832 870
27 488 624
28 686 782
29 585 89
30 268 339
31 248 344
32 22 776
33 89 614
34 75 271
35 882 646
36 6 656
37 449 27
38 857 362
39 809 774
40 403 626
41 559 145
42 667 945
43 524 737
44 683 777
45 641 798
46 514 495
47 102 813
48 517 591
49 748 330
50 859 127
51 699 41
52 281 442
53 257 106
54 116 99
55 41 732
56 555 95
57 378 1
58 155 308
59 942 955
60 619 205
61 646 910
62 796 791
63 785 49
64 958 817
65 424 240
66 311 226
67 37 119
68 761 866
69 404 417
70 929 432
71 743 535
72 418 679
73 107 379
74 329 868
75 22 432
76 24 474
77 380 83
78 145 135
79 576 209
80 877 859
81 901 0
82 464 473
83 181 35
84 976 331
85 672 617
86 324 264
87 193 341
88 525 782
89 527 935
90 218 529
91 48 325
92 431 989
93 626 974
94 594 432
95 757 450
96 805 123
97 959 266
98 348 776
99 409 946
100 458 247
101 841 361
102 333 503
103 675 306
104 407 811
105 418 325
106 856 199
107 300 792
108 371 156
109 163 237
110 172 589
111 609 928
112 273 18
113 379 694
114 996 38
115 4 6
116 738 18
117 693 307
118 989 54
119 468 585
120 594 172
121 563 205
122 271 783
123 58 987
124 374 383
125 775 530
126 913 512
127 413 798
128 813 948
129 943 941
130 437 169
131 247 374
132 347 51
133 8 111
134 321 825
135 854 335
136 619 272
137 742 232
138 496 187
139 605 66
140 973 75
141 241 509
142 845 106
143 451 217
144 955 319
145 432 662
146 704 73
147 418 205
148 817 754
149 570 429
150 362 720
151 114 713
152 11 516
153 737 62
154 563 318
155 222 187
156 697 638
157 343 830
158 1 279
159 3 342
160 231 539
161 628 515
162 827 658
163 801 656
164 679 529
165 158 918
166 142 648
167 530 874
168 305 312
169 328 352
170 501 82
171 189 506
172 78 479
173 863 149
174 413 938
175 353 328
176 173 12
177 311 155
178 839 829
179 674 882
180 463 786
181 554 231
182 693 512
183 382 975
184 28 64
185 298 757
186 343 385
187 789 178
188 650 2
189 580 122
190 111 986
191 779 332
192 311 146
193 263 238
194 770 491
195 319 39
196 703 930
197 539 28
198 45 221
199 954 171
200 714 181
201 428 934
202 120 134
203 301 361
204 940 618
205 277 407
206 126 331
207 564 510
208 177 346
209 265 422
210 651 553
211 19 286
212 928 367
213 894 965
214 232 681
215 523 620
216 894 67
217 498 538
218 864 235
219 8 209
220 482 729
221 736 659
222 491 881
223 990 18
224 303 19
225 98 362
226 513 920
227 54 777
228 669 503
229 401 696
230 282 796
231 373 477
232 97 129
233 289 226
234 604 594
235 192 881
236 806 742
237 737 534
238 235 539
239 335 13
240 218 573
241 544 714
242 389 497
243 706 668
244 459 745
245 841 879
246 229 474
247 786 899
248 857 774
249 585 656
250 373 117
251 132 531
252 444 64
253 60 688
254 392 214
255 884 652
256 455 410
257 384 134
258 309 192
259 255 115
260 828 499
261 995 168
262 102 622
263 40 41
264 704 407
265 164 482
266 201 711
267 110 315
268 928 101
269 490 778
270 991 811
271 916 88
272 545 940
273 398 279
274 304 912
275 984 276
276 308 171
277 644 223
278 934 144
279 420 61
280 169 435
281 810 360
282 121 281
283 409 392
284 787 260
285 805 460
286 62 236
287 713 481
288 18 568
289 369 806
290 407 560
291 172 307
292 429 168
293 570 697
294 755 949
295 204 115
296 785 263
297 301 949
298 163 735
299 308 916
300 553 947
301 787 391
302 640 395
303 556 985
304 408 699
305 77 370
306 647 45
307 101 363
308 724 896
309 554 248
310 597 941
311 677 358
312 80 300
313 422 903
314 359 979
315 89 43
316 759 567
317 217 226
318 755 196
319 727 756
320 243 741
321 305 628
322 55 272
323 54 601
324 723 760
325 376 531
326 491 26
327 116 948
328 588 950
329 952 878
330 740 917
331 33 931
332 934 527
333 878 622
334 436 544
335 506 952
336 56 100
337 833 235
338 666 148
339 311 177
340 958 167
341 820 203
342 468 112
343 805 38
344 840 619
345 672 531
346 336 457
347 422 735
348 610 233
349 549 234
350 717 345
351 174 728
352 379 181
353 441 849
354 507 580
355 152 247
356 959 525
357 665 922
358 560 104
359 24 789
360 366 714
361 364 519
362 180 505
363 537 611
364 319 92
365 12 721
366 627 506
367 14 240
368 742 392
369 913 124
370 611 472
371 861 969
372 258 237
373 692 340
374 798 911
375 55 353
376 698 642
377 810 497
378 303 968
379 659 716
380 592 510
381 50 737
382 199 933
383 307 646
384 676 138
385 27 719
386 9 732
387 717 497
388 387 712
389 684 116
390 211 434
391 180 889
392 367 808
393 790 121
394 735 751
395 69 205
396 960 894
397 442 938
398 464 531
399 334 100
400 713 827
401 568 287
402 734 265
403 1 988
404 877 355
405 421 908
406 835 584
407 679 551
408 905 619
409 84 49
410 509 761
411 49 237
412 954 648
413 970 982
414 452 208
415 375 760
416 384 862
417 314 488
418 815 978
419 997 598
420 258 573
421 685 368
422 697 265
423 833 497
424 842 481
425 477 937
426 654 904
427 880 966
428 105 180
429 415 523
430 196 870
431 712 781
432 220 652
433 47 976
434 283 778
435 984 484
436 62 771
437 256 155
438 830 384
439 924 883
440 710 801
441 748 439
442 203 86
443 843 548
444 946 896
445 558 219
446 726 422
447 627 320
448 753 602
449 551 407
450 170 569
451 242 803
452 822 356
453 918 925
454 232 865
455 40 984
456 678 213
457 187 214
458 218 141
459 5 201
460 181 727
461 73 772
462 400 534
463 514 119
464 603 438
465 509 260
466 55 709
467 65 734
468 448 333
469 32 560
470 40 598
471 364 436
472 48 915
473 638 194
474 289 900
475 817 504
476 65 701
477 270 825
478 313 577
479 33 609
480 988 726
481 328 755
482 704 359
483 327 312
484 631 37
485 165 429
486 629 240
487 212 564
488 642 201
489 585 932
490 335 982
491 911 208
492 993 799
493 347 487
494 648 607
495 844 478
496 484 925
497 662 962
498 469 911
499 136 495
500 246 693
501 694 362
502 279 948
503 117 776
504 237 728
505 61 334
506 639 541
507 819 723
508 742 676
509 335 666
510 685 781
511 475 132
512 875 693
513 538 786
514 631 519
515 24 691
516 76 956
517 649 263
518 609 475
519 618 152
520 97 306
521 481 737
522 71 451
523 96 989
524 265 266
525 705 252
526 459 979
527 940 686
528 991 133
529 473 340
530 524 304
531 902 482
532 62 39
533 891 180
534 218 68
535 564 128
536 724 756
537 142 723
538 838 393
539 170 195
540 991 179
541 327 422
542 462 560
543 50 912
544 274 530
545 165 743
546 503 930
547 966 598
548 414 19
549 478 965
550 857 314
551 974 589
552 905 657
553 736 179
554 746 547
555 79 359
556 822 719
557 611 871
558 221 972
559 747 25
560 317 246
561 479 411
562 663 953
563 390 844
564 123 548
565 919 567
566 277 365
567 876 710
568 48 695
569 211 991
570 602 104
571 25 664
572 480 25
573 842 729
574 1000 577
575 113 381
576 884 645
577 998 717
578 161 208
579 366 683
580 302 922
581 71 282
582 608 939
583 463 27
584 857 993
585 155 642
586 188 723
587 39 15
588 248 256
589 549 404
590 577 32
591 180 887
592 251 66
593 780 353
594 925 23
595 229 298
596 467 518
597 629 690
598 767 447
599 609 706
600 101 540
601 285 58
602 151 320
603 405 567
604 266 302
605 737 994
606 979 446
607 709 111
608 773 865
609 301 43
610 98 770
611 186 834
612 638 680
613 122 275
614 818 874
615 587 993
616 581 90
617 675 767
618 394 485
619 233 115
620 523 829
621 258 116
622 540 968
623 530 493
624 91 519
625 504 936
626 919 829
627 456 683
628 114 174
629 869 350
630 648 215
631 72 7
632 122 700
633 137 505
634 799 415
635 14 55
636 852 391
637 925 58
638 896 356
639 1000 181
640 740 435
641 171 685
642 414 107
643 319 3
644 428 407
645 649 573
646 287 377
647 345 908
648 260 775
649 455 930
650 395 17
651 29 545
652 784 396
653 515 475
654 76 518
655 397 332
656 249 19
657 84 948
658 619 511
659 55 952
660 110 785
661 245 598
662 767 266
663 689 850
664 524 721
665 408 696
666 215 198
667 559 740
668 850 248
669 813 23
670 113 360
671 5 103
672 150 678
673 24 381
674 564 946
675 948 682
676 692 713
677 439 83
678 120 789
679 383 989
680 444 944
681 780 460
682 291 865
683 884 797
684 580 354
685 597 359
686 39 789
687 105 650
688 974 818
689 772 641
690 278 318
691 277 353
692 705 598
693 10 683
694 376 850
695 709 481
696 554 851
697 349 880
698 654 921
699 287 871
700 507 121
701 651 137
702 885 710
703 978 127
704 108 383
705 796 535
706 324 120
707 680 848
708 741 55
709 567 356
710 948 484
711 384 849
712 898 609
713 333 274
714 48 119
715 162 955
716 755 16
717 680 28
718 905 694
719 516 164
720 815 264
721 145 502
722 370 139
723 147 867
724 413 855
725 725 215
726 382 152
727 465 342
728 207 306
729 362 832
730 450 698
731 76 260
732 689 652
733 456 653
734 166 505
735 297 183
736 674 941
737 360 125
738 698 567
739 641 61
740 806 739
741 879 332
742 291 644
743 328 738
744 60 626
745 771 498
746 773 764
747 782 446
748 236 699
749 246 489
750 44 716
751 125 308
752 465 68
753 471 311
754 586 559
755 690 839
756 703 363
757 61 613
758 959 114
759 505 443
760 236 226
761 591 180
762 298 472
763 808 917
764 177 815
765 80 442
766 820 484
767 534 945
768 971 304
769 508 967
770 318 272
771 826 605
772 884 385
773 305 965
774 664 720
775 527 864
776 516 762
777 853 785
778 306 979
779 686 79
780 294 656
781 990 418
782 775 966
783 52 500
784 972 304
785 504 998
786 173 863
787 580 766
788 130 459
789 639 292
790 688 616
791 926 405
792 683 889
793 590 217
794 80 441
795 949 339
796 366 878
797 5 325
798 189 316
799 213 379
800 248 724
801 489 309
802 435 486
803 484 727
804 224 242
805 94 504
806 314 961
807 231 474
808 516 264
809 832 385
810 900 15
811 127 103
812 176 136
813 160 67
814 346 693
815 547 990
816 584 219
817 495 809
818 383 299
819 69 896
820 947 391
821 705 505
822 822 909
823 976 477
824 799 545
825 610 193
826 46 858
827 752 779
828 505 89
829 483 553
830 525 251
831 585 737
832 759 448
833 553 402
834 300 459
835 867 678
836 77 562
837 499 201
838 492 616
839 690 820
840 310 386
841 956 549
842 803 123
843 354 770
844 134 392
845 6 687
846 8 147
847 859 27
848 553 65
849 695 997
850 465 120
851 407 480
852 399 411
853 510 499
854 608 240
855 906 910
856 834 444
857 900 358
858 448 970
859 466 485
860 845 701
861 763 376
862 899 267
863 750 729
864 950 497
865 161 440
866 222 709
867 693 594
868 768 305
869 449 937
870 154 151
871 148 376
872 474 526
873 265 553
874 617 328
875 417 672
876 781 526
877 11 580
878 237 863
879 128 92
880 351 810
881 669 575
882 843 769
883 740 767
884 304 526
885 298 862
886 966 953
887 37 837
888 711 961
889 534 28
DEMAND_SECTION
2 67
3 86
4 82
5 99
6 54
7 52
8 54
9 71
10 70
11 61
12 74
13 91
14 97
15 92
16 63
17 84
18 90
19 53
20 66
21 79
22 57
23 53
24 72
25 58
26 94
27 86
28 64
29 74
30 82
31 78
32 77
33 78
34 58
35 51
36 64
37 61
38 87
39 92
40 80
41 62
42 97
43 88
44 78
45 78
46 86
47 75
48 62
49 96
50 82
51 50
52 61
53 86
54 67
55 92
56 57
57 51
58 70
59 93
60 83
61 99
62 64
63 62
64 78
65 64
66 81
67 85
68 56
69 56
70 87
71 91
72 92
73 58
74 68
75 93
76 58
77 98
78 87
79 85
80 94
81 71
82 93
83 50
84 60
85 90
86 95
87 87
88 85
89 79
90 54
91 89
92 98
93 98
94 85
95 97
96 94
97 69
98 62
99 56
100 98
101 65
102 55
103 93
104 52
105 69
106 60
107 97
108 55
109 85
110 52
111 66
112 72
113 69
114 50
115 73
116 54
117 74
118 93
119 84
120 69
121 99
122 74
123 94
124 98
125 55
126 95
127 74
128 88
129 100
130 79
131 85
132 78
133 71
134 96
135 96
136 76
137 50
138 100
139 70
140 55
141 70
142 82
143 64
144 61
145 97
146 82
147 89
148 81
149 73
150 63
151 78
152 74
153 69
154 53
155 78
156 71
157 52
158 96
159 92
160 75
161 63
162 56
163 93
164 86
165 58
166 58
167 93
168 78
169 62
170 64
171 83
172 100
173 88
174 79
175 75
176 76
177 62
178 62
179 68
180 80
181 68
182 56
183 65
184 64
185 99
186 71
187 62
188 58
189 74
190 89
191 95
192 70
193 69
194 72
195 99
196 60
197 57
198 95
199 81
200 72
201 60
202 79
203 55
204 76
205 70
206 94
207 95
208 79
209 73
210 69
211 81
212 89
213 92
214 74
215 90
216 53
217 94
218 52
219 66
220 97
221 50
222 75
223 79
224 86
225 74
226 51
227 74
228 90
229 51
230 57
231 53
232 72
233 54
234 71
235 59
236 75
237 50
238 78
239 66
240 85
241 87
242 79
243 99
244 100
245 78
246 69
247 98
248 54
249 62
250 75
251 61
252 77
253 67
254 58
255 88
256 86
257 86
258 73
259 88
260 64
261 75
262 97
263 58
264 91
265 50
266 68
267 63
268 84
269 61
270 84
271 87
272 58
273 61
274 68
275 90
276 99
277 59
278 92
279 84
280 83
281 63
282 65
283 67
284 88
285 54
286 88
287 68
288 86
289 63
290 61
291 62
292 73
293 59
294 65
295 89
296 95
297 57
298 95
299 88
300 93
301 85
302 63
303 50
304 63
305 55
306 62
307 76
308 76
309 67
310 94
311 95
312 52
313 53
314 99
315 53
316 67
317 98
318 66
319 65
320 100
321 63
322 95
323 66
324 54
325 88
326 63
327 90
328 96
329 83
330 79
331 54
332 91
333 54
334 66
335 54
336 63
337 76
338 90
339 78
340 70
341 87
342 76
343 74
344 77
345 92
346 51
347 92
348 55
349 77
350 95
351 74
352 90
353 94
354 98
355 70
356 98
357 94
358 95
COVERAGE_SECTION
2 9 875 72 579 113 229 40 665 145 304 
3 9 422 525 117 103 402 517 789 456 137 
4 9 212 820 795 791 857 84 638 144 772 
5 9 888 196 294 330 308 605 736 782 42 
6 9 847 216 810 81 637 594 669 343 271 
7 9 45 787 831 617 44 510 599 28 379 
8 9 704 575 73 844 307 225 670 871 305 
9 9 589 833 449 709 561 529 684 727 154 
10 9 825 473 120 519 60 761 488 630 793 
11 9 149 653 623 94 449 759 464 589 46 
12 9 47 660 678 503 610 461 436 227 686 
13 9 389 384 607 338 701 779 200 146 553 
14 9 75 673 522 76 794 765 305 375 555 
15 9 710 864 126 823 531 332 356 435 70 
16 9 59 129 886 413 453 213 427 855 444 
17 9 264 302 446 695 287 464 228 421 370 
18 9 702 480 718 683 527 567 64 675 577 
19 9 107 185 434 481 230 122 98 743 648 
20 9 642 77 250 257 677 279 737 722 252 
21 9 90 171 362 160 238 734 487 141 240 
22 9 267 751 206 520 282 602 613 58 312 
23 9 745 194 125 876 71 237 554 705 387 
24 9 353 724 313 405 563 416 711 104 498 
25 9 173 50 533 106 142 369 278 341 491 
26 9 245 614 822 178 80 374 763 247 608 
27 9 838 215 733 48 119 354 363 627 145 
28 9 510 44 617 431 440 839 324 536 45 
29 9 616 570 358 139 56 189 848 535 590 
30 9 691 31 690 566 604 203 131 646 168 
31 9 30 131 691 566 690 604 799 595 646 
32 9 359 686 227 436 386 55 381 461 365 
33 9 262 757 744 323 687 470 836 479 166 
34 9 731 581 322 312 286 520 411 282 613 
35 9 576 255 333 552 408 835 712 512 344 
36 9 571 693 845 515 479 568 744 253 365 
37 9 583 572 548 252 326 752 279 650 677 
38 9 101 629 404 135 636 809 438 772 452 
39 9 62 148 236 882 740 746 777 248 507 
40 9 2 145 875 72 603 733 290 579 229 
41 9 535 189 358 120 719 761 56 463 700 
42 9 736 562 497 357 698 196 61 426 888 
43 9 664 776 410 241 667 803 220 521 88 
44 9 510 28 617 431 440 324 839 536 45 
45 9 7 617 44 510 28 839 707 755 440 
46 9 853 623 653 217 859 872 207 596 759 
47 9 12 660 678 503 610 461 436 227 686 
48 9 354 363 215 838 27 119 829 217 542 
49 9 191 868 350 593 861 482 756 373 117 
50 9 173 142 25 96 369 842 533 216 271 
51 9 717 146 779 153 708 116 559 306 716 
52 9 834 209 762 205 541 346 417 749 807 
53 9 259 621 619 592 437 458 295 534 601 
54 9 811 879 202 232 78 813 409 336 315 
55 9 381 750 385 467 466 365 386 568 476 
56 9 358 616 848 29 535 189 463 570 41 
57 9 650 548 239 132 643 195 279 37 224 
58 9 602 291 751 798 206 22 282 208 267 
59 9 16 129 886 453 413 213 855 444 427 
60 9 825 473 488 10 348 277 630 793 486 
61 9 426 698 357 179 42 111 736 792 562 
62 9 39 746 148 827 236 882 740 178 777 
63 9 343 669 708 559 716 153 116 393 842 
64 9 688 270 492 626 329 18 439 396 683 
65 9 100 143 147 254 414 273 130 292 818 
66 9 560 233 258 86 735 770 193 339 713 
67 9 714 336 133 671 846 184 232 635 263 
68 9 608 247 308 330 374 614 400 763 26 
69 9 852 283 644 471 124 256 851 231 186 
70 9 791 820 606 710 15 531 781 4 212 
71 9 237 554 125 23 316 876 387 745 821 
72 9 875 665 145 304 229 2 730 627 113 
73 9 704 575 307 225 670 8 844 305 555 
74 9 697 885 682 796 157 699 647 134 729 
75 9 14 76 673 522 765 794 172 783 305 
76 9 783 75 152 522 172 14 765 794 654 
77 9 20 250 642 132 279 737 399 257 722 
78 9 870 202 812 811 54 879 232 628 428 
79 9 816 121 793 445 181 761 349 825 120 
80 9 245 26 178 626 439 855 614 683 822 
81 9 810 594 847 6 637 216 271 223 669 
82 9 859 802 596 653 759 853 872 46 851 
83 9 176 813 534 442 656 592 879 295 811 
84 9 144 768 784 795 4 275 212 97 820 
85 9 790 494 867 156 376 692 732 881 645 
86 9 770 713 560 66 483 168 233 524 193 
87 9 208 798 728 291 799 602 58 31 595 
88 9 513 776 410 269 817 43 620 667 787 
89 9 767 272 226 625 546 335 300 622 769 
90 9 160 21 238 141 487 171 240 362 749 
91 9 505 375 312 797 555 159 211 581 322 
92 9 858 526 680 99 679 183 397 549 174 
93 9 497 582 562 615 310 328 111 42 736 
94 9 464 149 370 518 11 449 833 589 302 
95 9 832 598 441 640 681 747 446 194 285 
96 9 842 393 142 50 187 173 25 63 341 
97 9 275 768 784 144 862 84 795 491 540 
98 9 843 481 415 880 289 392 19 743 107 
99 9 174 201 397 680 183 405 869 313 858 
100 9 143 65 414 465 147 808 837 753 830 
101 9 38 452 438 809 135 629 281 538 636 
102 9 493 417 361 884 346 762 231 325 834 
103 9 117 3 373 789 422 447 517 311 350 
104 9 127 563 289 392 711 724 694 729 353 
105 9 655 468 818 273 727 753 529 175 283 
106 9 341 218 533 337 25 668 173 491 187 
107 9 19 230 434 122 185 134 648 477 481 
108 9 726 722 257 352 737 250 292 706 177 
109 9 355 578 457 539 317 613 282 804 666 
110 9 450 487 240 585 564 166 21 251 661 
111 9 582 310 489 328 61 698 674 93 426 
112 9 656 224 609 601 643 195 592 239 534 
113 9 579 388 229 360 304 665 150 814 2 
114 9 118 223 140 594 637 758 703 268 271 
115 9 587 263 635 184 532 631 409 315 671 
116 9 559 716 708 153 51 63 717 146 343 
117 9 103 3 373 422 350 311 482 501 525 
118 9 114 140 223 637 758 594 703 268 528 
119 9 542 829 354 838 27 48 334 398 217 
120 9 761 10 825 519 60 79 41 121 793 
121 9 79 445 816 181 793 349 761 309 120 
122 9 434 648 230 107 451 19 185 477 320 
123 9 433 455 659 516 523 657 190 403 331 
124 9 186 283 852 69 471 169 655 175 644 
125 9 876 705 23 824 71 745 554 237 194 
126 9 332 531 15 864 710 356 565 841 823 
127 9 104 289 392 180 563 415 724 353 711 
128 9 418 763 374 822 782 371 247 294 584 
129 9 59 16 886 453 444 855 413 396 213 
130 9 292 147 414 143 511 850 726 352 138 
131 9 31 566 799 691 646 30 205 209 203 
132 9 195 239 77 609 364 399 224 643 57 
133 9 671 67 846 714 336 184 635 263 459 
134 9 157 880 107 729 74 885 230 392 682 
135 9 550 629 741 38 101 404 452 638 281 
136 9 789 517 486 854 348 447 401 277 874 
137 9 725 402 318 525 662 284 296 553 422 
138 9 837 719 414 143 511 130 700 121 292 
139 9 29 616 739 570 484 590 306 848 56 
140 9 118 758 114 637 268 703 271 223 528 
141 9 749 90 238 160 807 246 544 21 873 
142 9 50 96 842 173 25 393 216 6 369 
143 9 414 100 65 147 130 837 138 292 254 
144 9 795 768 784 84 4 275 97 212 857 
145 9 875 72 733 627 2 730 665 304 40 
146 9 779 51 153 607 708 389 717 13 306 
147 9 254 414 143 65 292 130 352 100 726 
148 9 236 740 39 882 507 556 573 62 248 
149 9 94 449 833 11 589 464 370 518 759 
150 9 360 388 113 814 579 743 415 229 481 
151 9 632 537 476 672 467 298 466 545 610 
152 8 651 76 783 469 288 877 654 172 
153 9 708 146 559 51 116 716 63 779 607 
154 9 401 709 684 530 685 874 447 9 309 
155 9 666 317 760 457 458 437 539 804 372 
156 9 376 732 790 243 85 692 221 867 494 
157 9 729 880 134 392 289 694 74 711 563 
158 9 211 367 797 322 159 411 91 219 581 
159 9 797 673 91 375 211 505 158 555 14 
160 9 238 90 487 141 21 240 873 420 544 
161 9 514 366 658 506 380 228 210 518 370 
162 9 163 344 835 860 771 35 255 576 689 
163 9 162 689 344 771 508 860 221 556 507 
164 9 345 182 407 228 821 210 506 738 881 
165 9 391 715 591 382 235 327 723 786 430 
166 9 585 672 687 641 262 632 33 110 151 
167 9 775 696 222 620 226 89 546 625 272 
168 9 483 690 604 770 30 169 713 203 691 
169 9 203 175 186 840 483 168 646 691 566 
170 9 828 463 700 752 342 850 848 56 511 
171 9 362 21 734 265 90 721 246 141 633 
172 9 522 805 783 765 794 654 624 76 788 
173 9 25 50 533 142 106 369 96 842 341 
174 9 99 201 397 405 680 313 869 649 858 
175 9 483 169 818 655 168 186 713 124 203 
176 9 83 813 534 656 442 315 879 592 409 
177 9 192 276 339 735 258 706 437 737 108 
178 9 26 777 80 245 614 683 62 248 882 
179 9 792 426 663 707 61 357 698 755 308 
180 9 269 817 244 127 410 521 776 220 104 
181 9 349 445 309 121 79 816 830 793 808 
182 9 821 164 228 345 387 695 287 407 237 
183 9 679 314 99 174 490 92 201 858 680 
184 9 635 263 532 671 336 587 133 67 409 
185 9 19 434 481 107 743 122 230 648 98 
186 9 124 840 169 541 203 471 646 175 852 
187 9 318 341 553 96 393 842 106 137 337 
188 9 484 717 306 739 51 139 590 779 116 
189 9 535 358 570 41 616 29 56 519 120 
190 9 523 327 516 657 123 715 433 659 455 
191 9 593 868 49 281 861 452 301 350 652 
192 9 177 276 706 339 735 258 399 737 364 
193 9 372 588 524 233 760 804 317 66 560 
194 9 745 23 681 876 125 377 95 598 832 
195 9 609 224 132 239 643 601 112 364 399 
196 9 5 736 888 42 330 357 308 562 792 
197 9 889 590 848 326 572 170 56 828 616 
198 9 411 286 395 367 219 459 731 322 34 
199 9 340 278 540 261 639 703 528 491 758 
200 9 553 725 318 456 13 384 137 338 607 
201 9 397 174 680 869 99 405 649 313 858 
202 9 232 78 811 54 870 628 879 428 812 
203 9 646 566 691 840 169 30 186 168 690 
204 9 412 547 408 712 551 552 565 419 333 
205 9 209 646 52 840 566 131 203 541 691 
206 9 22 267 751 602 670 58 520 307 225 
207 9 380 623 46 11 754 658 853 518 370 
208 9 87 798 602 291 871 58 799 728 206 
209 9 205 52 646 131 834 390 566 840 762 
210 9 506 645 407 881 345 164 514 161 738 
211 9 158 322 797 367 91 581 411 34 159 
212 9 4 857 820 638 795 791 772 404 144 
213 9 427 371 584 453 16 59 129 855 886 
214 9 500 748 866 432 266 800 504 320 586 
215 9 363 48 838 27 354 119 249 733 829 
216 9 271 637 6 268 810 847 594 369 142 
217 9 829 872 398 596 853 542 354 46 623 
218 9 668 337 106 862 341 491 720 533 550 
219 9 459 367 198 411 286 395 846 158 211 
220 9 803 521 244 410 43 664 730 776 269 
221 9 508 243 689 376 156 732 448 790 163 
222 9 498 167 775 226 496 546 625 425 353 
223 9 114 118 140 594 637 810 81 758 271 
224 9 643 609 195 112 239 601 132 656 592 
225 9 307 670 73 555 305 704 575 8 206 
226 9 546 625 89 496 335 767 272 425 222 
227 9 436 686 461 32 359 381 467 610 55 
228 9 182 164 345 821 514 366 161 695 387 
229 9 665 304 388 113 72 875 2 579 360 
230 9 122 107 434 648 477 19 451 185 134 
231 9 618 242 493 851 346 471 361 102 325 
232 9 202 54 811 78 628 879 336 714 428 
233 9 66 193 372 560 258 735 524 588 86 
234 9 754 494 645 210 506 249 881 363 85 
235 9 430 591 391 786 454 611 723 878 165 
236 9 740 148 507 556 39 573 746 882 62 
237 9 71 554 23 125 316 387 821 876 182 
238 9 160 90 141 873 487 21 240 544 420 
239 9 643 195 224 132 57 609 650 112 601 
240 9 487 160 661 238 420 90 450 110 21 
241 9 664 43 667 293 831 776 410 803 787 
242 9 618 851 231 361 325 429 462 493 802 
243 9 732 376 156 221 508 676 790 85 379 
244 9 521 220 803 347 180 269 730 410 776 
245 9 26 614 822 80 178 763 374 247 608 
246 9 807 749 141 390 171 90 362 21 52 
247 9 374 763 608 822 68 614 330 26 128 
248 9 777 882 683 148 573 39 178 236 740 
249 9 293 599 597 612 234 363 241 215 494 
250 9 737 257 722 20 77 726 108 642 399 
251 9 564 633 600 721 499 624 734 805 450 
252 9 677 752 279 37 583 642 572 20 342 
253 9 476 568 466 750 515 571 385 467 55 
254 9 147 352 65 143 292 414 108 726 130 
255 9 35 576 552 333 835 408 512 712 718 
256 9 561 644 283 69 852 759 82 727 529 
257 9 722 726 250 108 737 20 642 352 77 
258 9 339 735 276 66 177 233 192 560 193 
259 9 621 53 619 437 458 592 295 442 534 
260 9 423 475 766 377 424 495 285 705 443 
261 9 540 639 528 340 199 703 758 278 369 
262 9 33 687 744 757 166 323 585 836 470 
263 9 532 184 587 635 409 631 315 115 336 
264 9 446 368 421 17 756 501 640 482 441 
265 9 734 362 721 499 171 633 788 865 280 
266 9 586 866 460 351 748 504 641 214 298 
267 9 22 520 751 206 312 282 602 613 670 
268 9 271 369 758 278 637 216 140 703 528 
269 9 410 180 776 817 88 521 244 513 220 
270 9 492 688 64 626 329 18 480 396 577 
271 9 268 216 637 369 758 140 278 6 594 
272 9 300 767 89 674 622 226 335 489 625 
273 9 818 65 105 655 254 713 175 100 468 
274 8 299 580 474 297 647 502 699 682 
275 9 97 784 768 144 84 795 862 639 540 
276 9 339 177 735 258 192 706 437 66 233 
277 9 630 488 486 473 60 348 456 517 854 
278 9 369 340 199 758 268 703 533 528 271 
279 9 252 677 548 20 37 77 642 752 650 
280 9 485 865 390 788 265 844 871 8 499 
281 9 452 101 438 593 809 301 191 538 652 
282 9 613 751 22 520 267 58 312 355 34 
283 9 852 644 69 124 256 655 471 186 105 
284 9 296 662 720 868 337 137 402 668 341 
285 9 681 747 766 856 377 598 424 495 260 
286 9 411 198 731 395 34 322 581 367 219 
287 9 695 387 821 182 228 640 95 23 441 
288 9 877 469 651 470 479 323 152 836 757 
289 9 392 880 729 157 98 104 843 563 127 
290 9 603 462 334 429 325 542 361 398 40 
291 9 58 798 602 728 208 87 751 206 22 
292 9 130 147 414 726 352 143 257 511 108 
293 9 241 599 831 249 667 664 597 43 612 
294 9 782 5 330 888 605 196 374 128 247 
295 9 442 619 458 812 534 259 53 621 78 
296 9 284 662 720 868 402 137 337 668 191 
297 9 773 806 378 502 580 778 299 274 490 
298 9 545 351 460 537 586 266 641 151 632 
299 9 274 580 474 297 647 502 806 773 699 
300 9 272 674 767 622 89 328 489 303 815 
301 9 652 634 861 281 593 438 368 809 452 
302 9 17 311 421 685 464 94 501 264 756 
303 9 815 622 615 300 674 272 767 328 769 
304 9 665 229 72 388 875 113 347 2 730 
305 9 555 225 307 375 73 704 670 575 505 
306 9 739 484 717 188 139 51 779 146 590 
307 9 225 670 73 704 555 575 305 8 206 
308 9 330 196 792 68 5 179 608 663 294 
309 9 349 181 445 830 401 808 816 121 79 
310 9 582 328 489 111 674 93 300 272 615 
311 9 421 501 373 756 482 350 103 302 117 
312 9 520 581 34 267 322 22 505 731 91 
313 9 405 201 174 397 24 649 869 99 680 
314 9 183 490 679 806 778 773 378 99 297 
315 9 409 532 631 263 587 54 879 184 336 
316 9 554 71 448 125 237 824 876 705 738 
317 9 804 760 666 457 155 372 588 193 109 
318 9 553 725 137 187 200 341 662 284 402 
319 9 536 324 394 883 431 827 863 746 440 
320 9 504 800 648 866 748 500 122 266 434 
321 9 383 742 780 509 478 661 420 814 579 
322 9 581 34 731 411 286 312 211 198 367 
323 9 470 757 479 744 33 836 469 877 288 
324 9 536 319 394 883 431 827 863 28 44 
325 9 361 462 242 429 290 603 618 102 493 
326 9 572 583 37 889 197 752 170 252 828 
327 9 657 190 516 523 715 165 659 123 819 
328 9 310 489 582 674 111 300 615 272 93 
329 9 396 444 439 855 453 626 64 129 688 
330 9 308 5 294 196 247 888 68 374 782 
331 9 472 543 659 433 516 819 455 657 123 
332 9 356 126 841 864 15 565 710 531 823 
333 9 35 576 712 408 255 344 552 771 406 
334 9 429 398 542 290 462 603 596 872 829 
335 9 769 625 546 89 767 549 226 425 496 
336 9 714 67 184 133 232 671 409 54 263 
337 9 668 218 720 341 106 284 296 187 662 
338 9 384 701 13 389 519 473 10 607 200 
339 9 276 258 735 177 192 66 233 706 437 
340 9 199 278 540 261 639 703 528 758 369 
341 9 337 106 187 218 668 720 318 284 25 
342 9 850 511 700 677 752 828 170 463 252 
343 9 669 63 716 847 559 6 708 116 153 
344 9 771 406 333 162 35 576 163 255 712 
345 9 164 407 182 228 210 506 821 514 738 
346 9 493 471 541 834 417 762 231 102 52 
347 9 244 304 665 388 229 730 415 72 113 
348 9 854 486 793 60 816 277 136 825 79 
349 9 181 309 445 830 121 79 816 793 808 
350 9 482 756 373 501 49 421 311 117 368 
351 9 460 298 586 545 266 537 641 866 672 
352 9 108 726 254 722 147 257 292 130 737 
353 9 24 724 104 563 313 711 127 416 222 
354 9 48 829 119 838 215 217 363 27 542 
355 9 109 578 613 282 457 539 58 291 751 
356 9 841 332 864 15 710 126 435 823 565 
357 9 698 426 736 61 42 562 792 196 497 
358 9 56 535 616 189 29 848 41 570 463 
359 9 32 686 227 436 887 461 381 55 386 
360 9 150 388 113 814 579 229 304 743 665 
361 9 325 242 102 493 462 231 618 429 851 
362 9 171 734 21 265 721 633 90 499 251 
363 9 215 48 354 838 27 249 234 754 119 
364 9 399 706 601 132 609 195 737 192 250 
365 9 386 385 55 515 750 845 693 381 568 
366 9 161 658 514 380 518 506 370 228 345 
367 9 219 411 198 459 158 211 286 322 395 
368 9 861 446 264 652 640 301 441 756 482 
369 9 268 278 271 758 50 25 173 216 533 
370 9 518 464 366 658 380 94 161 514 149 
371 9 427 584 213 418 128 453 822 763 855 
372 9 193 588 760 524 233 804 317 66 666 
373 9 482 501 311 350 756 421 117 103 49 
374 9 763 247 822 128 614 608 26 245 294 
375 9 505 555 305 91 673 225 307 159 797 
376 9 156 732 243 790 85 221 692 867 508 
377 9 475 766 260 423 424 285 495 745 194 
378 9 773 778 806 297 502 490 580 299 274 
379 9 774 676 597 612 599 617 7 44 243 
380 9 658 207 366 161 518 514 370 754 506 
381 9 55 467 750 466 385 436 476 227 365 
382 8 715 165 558 391 591 235 569 430 
383 9 742 780 321 509 814 478 579 500 661 
384 9 338 13 389 701 607 200 519 779 473 
385 9 365 750 55 386 515 381 466 568 845 
386 9 365 385 55 750 381 515 845 32 693 
387 9 821 287 695 182 237 23 71 228 164 
388 9 113 229 360 304 150 665 579 347 72 
389 9 13 384 607 338 779 701 146 739 200 
390 9 280 246 807 485 865 209 799 749 265 
391 9 591 235 430 786 165 723 382 611 454 
392 9 289 880 729 157 98 104 843 563 694 
393 9 842 96 142 187 50 63 173 153 553 
394 9 319 536 324 883 863 827 431 746 440 
395 9 198 286 411 428 628 731 219 459 367 
396 9 444 329 439 129 453 855 886 59 16 
397 9 680 869 201 649 174 858 99 425 405 
398 9 872 596 542 829 334 217 859 429 119 
399 9 364 706 737 250 77 132 192 722 177 
400 9 839 440 755 663 707 431 28 510 44 
401 9 154 309 530 136 349 830 808 181 854 
402 9 525 662 137 422 3 296 725 868 284 
403 9 455 433 123 331 659 516 472 543 657 
404 9 629 638 38 741 857 135 772 101 636 
405 9 313 201 174 397 99 649 869 680 24 
406 9 771 344 443 824 333 705 712 162 35 
407 9 345 164 738 881 210 645 182 506 867 
408 9 712 333 576 35 204 552 255 565 412 
409 9 315 532 631 263 587 184 336 54 879 
410 9 776 269 88 43 521 513 220 803 664 
411 9 286 198 367 731 322 395 34 219 581 
412 9 204 675 527 552 547 408 551 419 718 
413 9 886 16 59 129 453 213 396 444 427 
414 9 143 147 100 130 65 292 837 138 254 
415 9 843 98 150 289 360 481 388 392 743 
416 9 711 694 563 796 724 729 697 24 157 
417 9 762 102 834 493 346 884 52 544 361 
418 9 128 782 584 371 763 427 294 374 822 
419 9 574 551 547 204 841 412 356 565 408 
420 9 873 661 240 238 160 544 487 478 90 
421 9 501 311 756 482 373 350 264 302 117 
422 9 3 525 402 117 103 517 456 137 725 
423 9 260 475 424 766 495 377 285 443 705 
424 9 495 423 766 260 475 377 856 285 531 
425 9 496 649 498 546 625 549 869 335 680 
426 9 61 698 357 179 792 736 42 562 111 
427 9 213 371 584 453 855 16 59 418 129 
428 9 628 395 202 232 870 78 578 539 286 
429 9 462 334 242 290 325 802 618 851 603 
430 8 235 591 786 391 454 611 878 723 
431 9 440 324 28 510 536 44 319 883 394 
432 9 214 500 748 866 641 661 266 585 742 
433 9 455 123 659 516 657 331 403 523 472 
434 9 122 230 107 648 19 185 451 477 481 
435 9 823 710 864 606 15 356 332 781 841 
436 9 227 461 686 381 610 467 32 359 55 
437 9 621 259 458 619 155 53 735 276 177 
438 9 809 538 636 101 452 281 38 301 634 
439 9 444 329 855 396 453 80 626 129 59 
440 9 431 400 839 28 510 44 324 755 883 
441 9 640 95 832 598 446 747 681 368 264 
442 9 534 295 619 813 592 83 458 812 53 
443 9 406 824 705 260 475 423 771 377 876 
444 9 396 329 439 453 855 129 59 886 16 
445 9 181 121 349 79 816 309 793 830 761 
446 9 640 264 441 368 95 832 598 17 861 
447 9 874 789 136 685 103 684 517 311 154 
448 9 316 689 692 554 221 867 738 790 156 
449 9 589 833 149 9 11 94 709 759 684 
450 9 110 487 240 564 21 251 90 734 362 
451 6 648 122 477 230 434 107 
452 9 281 101 438 809 38 135 538 593 636 
453 9 855 129 59 444 439 16 213 396 427 
454 5 878 430 235 477 611 
455 9 433 123 659 403 516 331 523 657 472 
456 9 630 277 488 473 525 725 200 422 486 
457 9 539 578 317 666 109 155 804 355 760 
458 9 295 619 437 812 259 155 621 53 442 
459 9 219 367 198 846 411 395 286 158 211 
460 9 351 586 298 545 266 537 641 866 504 
461 9 436 227 610 686 467 660 381 503 12 
462 9 429 325 290 603 334 242 361 618 851 
463 9 700 828 170 511 719 342 56 358 850 
464 9 94 149 370 518 11 302 449 833 589 
465 9 808 830 530 309 349 100 801 181 837 
466 9 476 750 568 253 55 467 381 385 515 
467 9 381 55 466 750 476 436 461 385 568 
468 9 727 529 105 753 801 655 283 818 273 
469 8 651 288 877 470 836 323 152 479 
470 9 479 323 757 744 877 288 469 33 836 
471 9 346 541 231 852 69 124 493 186 618 
472 9 543 331 819 659 657 516 826 433 455 
473 9 488 60 630 10 825 277 456 486 519 
474 7 274 299 580 699 682 885 502 
475 9 377 260 423 766 424 495 705 876 824 
476 9 466 253 568 750 467 55 381 385 515 
477 7 230 451 122 107 682 885 434 
478 9 321 884 873 420 544 383 661 742 102 
479 9 470 323 757 744 877 288 469 36 33 
480 9 577 675 527 18 492 270 412 718 688 
481 9 743 98 19 185 843 107 415 150 434 
482 9 756 501 350 421 373 311 264 368 49 
483 9 168 175 713 169 770 86 690 203 818 
484 9 306 739 139 188 717 590 51 29 779 
485 9 280 865 390 788 844 265 871 8 799 
486 9 348 854 277 517 630 136 60 488 793 
487 9 240 160 238 90 21 450 110 420 661 
488 9 473 630 277 60 10 825 456 486 348 
489 9 310 328 111 582 674 300 272 767 89 
490 9 314 778 806 773 378 297 183 679 502 
491 9 533 218 106 199 862 340 25 278 668 
492 9 270 688 64 480 18 626 577 329 396 
493 9 102 231 346 417 361 242 618 762 325 
494 9 85 645 881 790 234 867 210 156 692 
495 9 424 423 766 260 856 475 377 285 531 
496 9 425 546 498 625 226 649 335 869 549 
497 9 562 42 736 93 357 698 849 888 196 
498 9 496 649 425 869 222 397 546 680 625 
499 9 633 721 265 734 251 788 805 362 624 
500 9 748 214 866 800 504 266 320 432 780 
501 9 756 482 421 311 373 350 264 117 368 
502 9 297 378 773 580 806 778 299 274 474 
503 9 660 678 610 47 12 461 436 545 537 
504 9 800 320 866 748 500 266 214 586 648 
505 9 91 375 555 305 312 225 520 307 267 
506 9 210 514 161 345 645 658 366 407 164 
507 9 556 740 236 573 148 860 39 882 567 
508 9 221 243 689 863 376 732 156 163 676 
509 9 814 383 579 780 321 742 113 2 360 
510 9 28 44 617 431 440 839 324 536 45 
511 9 850 342 700 463 719 828 130 170 292 
512 9 567 835 702 718 860 255 552 35 573 
513 9 88 776 410 620 787 269 817 43 667 
514 9 161 366 658 506 210 380 228 345 164 
515 9 693 845 568 571 385 365 750 253 466 
516 9 657 659 433 123 523 327 190 455 331 
517 9 486 136 789 277 3 854 422 630 348 
518 9 370 366 464 658 380 161 94 514 207 
519 9 10 120 701 761 825 473 189 338 570 
520 9 267 312 22 751 282 581 206 613 34 
521 9 220 803 244 410 269 43 776 664 730 
522 9 765 794 172 76 75 783 14 805 788 
523 9 190 123 516 657 327 433 659 455 715 
524 9 588 193 372 604 233 595 804 760 770 
525 9 422 3 402 137 725 456 117 517 103 
526 9 858 549 92 680 869 397 425 649 785 
527 9 675 718 412 552 702 480 512 255 577 
528 9 703 261 758 540 340 639 199 278 140 
529 9 727 468 753 801 105 9 530 561 256 
530 9 801 154 808 465 401 753 830 529 309 
531 9 126 15 710 864 332 70 495 424 356 
532 9 263 409 315 587 631 184 635 336 115 
533 9 25 491 106 173 278 369 218 50 199 
534 9 442 592 295 619 83 53 656 813 259 
535 9 189 41 358 56 616 29 570 463 120 
536 9 319 324 394 883 431 827 863 28 44 
537 9 298 151 545 632 351 460 586 672 641 
538 9 809 438 636 101 38 452 281 634 772 
539 9 578 457 109 666 870 155 355 317 812 
540 9 639 261 340 199 528 703 278 758 491 
541 9 346 186 471 840 834 52 205 762 646 
542 9 829 119 398 334 872 217 596 354 290 
543 9 472 331 819 659 657 516 826 433 455 
544 9 873 884 141 238 160 420 749 90 417 
545 9 298 351 460 537 586 266 503 641 151 
546 9 625 226 496 335 89 425 767 769 498 
547 9 551 419 204 574 841 412 565 408 712 
548 9 650 37 57 279 583 252 572 677 752 
549 9 526 425 769 858 335 625 496 680 869 
550 9 135 741 629 404 38 101 452 638 857 
551 9 547 419 574 841 204 565 412 356 332 
552 9 255 576 35 718 408 835 333 527 512 
553 9 200 318 725 137 187 13 456 384 607 
554 9 71 237 316 125 876 23 705 738 824 
555 9 305 225 307 375 505 73 670 704 575 
556 9 507 573 740 236 860 148 882 567 39 
557 9 61 426 111 696 179 489 698 582 310 
558 9 569 382 715 502 378 165 297 773 778 
559 9 116 716 708 153 63 51 343 146 669 
560 9 86 66 770 713 233 193 258 524 372 
561 9 256 759 644 9 82 589 727 529 449 
562 9 42 497 736 357 698 93 61 196 888 
563 9 711 694 416 724 729 104 796 289 392 
564 8 251 600 624 633 836 450 721 805 
565 9 841 332 712 408 126 204 547 356 551 
566 9 691 646 203 30 131 31 840 205 690 
567 9 702 512 860 718 835 573 556 507 255 
568 9 253 466 476 750 515 385 55 571 693 
569 9 558 382 715 502 165 378 778 773 297 
570 9 29 616 189 139 358 535 56 519 739 
571 9 36 693 515 845 568 253 744 466 476 
572 9 326 583 37 752 252 889 197 170 548 
573 9 556 507 860 148 740 236 567 882 248 
574 9 419 551 547 841 356 204 565 332 412 
575 9 704 73 8 670 307 225 844 871 305 
576 9 35 255 333 552 408 835 712 512 344 
577 9 480 675 527 18 412 492 270 718 688 
578 9 539 457 109 355 666 870 628 317 428 
579 9 113 814 360 2 509 388 150 229 665 
580 9 299 274 474 297 502 806 773 647 378 
581 9 34 322 312 731 520 286 91 282 411 
582 9 111 310 328 489 93 674 61 698 300 
583 9 37 572 326 752 252 548 279 677 170 
584 9 371 427 418 213 128 782 16 763 453 
585 9 166 672 641 687 110 262 432 632 33 
586 9 460 351 266 298 545 866 641 537 504 
587 9 263 532 631 115 635 184 409 315 336 
588 9 524 372 193 804 760 317 595 604 233 
589 9 449 833 149 9 709 11 94 684 759 
590 9 197 848 889 139 484 29 616 56 739 
591 9 391 235 430 786 165 723 382 611 454 
592 9 534 601 53 656 259 621 442 619 112 
593 9 191 861 281 49 301 452 652 868 368 
594 9 810 81 637 216 6 223 271 847 118 
595 9 728 604 798 588 524 31 690 87 804 
596 9 872 398 859 217 829 334 542 82 802 
597 9 612 599 379 774 249 293 831 676 732 
598 9 832 95 747 681 441 640 285 194 634 
599 9 597 612 831 293 379 249 774 667 7 
600 8 564 624 251 654 836 805 633 499 
601 9 609 592 195 112 224 364 656 53 132 
602 9 58 291 206 751 22 208 798 267 87 
603 9 290 462 334 429 325 542 40 361 119 
604 9 690 524 30 595 168 31 588 691 728 
605 9 849 888 782 294 5 196 330 418 497 
606 9 781 823 435 710 70 15 864 820 791 
607 9 13 389 146 779 384 153 338 701 708 
608 9 68 247 614 374 308 26 330 763 822 
609 9 195 601 224 112 643 239 132 364 592 
610 9 660 503 461 678 436 47 12 227 467 
611 8 764 786 430 235 723 591 391 454 
612 9 597 599 379 774 249 732 676 243 293 
613 9 282 751 22 520 355 267 34 58 731 
614 9 26 245 822 247 374 763 608 178 68 
615 9 303 815 93 328 674 310 622 300 582 
616 9 29 358 570 56 189 139 848 535 590 
617 9 44 510 28 431 45 774 324 440 536 
618 9 242 851 231 802 429 361 493 325 462 
619 9 259 621 53 295 458 442 437 534 592 
620 9 817 775 696 167 513 88 222 269 776 
621 9 259 53 619 437 458 592 295 192 534 
622 9 303 815 767 300 272 769 674 89 335 
623 9 46 853 653 207 11 217 759 380 859 
624 8 654 805 600 172 251 564 783 836 
625 9 546 335 226 89 496 425 767 769 549 
626 9 64 683 80 439 688 329 444 270 396 
627 9 730 733 145 72 875 665 304 803 220 
628 9 428 202 870 232 78 395 578 539 811 
629 9 404 38 135 741 638 101 857 550 772 
630 9 277 488 473 456 60 486 348 825 10 
631 9 532 587 315 409 263 115 184 635 336 
632 9 151 537 672 641 687 298 166 476 351 
633 9 721 499 251 734 265 362 805 564 788 
634 9 652 301 747 438 285 538 598 809 856 
635 9 184 263 587 671 115 532 133 336 67 
636 9 538 809 438 38 101 772 404 629 452 
637 9 271 216 594 268 810 140 6 81 118 
638 9 857 404 629 741 772 212 38 135 4 
639 9 540 261 340 199 528 703 278 758 491 
640 9 441 446 95 832 598 368 747 264 681 
641 9 672 266 586 351 460 585 166 537 298 
642 9 20 677 257 77 250 279 252 850 342 
643 9 239 224 195 609 112 132 57 601 656 
644 9 283 69 256 852 561 124 471 82 727 
645 9 210 881 494 506 407 345 738 867 85 
646 9 566 203 840 691 205 131 30 169 209 
647 9 697 796 299 274 74 580 474 297 416 
648 9 122 434 230 451 320 185 107 19 477 
649 9 869 397 680 425 498 201 496 405 858 
650 9 548 57 279 37 132 239 77 252 583 
651 8 469 288 152 877 783 836 470 654 
652 9 301 634 861 368 593 281 438 809 747 
653 9 46 623 853 759 11 859 82 207 596 
654 8 624 805 783 600 172 836 651 564 
655 9 105 818 175 468 273 124 283 727 169 
656 9 112 592 601 224 609 534 83 643 195 
657 9 516 659 327 523 433 123 190 472 543 
658 9 366 161 514 380 506 518 370 228 210 
659 9 516 433 657 331 123 455 472 543 523 
660 9 503 678 610 47 12 461 436 227 467 
661 9 420 240 487 873 238 432 160 742 321 
662 9 296 284 402 868 137 720 525 725 49 
663 9 707 755 839 400 179 792 440 308 426 
664 9 43 241 667 803 776 220 410 521 293 
665 9 304 229 72 388 875 113 2 347 145 
666 9 155 317 457 760 539 804 578 458 372 
667 9 831 241 787 43 664 293 776 513 88 
668 9 218 337 720 106 862 341 284 550 296 
669 9 343 63 847 716 6 559 116 708 153 
670 9 307 225 73 575 704 206 555 305 844 
671 9 133 67 846 184 714 635 336 263 532 
672 9 641 166 585 632 537 151 687 351 298 
673 9 14 375 159 75 305 555 797 505 91 
674 9 300 272 328 489 767 310 622 89 303 
675 9 527 412 718 552 480 577 204 702 255 
676 9 774 379 243 536 319 324 394 617 863 
677 9 252 279 752 642 20 342 850 37 77 
678 9 660 503 610 47 12 461 436 764 545 
679 9 183 314 92 490 99 174 858 201 806 
680 9 397 869 649 201 858 174 425 99 526 
681 9 747 598 832 95 285 194 441 745 640 
682 5 699 885 474 74 477 
683 9 777 248 626 882 178 80 18 64 39 
684 9 709 685 154 874 833 447 589 9 449 
685 9 684 709 874 447 154 302 833 449 589 
686 9 359 227 32 436 461 887 381 55 12 
687 9 262 166 33 585 744 632 672 757 253 
688 9 64 270 492 626 329 396 18 439 444 
689 9 163 221 448 508 162 771 243 344 376 
690 9 604 30 168 691 31 566 203 483 595 
691 9 566 30 203 646 31 690 131 840 168 
692 9 867 790 738 85 156 881 376 448 407 
693 9 845 515 571 36 365 385 568 750 386 
694 9 711 416 563 729 796 724 157 697 392 
695 9 287 387 821 182 228 640 95 164 441 
696 9 775 167 620 557 513 222 817 88 226 
697 9 796 74 647 416 694 711 157 729 885 
698 9 357 61 426 42 736 562 497 792 179 
699 5 682 885 474 74 274 
700 9 463 828 511 170 342 850 719 56 358 
701 9 338 384 519 389 13 10 473 570 607 
702 9 567 512 718 835 860 573 552 255 527 
703 9 528 758 261 340 278 199 140 540 268 
704 9 73 575 8 307 225 670 844 305 555 
705 9 824 876 125 475 377 23 745 260 316 
706 9 399 364 192 737 177 250 722 276 339 
707 9 663 755 839 179 400 792 440 426 45 
708 9 153 559 116 146 716 51 63 779 607 
709 9 684 685 154 9 833 589 449 874 530 
710 9 15 864 823 435 356 126 332 531 606 
711 9 563 694 416 729 724 796 104 392 157 
712 9 408 333 576 35 204 255 565 552 344 
713 9 86 770 560 483 168 66 818 175 233 
714 9 67 336 133 671 846 232 184 54 635 
715 9 165 382 327 190 558 569 391 591 523 
716 9 559 116 708 63 153 343 669 51 146 
717 9 51 306 188 484 146 739 779 116 153 
718 9 702 512 567 527 552 835 675 255 35 
719 9 138 837 700 463 41 511 535 121 850 
720 9 284 296 337 668 662 218 341 868 550 
721 9 633 499 734 265 251 362 171 788 564 
722 9 257 108 737 726 250 352 706 20 399 
723 9 786 591 391 235 430 611 165 764 47 
724 9 24 563 353 416 711 694 104 313 796 
725 9 137 200 318 553 525 456 402 422 662 
726 9 108 257 722 352 737 250 292 642 20 
727 9 529 468 753 801 105 9 256 655 530 
728 9 798 595 291 87 208 58 31 602 604 
729 9 157 694 392 880 289 711 563 416 134 
730 9 627 72 145 304 665 875 220 733 803 
731 9 34 581 322 286 411 312 613 198 282 
732 9 376 156 243 790 85 221 692 508 612 
733 9 145 627 27 875 730 72 838 40 665 
734 9 362 721 171 265 633 499 21 251 90 
735 9 258 339 276 177 192 233 66 437 193 
736 9 42 562 357 497 698 196 61 426 888 
737 9 250 722 257 108 726 399 706 77 20 
738 9 407 867 881 692 164 345 210 645 790 
739 9 306 484 139 779 717 570 188 51 29 
740 9 236 148 507 556 39 573 746 882 62 
741 9 629 404 135 550 638 857 38 101 772 
742 9 780 383 321 509 661 500 214 432 478 
743 9 481 185 150 843 19 98 360 814 415 
744 9 757 323 33 479 470 262 687 571 36 
745 9 194 23 876 125 377 681 705 71 475 
746 9 827 883 62 39 236 394 740 863 148 
747 9 681 598 832 95 285 441 634 640 194 
748 9 500 866 214 800 504 266 320 432 586 
749 9 141 807 246 90 544 238 160 762 52 
750 9 466 55 385 568 381 476 467 253 365 
751 9 22 267 206 282 520 602 58 613 312 
752 9 252 677 170 583 37 342 828 279 572 
753 9 801 529 468 727 530 105 465 100 808 
754 9 234 380 207 506 658 514 161 210 645 
755 9 663 707 839 400 440 179 792 28 510 
756 9 482 501 421 350 373 311 264 368 49 
757 9 744 323 470 33 479 262 836 687 469 
758 9 703 268 528 278 140 369 271 340 199 
759 9 653 561 11 82 46 623 853 859 449 
760 9 317 804 372 193 588 666 155 524 457 
761 9 120 825 10 79 793 60 121 519 816 
762 9 834 417 52 346 102 493 884 749 541 
763 9 374 822 247 128 614 245 26 782 418 
764 8 611 786 430 723 678 451 235 503 
765 9 794 522 172 8 788 14 75 76 783 
766 9 377 260 423 475 424 495 285 856 681 
767 9 89 272 300 622 335 674 625 226 546 
768 9 784 144 84 275 97 795 4 212 862 
769 9 335 549 625 785 622 767 89 546 425 
770 9 86 713 560 483 168 66 524 233 604 
771 9 344 406 162 333 163 443 689 824 35 
772 9 404 638 857 636 38 629 538 791 212 
773 9 378 806 778 297 502 490 580 299 274 
774 9 379 676 597 612 617 599 44 510 7 
775 9 167 696 620 222 226 817 546 89 496 
776 9 410 88 43 269 513 664 521 220 803 
777 9 248 882 683 39 178 148 62 573 236 
778 9 378 773 806 490 297 502 314 580 299 
779 9 146 389 607 51 739 717 13 306 153 
780 9 742 383 321 509 500 814 214 748 432 
781 9 606 820 823 70 791 4 435 710 212 
782 9 294 128 418 605 5 763 330 374 888 
783 8 654 172 76 805 624 152 651 522 
784 9 768 144 84 275 97 795 4 212 862 
785 9 769 549 815 335 622 526 303 767 625 
786 9 430 591 235 723 391 611 764 165 454 
787 9 831 667 7 513 88 43 241 776 599 
788 9 499 865 265 280 485 721 633 765 794 
789 9 136 447 517 103 874 486 3 117 854 
790 9 85 867 156 692 376 732 494 881 738 
791 9 820 70 212 4 772 857 638 781 606 
792 9 179 426 357 663 707 308 61 698 196 
793 9 816 79 348 854 121 60 825 445 761 
794 9 765 522 172 8 788 14 75 704 76 
795 9 144 84 4 212 768 784 820 857 638 
796 9 697 416 694 711 647 74 563 729 724 
797 9 159 211 91 158 375 505 673 322 312 
798 9 291 728 87 208 58 602 595 751 31 
799 9 131 87 31 208 390 871 566 209 798 
800 9 504 320 748 866 500 214 266 648 185 
801 9 753 529 530 727 468 808 465 830 100 
802 9 851 859 82 618 429 596 242 398 872 
803 9 220 521 244 664 43 410 730 776 269 
804 9 317 760 588 372 193 666 457 524 155 
805 8 624 654 172 600 783 499 633 251 
806 9 773 378 297 778 490 502 580 299 314 
807 9 246 749 141 390 171 90 52 362 21 
808 9 465 830 309 530 349 181 801 401 100 
809 9 438 538 636 101 452 281 38 301 634 
810 9 81 594 6 847 637 216 271 669 223 
811 9 879 54 202 78 232 813 870 812 409 
812 9 870 78 295 458 202 442 539 811 619 
813 9 83 879 442 811 54 176 534 295 78 
814 9 579 360 509 150 113 388 743 2 229 
815 9 303 622 615 300 785 769 674 767 272 
816 9 793 79 121 445 348 181 854 825 60 
817 9 269 620 180 88 513 410 776 775 353 
818 9 273 655 175 105 713 483 86 770 65 
819 9 543 472 826 331 657 659 516 887 327 
820 9 4 791 212 70 781 795 857 638 772 
821 9 182 387 695 287 164 228 345 237 71 
822 9 763 374 614 245 247 26 128 608 418 
823 9 435 710 606 864 15 356 781 70 332 
824 9 705 876 125 443 475 316 377 406 554 
825 9 60 10 761 120 473 793 488 816 79 
826 9 887 819 543 472 12 686 47 359 331 
827 9 883 746 394 319 324 536 431 62 440 
828 9 170 463 700 342 752 56 850 511 848 
829 9 217 542 872 398 119 354 596 334 48 
830 9 808 465 309 349 181 445 530 401 837 
831 9 667 787 599 293 241 7 43 664 597 
832 9 95 598 441 640 747 681 446 194 285 
833 9 589 449 149 9 709 94 11 684 464 
834 9 762 52 417 346 541 209 102 493 205 
835 9 512 255 860 567 35 576 702 718 552 
836 8 600 654 323 469 624 564 651 470 
837 9 138 719 414 143 830 349 465 100 445 
838 9 27 215 48 119 354 363 733 542 829 
839 9 755 400 440 663 707 28 510 44 431 
840 9 646 203 186 169 205 566 541 691 209 
841 9 356 332 565 551 547 574 864 126 15 
842 9 96 393 142 50 187 173 25 63 341 
843 9 98 415 481 289 392 880 743 19 150 
844 9 871 8 575 704 73 670 307 225 485 
845 9 693 515 571 36 365 385 568 386 750 
846 9 133 67 671 714 459 219 336 198 395 
847 9 6 810 669 81 216 343 594 637 63 
848 9 56 616 29 197 358 590 889 139 828 
849 9 888 605 497 562 42 736 5 196 93 
850 9 342 511 700 677 463 828 170 752 642 
851 9 618 242 802 231 429 462 82 361 859 
852 9 69 283 644 124 471 256 186 851 231 
853 9 46 623 653 217 872 859 596 82 207 
854 9 348 486 793 816 136 60 277 79 517 
855 9 453 439 444 129 213 329 396 59 80 
856 9 285 495 424 766 634 538 747 423 260 
857 9 638 404 212 772 629 741 38 4 135 
858 9 526 92 680 549 397 869 201 649 425 
859 9 82 802 596 872 398 853 46 653 759 
860 9 573 556 512 567 835 507 702 162 740 
861 9 368 301 593 652 191 49 281 634 350 
862 9 218 668 97 491 550 741 337 144 106 
863 9 394 319 536 883 324 746 827 508 236 
864 9 710 15 356 823 332 435 126 531 841 
865 9 280 485 788 265 390 844 499 8 721 
866 9 748 266 504 500 214 800 586 320 460 
867 9 692 790 738 85 881 156 407 494 376 
868 9 191 49 662 296 284 593 402 720 350 
869 9 397 649 680 201 425 498 858 174 496 
870 9 78 812 202 628 539 811 428 578 232 
871 9 844 575 670 73 704 208 8 307 206 
872 9 398 596 217 829 542 334 859 853 46 
873 9 420 544 238 160 884 661 141 240 90 
874 9 447 685 789 684 154 136 709 103 401 
875 9 72 145 665 2 304 229 627 730 733 
876 9 125 705 824 23 745 194 71 377 554 
877 9 288 469 470 479 651 323 757 152 744 
878 5 454 430 235 477 699 
879 9 811 54 813 202 78 232 409 315 870 
880 9 392 289 157 729 98 134 843 694 711 
881 9 645 407 210 738 867 494 85 692 345 
882 9 248 777 148 39 573 236 740 683 62 
883 9 319 394 827 324 536 431 746 863 440 
884 9 544 102 417 873 478 762 493 361 141 
885 6 682 699 74 474 134 477 
886 9 59 16 129 413 453 396 444 213 855 
887 9 826 686 359 12 227 32 819 47 436 
888 9 5 196 849 605 736 294 42 497 562 
889 9 197 848 326 590 572 170 828 56 583 
DEPOT_SECTION
   1
   -1
EOF
