NAME :  X-n895-kX-w357-c11.cctp
COMMENT : 	Adapted by Maziero, Usberti and Cavellucci from the Uchoa, Pecin, Pessoa, Poggi, Subramanian, and Vidal (2013)
TYPE :  CCTP
DIMENSION :    894
EDGE_WEIGHT_TYPE : 	EUC_2D	
CAPACITY : 	1816
VERTICES_WITHIN_COVERAGE :  11
VERTICES_WITH_DEMAND : 	357
NODE_COORD_SECTION
1 706 137
2 392 662
3 692 274
4 944 370
5 726 945
6 869 43
7 621 770
8 112 402
9 523 374
10 619 178
11 553 457
12 95 814
13 696 130
14 27 417
15 940 487
16 943 965
17 670 435
18 931 752
19 307 776
20 404 101
21 199 526
22 117 312
23 762 505
24 433 864
25 868 155
26 832 870
27 488 624
28 686 782
29 585 89
30 268 339
31 248 344
32 22 776
33 89 614
34 75 271
35 882 646
36 6 656
37 449 27
38 857 362
39 809 774
40 403 626
41 559 145
42 667 945
43 524 737
44 683 777
45 641 798
46 514 495
47 102 813
48 517 591
49 748 330
50 859 127
51 699 41
52 281 442
53 257 106
54 116 99
55 41 732
56 555 95
57 378 1
58 155 308
59 942 955
60 619 205
61 646 910
62 796 791
63 785 49
64 958 817
65 424 240
66 311 226
67 37 119
68 761 866
69 404 417
70 929 432
71 743 535
72 418 679
73 107 379
74 329 868
75 22 432
76 24 474
77 380 83
78 145 135
79 576 209
80 877 859
81 901 0
82 464 473
83 181 35
84 976 331
85 672 617
86 324 264
87 193 341
88 525 782
89 527 935
90 218 529
91 48 325
92 431 989
93 626 974
94 594 432
95 757 450
96 805 123
97 959 266
98 348 776
99 409 946
100 458 247
101 841 361
102 333 503
103 675 306
104 407 811
105 418 325
106 856 199
107 300 792
108 371 156
109 163 237
110 172 589
111 609 928
112 273 18
113 379 694
114 996 38
115 4 6
116 738 18
117 693 307
118 989 54
119 468 585
120 594 172
121 563 205
122 271 783
123 58 987
124 374 383
125 775 530
126 913 512
127 413 798
128 813 948
129 943 941
130 437 169
131 247 374
132 347 51
133 8 111
134 321 825
135 854 335
136 619 272
137 742 232
138 496 187
139 605 66
140 973 75
141 241 509
142 845 106
143 451 217
144 955 319
145 432 662
146 704 73
147 418 205
148 817 754
149 570 429
150 362 720
151 114 713
152 11 516
153 737 62
154 563 318
155 222 187
156 697 638
157 343 830
158 1 279
159 3 342
160 231 539
161 628 515
162 827 658
163 801 656
164 679 529
165 158 918
166 142 648
167 530 874
168 305 312
169 328 352
170 501 82
171 189 506
172 78 479
173 863 149
174 413 938
175 353 328
176 173 12
177 311 155
178 839 829
179 674 882
180 463 786
181 554 231
182 693 512
183 382 975
184 28 64
185 298 757
186 343 385
187 789 178
188 650 2
189 580 122
190 111 986
191 779 332
192 311 146
193 263 238
194 770 491
195 319 39
196 703 930
197 539 28
198 45 221
199 954 171
200 714 181
201 428 934
202 120 134
203 301 361
204 940 618
205 277 407
206 126 331
207 564 510
208 177 346
209 265 422
210 651 553
211 19 286
212 928 367
213 894 965
214 232 681
215 523 620
216 894 67
217 498 538
218 864 235
219 8 209
220 482 729
221 736 659
222 491 881
223 990 18
224 303 19
225 98 362
226 513 920
227 54 777
228 669 503
229 401 696
230 282 796
231 373 477
232 97 129
233 289 226
234 604 594
235 192 881
236 806 742
237 737 534
238 235 539
239 335 13
240 218 573
241 544 714
242 389 497
243 706 668
244 459 745
245 841 879
246 229 474
247 786 899
248 857 774
249 585 656
250 373 117
251 132 531
252 444 64
253 60 688
254 392 214
255 884 652
256 455 410
257 384 134
258 309 192
259 255 115
260 828 499
261 995 168
262 102 622
263 40 41
264 704 407
265 164 482
266 201 711
267 110 315
268 928 101
269 490 778
270 991 811
271 916 88
272 545 940
273 398 279
274 304 912
275 984 276
276 308 171
277 644 223
278 934 144
279 420 61
280 169 435
281 810 360
282 121 281
283 409 392
284 787 260
285 805 460
286 62 236
287 713 481
288 18 568
289 369 806
290 407 560
291 172 307
292 429 168
293 570 697
294 755 949
295 204 115
296 785 263
297 301 949
298 163 735
299 308 916
300 553 947
301 787 391
302 640 395
303 556 985
304 408 699
305 77 370
306 647 45
307 101 363
308 724 896
309 554 248
310 597 941
311 677 358
312 80 300
313 422 903
314 359 979
315 89 43
316 759 567
317 217 226
318 755 196
319 727 756
320 243 741
321 305 628
322 55 272
323 54 601
324 723 760
325 376 531
326 491 26
327 116 948
328 588 950
329 952 878
330 740 917
331 33 931
332 934 527
333 878 622
334 436 544
335 506 952
336 56 100
337 833 235
338 666 148
339 311 177
340 958 167
341 820 203
342 468 112
343 805 38
344 840 619
345 672 531
346 336 457
347 422 735
348 610 233
349 549 234
350 717 345
351 174 728
352 379 181
353 441 849
354 507 580
355 152 247
356 959 525
357 665 922
358 560 104
359 24 789
360 366 714
361 364 519
362 180 505
363 537 611
364 319 92
365 12 721
366 627 506
367 14 240
368 742 392
369 913 124
370 611 472
371 861 969
372 258 237
373 692 340
374 798 911
375 55 353
376 698 642
377 810 497
378 303 968
379 659 716
380 592 510
381 50 737
382 199 933
383 307 646
384 676 138
385 27 719
386 9 732
387 717 497
388 387 712
389 684 116
390 211 434
391 180 889
392 367 808
393 790 121
394 735 751
395 69 205
396 960 894
397 442 938
398 464 531
399 334 100
400 713 827
401 568 287
402 734 265
403 1 988
404 877 355
405 421 908
406 835 584
407 679 551
408 905 619
409 84 49
410 509 761
411 49 237
412 954 648
413 970 982
414 452 208
415 375 760
416 384 862
417 314 488
418 815 978
419 997 598
420 258 573
421 685 368
422 697 265
423 833 497
424 842 481
425 477 937
426 654 904
427 880 966
428 105 180
429 415 523
430 196 870
431 712 781
432 220 652
433 47 976
434 283 778
435 984 484
436 62 771
437 256 155
438 830 384
439 924 883
440 710 801
441 748 439
442 203 86
443 843 548
444 946 896
445 558 219
446 726 422
447 627 320
448 753 602
449 551 407
450 170 569
451 242 803
452 822 356
453 918 925
454 264 847
455 232 865
456 40 984
457 678 213
458 187 214
459 218 141
460 5 201
461 181 727
462 73 772
463 400 534
464 514 119
465 603 438
466 509 260
467 55 709
468 65 734
469 448 333
470 32 560
471 40 598
472 364 436
473 48 915
474 638 194
475 289 900
476 817 504
477 65 701
478 270 825
479 313 577
480 33 609
481 988 726
482 328 755
483 704 359
484 327 312
485 631 37
486 165 429
487 629 240
488 212 564
489 642 201
490 585 932
491 335 982
492 911 208
493 993 799
494 347 487
495 648 607
496 844 478
497 484 925
498 662 962
499 469 911
500 136 495
501 246 693
502 694 362
503 279 948
504 117 776
505 237 728
506 61 334
507 639 541
508 819 723
509 742 676
510 335 666
511 685 781
512 475 132
513 875 693
514 538 786
515 631 519
516 24 691
517 76 956
518 649 263
519 273 876
520 609 475
521 618 152
522 97 306
523 481 737
524 71 451
525 96 989
526 265 266
527 705 252
528 459 979
529 940 686
530 991 133
531 473 340
532 524 304
533 902 482
534 62 39
535 891 180
536 218 68
537 564 128
538 724 756
539 142 723
540 199 802
541 838 393
542 170 195
543 991 179
544 327 422
545 462 560
546 50 912
547 274 530
548 165 743
549 503 930
550 966 598
551 414 19
552 478 965
553 857 314
554 974 589
555 905 657
556 736 179
557 746 547
558 79 359
559 822 719
560 611 871
561 221 972
562 747 25
563 317 246
564 479 411
565 663 953
566 390 844
567 123 548
568 919 567
569 277 365
570 876 710
571 48 695
572 211 991
573 602 104
574 25 664
575 480 25
576 842 729
577 1000 577
578 113 381
579 884 645
580 998 717
581 161 208
582 366 683
583 302 922
584 71 282
585 608 939
586 463 27
587 857 993
588 155 642
589 188 723
590 39 15
591 248 256
592 549 404
593 577 32
594 180 887
595 251 66
596 780 353
597 925 23
598 229 298
599 467 518
600 629 690
601 767 447
602 609 706
603 101 540
604 285 58
605 151 320
606 405 567
607 266 302
608 737 994
609 979 446
610 709 111
611 773 865
612 301 43
613 98 770
614 186 834
615 638 680
616 122 275
617 818 874
618 587 993
619 581 90
620 675 767
621 394 485
622 233 115
623 523 829
624 258 116
625 540 968
626 530 493
627 91 519
628 504 936
629 919 829
630 456 683
631 114 174
632 869 350
633 648 215
634 72 7
635 122 700
636 137 505
637 799 415
638 14 55
639 852 391
640 925 58
641 896 356
642 1000 181
643 740 435
644 171 685
645 414 107
646 319 3
647 428 407
648 649 573
649 287 377
650 345 908
651 260 775
652 455 930
653 395 17
654 29 545
655 784 396
656 515 475
657 76 518
658 397 332
659 249 19
660 84 948
661 619 511
662 55 952
663 110 785
664 245 598
665 767 266
666 689 850
667 524 721
668 408 696
669 215 198
670 559 740
671 850 248
672 813 23
673 113 360
674 5 103
675 150 678
676 24 381
677 564 946
678 948 682
679 692 713
680 439 83
681 120 789
682 383 989
683 444 944
684 780 460
685 291 865
686 884 797
687 580 354
688 597 359
689 39 789
690 105 650
691 974 818
692 772 641
693 278 318
694 277 353
695 705 598
696 10 683
697 376 850
698 709 481
699 554 851
700 349 880
701 654 921
702 287 871
703 507 121
704 651 137
705 885 710
706 978 127
707 252 845
708 108 383
709 796 535
710 324 120
711 680 848
712 741 55
713 567 356
714 948 484
715 384 849
716 898 609
717 333 274
718 48 119
719 162 955
720 755 16
721 680 28
722 905 694
723 516 164
724 815 264
725 145 502
726 370 139
727 147 867
728 413 855
729 725 215
730 382 152
731 465 342
732 207 306
733 362 832
734 450 698
735 76 260
736 689 652
737 456 653
738 166 505
739 297 183
740 674 941
741 360 125
742 698 567
743 641 61
744 806 739
745 879 332
746 291 644
747 328 738
748 60 626
749 771 498
750 773 764
751 782 446
752 236 699
753 246 489
754 44 716
755 125 308
756 465 68
757 471 311
758 586 559
759 690 839
760 703 363
761 61 613
762 959 114
763 505 443
764 236 226
765 591 180
766 298 472
767 808 917
768 177 815
769 80 442
770 820 484
771 534 945
772 971 304
773 508 967
774 318 272
775 826 605
776 884 385
777 305 965
778 664 720
779 527 864
780 516 762
781 853 785
782 306 979
783 686 79
784 294 656
785 990 418
786 775 966
787 52 500
788 972 304
789 504 998
790 173 863
791 580 766
792 130 459
793 639 292
794 688 616
795 926 405
796 683 889
797 590 217
798 80 441
799 949 339
800 366 878
801 5 325
802 189 316
803 213 379
804 248 724
805 489 309
806 435 486
807 484 727
808 224 242
809 94 504
810 314 961
811 231 474
812 516 264
813 832 385
814 900 15
815 127 103
816 176 136
817 160 67
818 346 693
819 547 990
820 584 219
821 495 809
822 383 299
823 69 896
824 947 391
825 705 505
826 822 909
827 976 477
828 799 545
829 610 193
830 46 858
831 752 779
832 505 89
833 483 553
834 525 251
835 585 737
836 759 448
837 553 402
838 300 459
839 867 678
840 77 562
841 499 201
842 492 616
843 690 820
844 310 386
845 956 549
846 803 123
847 354 770
848 134 392
849 6 687
850 8 147
851 859 27
852 553 65
853 695 997
854 465 120
855 407 480
856 399 411
857 510 499
858 608 240
859 906 910
860 834 444
861 900 358
862 448 970
863 466 485
864 845 701
865 763 376
866 76 538
867 899 267
868 750 729
869 950 497
870 161 440
871 222 709
872 693 594
873 768 305
874 449 937
875 154 151
876 148 376
877 474 526
878 265 553
879 617 328
880 417 672
881 781 526
882 11 580
883 237 863
884 128 92
885 351 810
886 669 575
887 843 769
888 740 767
889 304 526
890 298 862
891 966 953
892 37 837
893 711 961
894 534 28
DEMAND_SECTION
2 67
3 86
4 82
5 99
6 54
7 52
8 54
9 71
10 70
11 61
12 74
13 91
14 97
15 92
16 63
17 84
18 90
19 53
20 66
21 79
22 57
23 53
24 72
25 58
26 94
27 86
28 64
29 74
30 82
31 78
32 77
33 78
34 58
35 51
36 64
37 61
38 87
39 92
40 80
41 62
42 97
43 88
44 78
45 78
46 86
47 75
48 62
49 96
50 82
51 50
52 61
53 86
54 67
55 92
56 57
57 51
58 70
59 93
60 83
61 99
62 64
63 62
64 78
65 64
66 81
67 85
68 56
69 56
70 87
71 91
72 92
73 58
74 68
75 93
76 58
77 98
78 87
79 85
80 94
81 71
82 93
83 50
84 60
85 90
86 95
87 87
88 85
89 79
90 54
91 89
92 98
93 98
94 85
95 97
96 94
97 69
98 62
99 56
100 98
101 65
102 55
103 93
104 52
105 69
106 60
107 97
108 55
109 85
110 52
111 66
112 72
113 69
114 50
115 73
116 54
117 74
118 93
119 84
120 69
121 99
122 74
123 94
124 98
125 55
126 95
127 74
128 88
129 100
130 79
131 85
132 78
133 71
134 96
135 96
136 76
137 50
138 100
139 70
140 55
141 70
142 82
143 64
144 61
145 97
146 82
147 89
148 81
149 73
150 63
151 78
152 74
153 69
154 53
155 78
156 71
157 52
158 96
159 92
160 75
161 63
162 56
163 93
164 86
165 58
166 58
167 93
168 78
169 62
170 64
171 83
172 100
173 88
174 79
175 75
176 76
177 62
178 62
179 68
180 80
181 68
182 56
183 65
184 64
185 99
186 71
187 62
188 58
189 74
190 89
191 95
192 70
193 69
194 72
195 99
196 60
197 57
198 95
199 81
200 72
201 60
202 79
203 55
204 76
205 70
206 94
207 95
208 79
209 73
210 69
211 81
212 89
213 92
214 74
215 90
216 53
217 94
218 52
219 66
220 97
221 50
222 75
223 79
224 86
225 74
226 51
227 74
228 90
229 51
230 57
231 53
232 72
233 54
234 71
235 59
236 75
237 50
238 78
239 66
240 85
241 87
242 79
243 99
244 100
245 78
246 69
247 98
248 54
249 62
250 75
251 61
252 77
253 67
254 58
255 88
256 86
257 86
258 73
259 88
260 64
261 75
262 97
263 58
264 91
265 50
266 68
267 63
268 84
269 61
270 84
271 87
272 58
273 61
274 68
275 90
276 99
277 59
278 92
279 84
280 83
281 63
282 65
283 67
284 88
285 54
286 88
287 68
288 86
289 63
290 61
291 62
292 73
293 59
294 65
295 89
296 95
297 57
298 95
299 88
300 93
301 85
302 63
303 50
304 63
305 55
306 62
307 76
308 76
309 67
310 94
311 95
312 52
313 53
314 99
315 53
316 67
317 98
318 66
319 65
320 100
321 63
322 95
323 66
324 54
325 88
326 63
327 90
328 96
329 83
330 79
331 54
332 91
333 54
334 66
335 54
336 63
337 76
338 90
339 78
340 70
341 87
342 76
343 74
344 77
345 92
346 51
347 92
348 55
349 77
350 95
351 74
352 90
353 94
354 98
355 70
356 98
357 94
358 95
COVERAGE_SECTION
2 11 880 72 582 113 229 40 668 145 304 388 818 
3 11 422 527 117 103 402 518 793 457 137 373 729 
4 11 212 824 799 795 861 84 641 144 776 70 785 
5 11 893 196 294 330 308 608 740 786 42 853 565 
6 11 851 216 814 81 640 597 672 343 271 142 268 
7 11 45 791 835 620 44 511 602 28 379 778 670 
8 11 708 578 73 848 307 225 673 876 305 798 769 
9 11 592 837 449 713 564 531 687 731 154 532 763 
10 11 829 474 120 521 60 765 489 633 797 277 704 
11 11 149 656 626 94 449 763 465 592 46 207 837 
12 11 47 663 681 504 613 462 436 227 689 892 830 
13 11 389 384 610 338 704 783 200 146 556 153 521 
14 11 75 676 524 76 798 769 305 375 558 159 172 
15 11 714 869 126 827 533 332 356 435 70 609 845 
16 11 59 129 891 413 453 213 427 859 444 396 371 
17 11 264 302 446 698 287 465 228 421 370 643 520 
18 11 705 481 722 686 529 570 64 678 580 248 493 
19 11 107 185 434 482 230 122 98 747 651 847 134 
20 11 645 77 250 257 680 279 741 726 252 730 108 
21 11 90 171 362 160 238 738 488 141 240 450 265 
22 11 267 755 206 522 282 605 616 58 312 673 225 
23 11 749 194 125 881 71 237 557 709 387 684 377 
24 11 353 728 313 405 566 416 715 104 499 697 222 
25 11 173 50 535 106 142 369 278 341 492 96 846 
26 11 245 617 826 178 80 374 767 247 611 68 128 
27 11 842 215 737 48 119 354 363 630 145 545 833 
28 11 511 44 620 431 440 843 324 538 45 319 400 
29 11 619 573 358 139 56 189 852 537 593 41 743 
30 11 694 31 693 569 607 203 131 649 168 598 169 
31 11 30 131 694 569 693 607 803 598 649 87 203 
32 11 359 689 227 436 386 55 381 462 365 385 468 
33 11 262 761 748 323 690 471 840 480 166 588 567 
34 11 735 584 322 312 286 522 411 282 616 267 198 
35 11 579 255 333 555 408 839 716 513 344 722 162 
36 11 574 696 849 516 480 571 748 253 365 385 471 
37 11 586 575 551 252 326 756 279 653 680 57 170 
38 11 101 632 404 135 639 813 438 776 452 541 745 
39 11 62 148 236 887 744 750 781 248 508 576 559 
40 11 2 145 880 72 606 737 290 582 229 668 113 
41 11 537 189 358 120 723 765 56 464 703 521 573 
42 11 740 565 498 357 701 196 61 426 893 93 796 
43 11 667 780 410 241 670 807 220 523 88 514 269 
44 11 511 28 620 431 440 324 843 538 45 319 394 
45 11 7 620 44 511 28 843 711 759 440 791 666 
46 11 857 626 656 217 863 877 207 599 763 11 82 
47 11 12 663 681 504 613 462 436 227 689 892 727 
48 11 354 363 215 842 27 119 833 217 545 758 877 
49 11 191 873 350 596 865 483 760 373 117 368 502 
50 11 173 142 25 96 369 846 535 216 271 393 106 
51 11 721 146 783 153 712 116 562 306 720 743 188 
52 11 838 209 766 205 544 346 417 753 811 246 844 
53 11 259 624 622 595 437 459 295 536 604 442 364 
54 11 815 884 202 232 78 817 409 336 315 875 816 
55 11 381 754 385 468 467 365 386 571 477 436 516 
56 11 358 619 852 29 537 189 464 573 41 832 703 
57 11 653 551 239 132 646 195 279 37 224 77 612 
58 11 605 291 755 802 206 22 282 208 267 616 87 
59 11 16 129 891 453 413 213 859 444 427 396 439 
60 11 829 474 489 10 348 277 633 797 487 858 765 
61 11 426 701 357 179 42 111 740 796 565 585 560 
62 11 39 750 148 831 236 887 744 178 781 888 248 
63 11 343 672 712 562 720 153 116 393 846 96 851 
64 11 691 270 493 629 329 18 439 396 686 444 80 
65 11 100 143 147 254 414 273 130 292 822 352 105 
66 11 563 233 258 86 739 774 193 339 717 372 276 
67 11 718 336 133 674 850 184 232 638 263 54 202 
68 11 611 247 308 330 374 617 400 767 26 666 826 
69 11 856 283 647 472 124 256 855 231 186 621 564 
70 11 795 824 609 714 15 533 785 4 212 776 827 
71 11 237 557 125 23 316 881 387 749 825 194 709 
72 11 880 668 145 304 229 2 734 630 113 388 737 
73 11 708 578 307 225 673 8 848 305 558 876 206 
74 11 700 890 685 800 157 702 650 134 733 697 274 
75 11 14 76 676 524 769 798 172 787 305 152 375 
76 11 787 75 152 524 172 14 769 798 657 654 809 
77 11 20 250 645 132 279 741 399 257 726 680 364 
78 11 875 202 816 815 54 884 232 631 428 295 542 
79 11 820 121 797 445 181 765 349 829 120 348 60 
80 11 245 26 178 629 439 859 617 686 826 329 444 
81 11 814 597 851 6 640 216 271 223 672 114 118 
82 11 863 806 599 656 763 857 877 46 855 398 256 
83 11 176 817 536 442 659 595 884 295 815 54 315 
84 11 144 772 788 799 4 275 212 97 824 861 641 
85 11 794 495 872 156 376 695 736 886 648 742 243 
86 11 774 717 563 66 484 168 233 526 193 607 822 
87 11 208 802 732 291 803 605 58 31 598 876 131 
88 11 514 780 410 269 821 43 623 670 791 667 180 
89 11 771 272 226 628 549 335 300 625 773 677 497 
90 11 160 21 238 141 488 171 240 362 753 878 246 
91 11 506 375 312 801 558 159 211 584 322 522 305 
92 11 862 528 683 99 682 183 397 552 174 201 874 
93 11 498 585 565 618 310 328 111 42 740 490 701 
94 11 465 149 370 520 11 449 837 592 302 688 17 
95 11 836 601 441 643 684 751 446 194 285 749 287 
96 11 846 393 142 50 187 173 25 63 341 343 318 
97 11 275 772 788 144 867 84 799 492 543 642 199 
98 11 847 482 415 885 289 392 19 747 107 185 157 
99 11 174 201 397 683 183 405 874 313 862 92 652 
100 11 143 65 414 466 147 812 841 757 834 273 805 
101 11 38 452 438 813 135 632 281 541 639 404 745 
102 11 494 417 361 889 346 766 231 325 838 242 621 
103 11 117 3 373 793 422 447 518 311 350 502 483 
104 11 127 566 289 392 715 728 697 733 353 416 885 
105 11 658 469 822 273 731 757 531 175 283 124 805 
106 11 341 218 535 337 25 671 173 492 187 50 724 
107 11 19 230 434 122 185 134 651 478 482 98 885 
108 11 730 726 257 352 741 250 292 710 177 192 254 
109 11 355 581 458 542 317 616 282 808 669 58 291 
110 11 450 488 240 588 567 166 21 251 664 90 160 
111 11 585 310 490 328 61 701 677 93 426 357 560 
112 11 659 224 612 604 646 195 595 239 536 132 364 
113 11 582 388 229 360 304 668 150 818 2 72 880 
114 11 118 223 140 597 640 762 706 268 271 530 814 
115 11 590 263 638 184 534 634 409 315 674 133 336 
116 11 562 720 712 153 51 63 721 146 343 672 783 
117 11 103 3 373 422 350 311 483 502 527 793 760 
118 11 114 140 223 640 762 597 706 268 530 271 216 
119 11 545 833 354 842 27 48 334 398 217 877 215 
120 11 765 10 829 521 60 79 41 121 797 820 474 
121 11 79 445 820 181 797 349 765 309 120 829 348 
122 11 434 651 230 107 451 19 185 478 320 804 454 
123 11 433 456 662 517 525 660 190 403 331 327 473 
124 11 186 283 856 69 472 169 658 175 647 544 844 
125 11 881 709 23 828 71 749 557 237 194 316 377 
126 11 332 533 15 869 714 356 568 845 827 435 424 
127 11 104 289 392 180 566 415 728 353 715 733 885 
128 11 418 767 374 826 786 371 247 294 587 427 245 
129 11 59 16 891 453 444 859 413 396 213 439 329 
130 11 292 147 414 143 512 854 730 352 138 254 257 
131 11 31 569 803 694 649 30 205 209 203 87 693 
132 11 195 239 77 612 364 399 224 646 57 653 604 
133 11 674 67 850 718 336 184 638 263 460 534 232 
134 11 157 885 107 733 74 890 230 392 685 19 478 
135 11 553 632 745 38 101 404 452 641 281 861 438 
136 11 793 518 487 858 348 447 401 277 879 797 633 
137 11 729 402 318 527 665 284 296 556 422 200 3 
138 11 841 723 414 143 512 130 703 121 292 445 464 
139 11 29 619 743 573 485 593 306 852 56 358 189 
140 11 118 762 114 640 268 706 271 223 530 597 369 
141 11 753 90 238 160 811 246 547 21 878 171 362 
142 11 50 96 846 173 25 393 216 6 369 271 343 
143 11 414 100 65 147 130 841 138 292 254 466 352 
144 11 799 772 788 84 4 275 97 212 861 641 824 
145 11 880 72 737 630 2 734 668 304 40 229 113 
146 11 783 51 153 610 712 389 721 13 306 562 743 
147 11 254 414 143 65 292 130 352 100 730 108 273 
148 11 236 744 39 887 508 559 576 62 248 750 781 
149 11 94 449 837 11 592 465 370 520 763 9 656 
150 11 360 388 113 818 582 747 415 229 482 304 847 
151 11 635 539 477 675 468 298 467 548 613 253 351 
152 11 654 76 787 470 288 882 657 866 172 627 840 
153 11 712 146 562 51 116 720 63 783 610 721 343 
154 11 401 713 687 532 688 879 447 9 309 136 812 
155 11 669 317 764 458 459 437 542 808 372 193 581 
156 11 376 736 794 243 85 695 221 872 495 509 448 
157 11 733 885 134 392 289 697 74 715 566 700 416 
158 11 211 367 801 322 159 411 91 219 584 198 34 
159 11 801 676 91 375 211 506 158 558 14 305 322 
160 11 238 90 488 141 21 240 878 420 547 753 171 
161 11 515 366 661 507 380 228 210 520 370 345 164 
162 11 163 344 839 864 775 35 255 579 692 513 559 
163 11 162 692 344 775 509 864 221 559 508 839 448 
164 11 345 182 407 228 825 210 507 742 886 515 387 
165 11 391 719 594 382 235 327 727 790 430 660 190 
166 11 588 675 690 644 262 635 33 110 151 539 432 
167 11 779 699 222 623 226 89 549 628 272 497 499 
168 11 484 693 607 774 30 169 717 203 694 175 86 
169 11 203 175 186 844 484 168 649 694 569 124 693 
170 11 832 464 703 756 342 854 852 56 512 326 252 
171 11 362 21 738 265 90 725 246 141 636 160 811 
172 11 524 809 787 769 798 657 627 76 792 866 500 
173 11 25 50 535 142 106 369 96 846 341 278 492 
174 11 99 201 397 405 683 313 874 652 862 183 92 
175 11 484 169 822 658 168 186 717 124 203 105 774 
176 11 83 817 536 659 442 315 884 595 409 112 634 
177 11 192 276 339 739 258 710 437 741 108 399 726 
178 11 26 781 80 245 617 686 62 248 887 39 611 
179 11 796 426 666 711 61 357 701 759 308 196 740 
180 11 269 821 244 127 410 523 780 220 104 88 807 
181 11 349 445 309 121 79 820 834 797 812 466 858 
182 11 825 164 228 345 387 698 287 407 237 71 742 
183 11 682 314 99 174 491 92 201 862 683 810 397 
184 11 638 263 534 674 336 590 133 67 409 718 115 
185 11 19 434 482 107 747 122 230 651 98 320 847 
186 11 124 844 169 544 203 472 649 175 856 283 69 
187 11 318 341 556 96 393 846 106 137 337 729 200 
188 11 485 721 306 743 51 139 593 783 116 146 562 
189 11 537 358 573 41 619 29 56 521 120 765 139 
190 11 525 327 517 660 123 719 433 662 456 165 331 
191 11 596 873 49 281 865 452 301 350 655 665 101 
192 11 177 276 710 339 739 258 399 741 364 437 726 
193 11 372 591 526 233 764 808 317 66 563 669 607 
194 11 749 23 684 881 125 377 95 601 836 285 751 
195 11 612 224 132 239 646 604 112 364 399 57 595 
196 11 5 740 893 42 330 357 308 565 796 701 498 
197 11 894 593 852 326 575 170 56 832 619 29 139 
198 11 411 286 395 367 219 460 735 322 34 584 211 
199 11 340 278 543 261 642 706 530 492 762 369 535 
200 11 556 729 318 457 13 384 137 338 610 389 527 
201 11 397 174 683 874 99 405 652 313 862 499 425 
202 11 232 78 815 54 875 631 884 428 816 336 718 
203 11 649 569 694 844 169 30 186 168 693 205 484 
204 11 412 550 408 716 554 555 568 419 333 579 35 
205 11 209 649 52 844 569 131 203 544 694 838 766 
206 11 22 267 755 605 673 58 522 307 225 282 876 
207 11 380 626 46 11 758 661 857 520 370 656 366 
208 11 87 802 605 291 876 58 803 732 206 848 755 
209 11 205 52 649 131 838 390 569 844 766 544 811 
210 11 507 648 407 886 345 164 515 161 742 228 366 
211 11 158 322 801 367 91 584 411 34 159 312 735 
212 11 4 861 824 641 799 795 776 404 144 84 745 
213 11 427 371 587 453 16 59 129 859 891 413 418 
214 11 501 752 871 432 266 804 505 320 589 644 784 
215 11 363 48 842 27 354 119 249 737 833 234 217 
216 11 271 640 6 268 814 851 597 369 142 81 50 
217 11 833 877 398 599 857 545 354 46 626 48 119 
218 11 671 337 106 867 341 492 724 535 553 25 284 
219 11 460 367 198 411 286 395 850 158 211 322 735 
220 11 807 523 244 410 43 667 734 780 269 630 180 
221 11 509 243 692 376 156 736 448 794 163 695 679 
222 11 499 167 779 226 497 549 628 425 353 24 623 
223 11 114 118 140 597 640 814 81 762 271 268 216 
224 11 646 612 195 112 239 604 132 659 595 364 57 
225 11 307 673 73 558 305 708 578 8 206 375 506 
226 11 549 628 89 497 335 771 272 425 222 499 773 
227 11 436 689 462 32 359 381 468 613 55 12 663 
228 11 182 164 345 825 515 366 161 698 387 507 287 
229 11 668 304 388 113 72 880 2 582 360 347 145 
230 11 122 107 434 651 478 19 451 185 134 454 707 
231 11 621 242 494 855 346 472 361 102 325 417 429 
232 11 202 54 815 78 631 884 336 718 428 67 875 
233 11 66 193 372 563 258 739 526 591 86 764 339 
234 11 758 495 648 210 507 249 886 363 85 515 161 
235 10 430 594 391 790 455 614 727 883 165 382 
236 11 744 148 508 559 39 576 750 887 62 864 868 
237 11 71 557 23 125 316 387 825 881 182 749 742 
238 11 160 90 141 878 488 21 240 547 420 753 171 
239 11 646 195 224 132 57 612 653 112 604 551 364 
240 11 488 160 664 238 420 90 450 110 21 878 141 
241 11 667 43 670 293 835 780 410 807 791 220 602 
242 11 621 855 231 361 325 429 463 494 806 102 290 
243 11 736 376 156 221 509 679 794 85 379 778 615 
244 11 523 220 807 347 180 269 734 410 780 630 43 
245 11 26 617 826 80 178 767 374 247 611 859 128 
246 11 811 753 141 390 171 90 362 21 52 209 160 
247 11 374 767 611 826 68 617 330 26 128 245 294 
248 11 781 887 686 148 576 39 178 236 744 62 508 
249 11 293 602 600 615 234 363 241 215 495 835 670 
250 11 741 257 726 20 77 730 108 645 399 710 364 
251 11 567 636 603 725 500 627 738 809 450 362 866 
252 11 680 756 279 37 586 645 575 20 342 551 170 
253 11 477 571 467 754 516 574 385 468 55 381 696 
254 11 147 352 65 143 292 414 108 730 130 273 100 
255 11 35 579 555 333 839 408 513 716 722 344 162 
256 11 564 647 283 69 856 763 82 731 531 863 9 
257 11 726 730 250 108 741 20 645 352 77 292 399 
258 11 339 739 276 66 177 233 192 563 193 437 372 
259 11 624 53 622 437 459 595 295 442 536 192 604 
260 11 423 476 770 377 424 496 285 709 443 828 881 
261 11 543 642 530 340 199 706 762 278 369 492 268 
262 11 33 690 748 761 166 323 588 840 471 480 675 
263 11 534 184 590 638 409 634 315 115 336 674 133 
264 11 446 368 421 17 760 502 643 483 441 311 350 
265 11 738 362 725 500 171 636 792 870 280 486 21 
266 11 589 871 461 351 752 505 644 214 298 501 548 
267 11 22 522 755 206 312 282 605 616 673 58 225 
268 11 271 369 762 278 640 216 140 706 530 340 50 
269 11 410 180 780 821 88 523 244 514 220 807 43 
270 11 493 691 64 629 329 18 481 396 580 444 439 
271 11 268 216 640 369 762 140 278 6 597 50 142 
272 11 300 771 89 677 625 226 335 490 628 549 328 
273 11 822 65 105 658 254 717 175 100 469 86 147 
274 11 299 583 475 297 650 503 702 519 685 810 890 
275 11 97 788 772 144 84 799 867 642 543 492 4 
276 11 339 177 739 258 192 710 437 66 233 108 741 
277 11 633 489 487 474 60 348 457 518 858 829 10 
278 11 369 340 199 762 268 706 535 530 271 261 25 
279 11 252 680 551 20 37 77 645 756 653 586 342 
280 11 486 870 390 792 265 848 876 8 500 738 362 
281 11 452 101 438 596 813 301 191 541 655 38 865 
282 11 616 755 22 522 267 58 312 355 34 605 206 
283 11 856 647 69 124 256 658 472 186 105 469 564 
284 11 296 665 724 873 337 137 402 671 341 191 318 
285 11 684 751 770 860 377 601 424 496 260 637 423 
286 11 411 198 735 395 34 322 584 367 219 211 312 
287 11 698 387 825 182 228 643 95 23 441 836 194 
288 11 882 470 654 471 480 323 152 840 761 866 748 
289 11 392 885 733 157 98 104 847 566 127 697 415 
290 11 606 463 334 429 325 545 361 398 40 119 242 
291 11 58 802 605 732 208 87 755 206 22 282 598 
292 11 130 147 414 730 352 143 257 512 108 254 854 
293 11 241 602 835 249 670 667 600 43 615 791 780 
294 11 786 5 330 893 608 196 374 128 247 308 767 
295 11 442 622 459 816 536 259 53 624 78 875 817 
296 11 284 665 724 873 402 137 337 671 191 341 318 
297 11 777 810 378 503 583 782 299 274 491 475 650 
298 11 548 351 461 539 589 266 644 151 635 675 504 
299 11 274 583 475 297 650 503 810 777 702 74 378 
300 11 272 677 771 625 89 328 490 303 819 310 335 
301 11 655 637 865 281 596 438 368 813 452 541 751 
302 11 17 311 421 688 465 94 502 264 760 879 483 
303 11 819 625 618 300 677 272 771 328 773 789 89 
304 11 668 229 72 388 880 113 347 2 734 145 360 
305 11 558 225 307 375 73 708 673 578 506 8 91 
306 11 743 485 721 188 139 51 783 146 593 573 29 
307 11 225 673 73 708 558 578 305 8 206 848 375 
308 11 330 196 796 68 5 179 611 666 294 247 357 
309 11 349 181 445 834 401 812 820 121 79 466 797 
310 11 585 328 490 111 677 93 300 272 618 61 303 
311 11 421 502 373 760 483 350 103 302 117 264 447 
312 11 522 584 34 267 322 22 506 735 91 282 755 
313 11 405 201 174 397 24 652 874 99 683 499 728 
314 11 183 491 682 810 782 777 378 99 297 174 650 
315 11 409 534 634 263 590 54 884 184 336 815 817 
316 11 557 71 448 125 237 828 881 709 742 23 695 
317 11 808 764 669 458 155 372 591 193 109 542 581 
318 11 556 729 137 187 200 341 665 284 402 296 527 
319 11 538 324 394 888 431 831 868 750 440 28 44 
320 11 505 804 651 871 752 501 122 266 434 185 589 
321 11 383 746 784 510 479 664 420 818 582 878 432 
322 11 584 34 735 411 286 312 211 198 367 91 158 
323 11 471 761 480 748 33 840 470 882 288 262 654 
324 11 538 319 394 888 431 831 868 28 44 440 511 
325 11 361 463 242 429 290 606 621 102 494 231 855 
326 11 575 586 37 894 197 756 170 252 832 852 551 
327 11 660 190 517 525 719 165 662 123 823 433 546 
328 11 310 490 585 677 111 300 618 272 93 303 625 
329 11 396 444 439 859 453 629 64 129 691 891 80 
330 11 308 5 294 196 247 893 68 374 786 611 796 
331 11 473 546 662 433 517 823 456 660 123 403 830 
332 11 356 126 845 869 15 568 714 533 827 435 554 
333 11 35 579 716 408 255 344 555 775 406 839 162 
334 11 429 398 545 290 463 606 599 877 833 119 806 
335 11 773 628 549 89 771 552 226 425 497 625 272 
336 11 718 67 184 133 232 674 409 54 263 534 638 
337 11 671 218 724 341 106 284 296 187 665 867 535 
338 11 384 704 13 389 521 474 10 610 200 489 457 
339 11 276 258 739 177 192 66 233 710 437 108 352 
340 11 199 278 543 261 642 706 530 762 369 492 535 
341 11 337 106 187 218 671 724 318 284 25 173 296 
342 11 854 512 703 680 756 832 170 464 252 645 20 
343 11 672 63 720 851 562 6 712 116 153 142 393 
344 11 775 406 333 162 35 579 163 255 716 408 839 
345 11 164 407 182 228 210 507 825 515 742 886 161 
346 11 494 472 544 838 417 766 231 102 52 621 242 
347 11 244 304 668 388 229 734 415 72 113 523 220 
348 11 858 487 797 60 820 277 136 829 79 633 489 
349 11 181 309 445 834 121 79 820 797 812 466 401 
350 11 483 760 373 502 49 421 311 117 368 865 103 
351 11 461 298 589 548 266 539 644 871 675 635 151 
352 11 108 730 254 726 147 257 292 130 741 250 339 
353 11 24 728 104 566 313 715 127 416 222 405 697 
354 11 48 833 119 842 215 217 363 27 545 877 398 
355 11 109 581 616 282 458 542 58 291 755 317 808 
356 11 845 332 869 15 714 126 435 827 568 554 577 
357 11 701 426 740 61 42 565 796 196 498 179 111 
358 11 56 537 619 189 29 852 41 573 464 703 832 
359 11 32 689 227 436 892 462 381 55 386 365 468 
360 11 150 388 113 818 582 229 304 747 668 415 482 
361 11 325 242 102 494 463 231 621 429 855 290 417 
362 11 171 738 21 265 725 636 90 500 251 246 811 
363 11 215 48 354 842 27 249 234 758 119 833 217 
364 11 399 710 604 132 612 195 741 192 250 77 53 
365 11 386 385 55 516 754 849 696 381 571 467 468 
366 11 161 661 515 380 520 507 370 228 345 210 164 
367 11 219 411 198 460 158 211 286 322 395 735 34 
368 11 865 446 264 655 643 301 441 760 483 350 596 
369 11 268 278 271 762 50 25 173 216 535 199 340 
370 11 520 465 366 661 380 94 161 515 149 11 207 
371 11 427 587 213 418 128 453 826 767 859 16 59 
372 11 193 591 764 526 233 808 317 66 669 563 155 
373 11 483 502 311 350 760 421 117 103 49 3 264 
374 11 767 247 826 128 617 611 26 245 294 68 330 
375 11 506 558 305 91 676 225 307 159 801 73 673 
376 11 156 736 243 794 85 221 695 872 509 495 448 
377 11 476 770 260 423 424 285 496 749 194 709 881 
378 11 777 782 810 297 503 491 583 299 274 314 475 
379 11 778 679 600 615 602 620 7 44 243 511 28 
380 11 661 207 366 161 520 515 370 758 507 626 11 
381 11 55 468 754 467 385 436 477 227 365 386 462 
382 10 719 165 561 391 594 235 572 430 790 455 
383 11 746 784 321 510 818 479 582 501 664 214 2 
384 11 338 13 389 704 610 200 521 783 474 10 146 
385 11 365 754 55 386 516 381 467 571 849 696 468 
386 11 365 385 55 754 381 516 849 32 696 467 571 
387 11 825 287 698 182 237 23 71 228 164 194 749 
388 11 113 229 360 304 150 668 582 347 72 818 415 
389 11 13 384 610 338 783 704 146 743 200 521 51 
390 11 280 246 811 486 870 209 803 753 265 52 131 
391 11 594 235 430 790 165 727 382 614 455 883 719 
392 11 289 885 733 157 98 104 847 566 697 715 127 
393 11 846 96 142 187 50 63 173 153 556 610 712 
394 11 319 538 324 888 868 831 431 750 440 679 28 
395 11 198 286 411 428 631 735 219 460 367 34 322 
396 11 444 329 439 129 453 859 891 59 16 64 629 
397 11 683 874 201 652 174 862 99 425 405 499 313 
398 11 877 599 545 833 334 217 863 429 119 806 857 
399 11 364 710 741 250 77 132 192 726 177 257 195 
400 11 843 440 759 666 711 431 28 511 44 68 831 
401 11 154 309 532 136 349 834 812 181 858 879 466 
402 11 527 665 137 422 3 296 729 873 284 117 49 
403 11 456 433 123 331 662 517 473 546 660 525 190 
404 11 632 641 38 745 861 135 776 101 639 553 212 
405 11 313 201 174 397 99 652 874 683 24 499 728 
406 11 775 344 443 828 333 709 716 162 35 316 408 
407 11 345 164 742 886 210 648 182 507 872 228 825 
408 11 716 333 579 35 204 555 255 568 412 344 550 
409 11 315 534 634 263 590 184 336 54 884 815 638 
410 11 780 269 88 43 523 514 220 807 667 821 180 
411 11 286 198 367 735 322 395 34 219 584 211 460 
412 11 204 678 529 555 550 408 554 419 722 716 255 
413 11 891 16 59 129 453 213 396 444 427 859 329 
414 11 143 147 100 130 65 292 841 138 254 466 352 
415 11 847 98 150 289 360 482 388 392 747 347 127 
416 11 715 697 566 800 728 733 700 24 157 74 104 
417 11 766 102 838 494 346 889 52 547 361 231 544 
418 11 128 786 587 371 767 427 294 374 826 213 608 
419 11 577 554 550 204 845 412 356 568 408 332 678 
420 11 878 664 240 238 160 547 488 479 90 141 889 
421 11 502 311 760 483 373 350 264 302 117 368 103 
422 11 3 527 402 117 103 518 457 137 729 793 277 
423 11 260 476 424 770 496 377 285 443 709 860 828 
424 11 496 423 770 260 476 377 860 285 533 684 443 
425 11 497 652 499 549 628 552 874 335 683 397 226 
426 11 61 701 357 179 796 740 42 565 111 560 196 
427 11 213 371 587 453 859 16 59 418 129 128 826 
428 11 631 395 202 232 875 78 581 542 286 198 411 
429 11 463 334 242 290 325 806 621 855 606 398 361 
430 10 235 594 790 391 455 614 883 727 768 165 
431 11 440 324 28 511 538 44 319 888 394 620 831 
432 11 214 501 752 871 644 664 266 588 746 784 675 
433 11 456 123 662 517 660 331 403 525 473 546 190 
434 11 122 230 107 651 19 185 451 478 482 320 134 
435 11 827 714 869 609 15 356 332 785 845 70 126 
436 11 227 462 689 381 613 468 32 359 55 663 12 
437 11 624 259 459 622 155 53 739 276 177 192 339 
438 11 813 541 639 101 452 281 38 301 637 655 632 
439 11 444 329 859 396 453 80 629 129 59 64 691 
440 11 431 400 843 28 511 44 324 759 888 538 831 
441 11 643 95 836 601 446 751 684 368 264 287 194 
442 11 536 295 622 817 595 83 459 816 53 259 624 
443 11 406 828 709 260 476 423 775 377 881 424 770 
444 11 396 329 439 453 859 129 59 891 16 629 80 
445 11 181 121 349 79 820 309 797 834 765 348 858 
446 11 643 264 441 368 95 836 601 17 865 287 698 
447 11 879 793 136 688 103 687 518 311 154 117 373 
448 11 316 692 695 557 221 872 742 794 156 71 376 
449 11 592 837 149 9 11 94 713 763 687 465 688 
450 11 110 488 240 567 21 251 90 738 362 171 160 
451 11 651 122 478 230 540 707 434 454 107 883 320 
452 11 281 101 438 813 38 135 541 596 639 632 191 
453 11 859 129 59 444 439 16 213 396 427 891 329 
454 10 707 478 519 883 685 702 455 890 451 230 
455 10 883 707 430 454 519 235 478 614 702 594 
456 11 433 123 662 403 517 331 525 660 473 190 546 
457 11 633 277 489 474 527 729 200 422 487 518 60 
458 11 542 581 317 669 109 155 808 355 764 875 591 
459 11 295 622 437 816 259 155 624 53 442 669 875 
460 11 219 367 198 850 411 395 286 158 211 322 67 
461 11 351 589 298 548 266 539 644 871 505 675 752 
462 11 436 227 613 689 468 663 381 504 12 47 681 
463 11 429 325 290 606 334 242 361 621 855 806 231 
464 11 703 832 170 512 723 342 56 358 854 537 41 
465 11 94 149 370 520 11 302 449 837 592 17 366 
466 11 812 834 532 309 349 100 805 181 841 445 757 
467 11 477 754 571 253 55 468 381 385 516 365 386 
468 11 381 55 467 754 477 436 462 385 571 227 253 
469 11 731 531 105 757 805 658 283 822 273 256 647 
470 11 654 288 882 471 840 323 152 480 866 761 657 
471 11 480 323 761 748 882 288 470 33 840 654 262 
472 11 346 544 231 856 69 124 494 186 621 855 283 
473 11 546 331 823 662 660 517 830 433 456 123 327 
474 11 489 60 633 10 829 277 457 487 521 348 120 
475 10 274 299 583 519 702 685 890 503 297 74 
476 11 377 260 423 770 424 496 709 881 828 285 749 
477 11 467 253 571 754 468 55 381 385 516 151 574 
478 11 454 707 230 451 122 107 685 890 434 702 883 
479 11 321 889 878 420 547 383 664 746 102 361 325 
480 11 471 323 761 748 882 288 470 36 33 574 654 
481 11 580 678 529 18 493 270 412 722 691 64 705 
482 11 747 98 19 185 847 107 415 150 434 360 885 
483 11 760 502 350 421 373 311 264 368 49 117 103 
484 11 168 175 717 169 774 86 693 203 822 607 30 
485 11 306 743 139 188 721 593 51 29 783 573 619 
486 11 280 870 390 792 848 265 876 8 803 578 500 
487 11 348 858 277 518 633 136 60 489 797 474 820 
488 11 240 160 238 90 21 450 110 420 664 878 141 
489 11 474 633 277 60 10 829 457 487 348 858 797 
490 11 310 328 111 585 677 300 272 771 89 625 93 
491 11 314 782 810 777 378 297 183 682 503 583 299 
492 11 535 218 106 199 867 340 25 278 671 97 173 
493 11 270 691 64 481 18 629 580 329 396 444 439 
494 11 102 231 346 417 361 242 621 766 325 472 838 
495 11 85 648 886 794 234 872 210 156 695 376 736 
496 11 424 423 770 260 860 476 377 285 533 684 443 
497 11 425 549 499 628 226 652 335 874 552 89 397 
498 11 565 42 740 93 357 701 853 893 196 61 426 
499 11 497 652 425 874 222 397 549 683 628 226 201 
500 11 636 725 265 738 251 792 809 362 627 171 567 
501 11 752 214 871 804 505 266 320 432 784 589 746 
502 11 760 483 421 311 373 350 264 117 368 103 49 
503 11 297 378 777 583 810 782 299 274 475 561 491 
504 11 663 681 613 47 12 462 436 548 539 298 151 
505 11 804 320 871 752 501 266 214 589 651 461 351 
506 11 91 375 558 305 312 225 522 307 267 584 801 
507 11 210 515 161 345 648 661 366 407 164 886 228 
508 11 559 744 236 576 148 864 39 887 570 750 248 
509 11 221 243 692 868 376 736 156 163 679 394 448 
510 11 818 383 582 784 321 746 113 2 360 150 388 
511 11 28 44 620 431 440 843 324 538 45 319 400 
512 11 854 342 703 464 723 832 130 170 292 138 680 
513 11 570 839 705 722 864 255 555 35 576 579 162 
514 11 88 780 410 623 791 269 821 43 670 667 699 
515 11 161 366 661 507 210 380 228 345 164 520 370 
516 11 696 849 571 574 385 365 754 253 467 36 477 
517 11 660 662 433 123 525 327 190 456 331 473 546 
518 11 487 136 793 277 3 858 422 633 348 103 527 
519 10 702 685 475 890 454 707 883 455 274 478 
520 11 370 366 465 661 380 161 94 515 207 11 149 
521 11 10 120 704 765 829 474 189 338 573 60 489 
522 11 267 312 22 755 282 584 206 616 34 506 735 
523 11 220 807 244 410 269 43 780 667 734 180 347 
524 11 769 798 172 76 75 787 14 809 792 8 657 
525 11 190 123 517 660 327 433 662 456 719 331 473 
526 11 591 193 372 607 233 598 808 764 774 693 563 
527 11 422 3 402 137 729 457 117 518 103 665 277 
528 11 862 552 92 683 874 397 425 652 789 773 335 
529 11 678 722 412 555 705 481 513 255 580 18 204 
530 11 706 261 762 543 340 642 199 278 140 268 118 
531 11 731 469 757 805 105 9 532 564 256 658 647 
532 11 805 154 812 466 401 757 834 531 309 713 9 
533 11 126 15 714 869 332 70 496 424 356 423 827 
534 11 263 409 315 590 634 184 638 336 115 54 718 
535 11 25 492 106 173 278 369 218 50 199 340 341 
536 11 442 595 295 622 83 53 659 817 259 624 604 
537 11 189 41 358 56 619 29 573 464 120 703 521 
538 11 319 324 394 888 431 831 868 28 44 511 440 
539 11 298 151 548 635 351 461 589 675 644 504 266 
540 11 768 614 451 790 651 430 548 707 455 883 122 
541 11 813 438 639 101 38 452 281 637 776 301 860 
542 11 581 458 109 669 875 155 355 317 816 631 78 
543 11 642 261 340 199 530 706 278 762 492 97 369 
544 11 346 186 472 844 838 52 205 766 649 124 209 
545 11 833 119 398 334 877 217 599 354 290 606 429 
546 11 473 331 823 662 660 517 830 433 456 123 327 
547 11 878 889 141 238 160 420 753 90 417 479 766 
548 11 298 351 461 539 589 266 504 644 151 635 681 
549 11 628 226 497 335 89 425 771 773 499 272 552 
550 11 554 419 204 577 845 412 568 408 716 356 332 
551 11 653 37 57 279 586 252 575 680 756 77 132 
552 11 528 425 773 862 335 628 497 683 874 652 789 
553 11 135 745 632 404 38 101 452 641 861 867 724 
554 11 550 419 577 845 204 568 412 356 332 408 716 
555 11 255 579 35 722 408 839 333 529 513 716 412 
556 11 200 318 729 137 187 13 457 384 610 338 393 
557 11 71 237 316 125 881 23 709 742 828 448 749 
558 11 305 225 307 375 506 73 673 708 578 91 8 
559 11 508 576 744 236 864 148 887 570 39 513 162 
560 11 61 426 111 699 179 490 701 585 310 711 357 
561 11 572 382 719 503 378 165 297 777 782 391 594 
562 11 116 720 712 153 63 51 343 146 672 721 783 
563 11 86 66 774 717 233 193 258 526 372 739 168 
564 11 256 763 647 9 82 592 731 531 449 283 656 
565 11 42 498 740 357 701 93 61 196 893 426 853 
566 11 715 697 416 728 733 104 800 289 392 24 157 
567 11 251 603 627 636 840 866 450 725 809 500 657 
568 11 845 332 716 408 126 204 550 356 554 333 869 
569 11 694 649 203 30 131 31 844 205 693 169 209 
570 11 705 513 864 722 839 576 559 508 255 555 35 
571 11 253 467 477 754 516 385 55 574 696 381 468 
572 11 561 382 719 503 165 378 782 777 297 190 327 
573 11 29 619 189 139 358 537 56 521 743 41 704 
574 11 36 696 516 849 571 253 748 467 477 385 754 
575 11 326 586 37 756 252 894 197 170 551 832 279 
576 11 559 508 864 148 744 236 570 887 248 705 513 
577 11 419 554 550 845 356 204 568 332 412 435 869 
578 11 708 73 8 673 307 225 848 876 305 558 206 
579 11 35 255 333 555 408 839 716 513 344 722 162 
580 11 481 678 529 18 412 493 270 722 691 64 555 
581 11 542 458 109 355 669 875 631 317 428 155 808 
582 11 113 818 360 2 510 388 150 229 668 304 72 
583 11 299 274 475 297 503 810 777 650 378 702 519 
584 11 34 322 312 735 522 286 91 282 411 267 616 
585 11 111 310 328 490 93 677 61 701 300 565 426 
586 11 37 575 326 756 252 551 279 680 170 653 894 
587 11 371 427 418 213 128 786 16 767 453 826 59 
588 11 166 675 644 690 110 262 432 635 33 450 151 
589 11 461 351 266 298 548 871 644 539 505 752 320 
590 11 263 534 634 115 638 184 409 315 336 674 133 
591 11 526 372 193 808 764 317 598 607 233 732 669 
592 11 449 837 149 9 713 11 94 687 763 465 688 
593 11 197 852 894 139 485 29 619 56 743 306 358 
594 11 391 235 430 790 165 727 382 614 455 883 719 
595 11 536 604 53 659 259 624 442 622 112 612 295 
596 11 191 865 281 49 301 452 655 873 368 438 813 
597 11 814 81 640 216 6 223 271 851 118 140 114 
598 11 732 607 802 591 526 31 693 87 808 30 291 
599 11 877 398 863 217 833 334 545 82 806 857 46 
600 11 615 602 379 778 249 293 835 679 736 7 243 
601 11 836 95 751 684 441 643 285 194 637 446 749 
602 11 600 615 835 293 379 249 778 670 7 241 791 
603 11 567 627 866 251 657 840 809 636 500 725 787 
604 11 612 595 195 112 224 364 659 53 132 259 624 
605 11 58 291 206 755 22 208 802 267 87 282 616 
606 11 290 463 334 429 325 545 40 361 119 398 242 
607 11 693 526 30 598 168 31 591 694 732 774 484 
608 11 853 893 786 294 5 196 330 418 498 740 42 
609 11 785 827 435 714 70 15 869 824 795 356 4 
610 11 13 389 146 783 384 153 338 704 712 200 51 
611 11 68 247 617 374 308 26 330 767 826 245 400 
612 11 195 604 224 112 646 239 132 364 595 659 399 
613 11 663 504 462 681 436 47 12 227 468 381 151 
614 11 768 790 540 430 235 727 594 391 455 883 451 
615 11 600 602 379 778 249 736 679 243 293 376 85 
616 11 282 755 22 522 355 267 34 58 735 312 584 
617 11 26 245 826 247 374 767 611 178 68 80 128 
618 11 303 819 93 328 677 310 625 300 585 490 272 
619 11 29 358 573 56 189 139 852 537 593 41 743 
620 11 44 511 28 431 45 778 324 440 538 319 379 
621 11 242 855 231 806 429 361 494 325 463 472 102 
622 11 259 624 53 295 459 442 437 536 595 816 155 
623 11 821 779 699 167 514 88 222 269 780 410 180 
624 11 259 53 622 437 459 595 295 192 536 442 604 
625 11 303 819 771 300 272 773 677 89 335 789 628 
626 11 46 857 656 207 11 217 763 380 863 877 599 
627 11 657 809 603 866 172 251 567 787 840 636 500 
628 11 549 335 226 89 497 425 771 773 552 272 499 
629 11 64 686 80 439 691 329 444 270 396 18 781 
630 11 734 737 145 72 880 668 304 807 220 229 523 
631 11 428 202 875 232 78 395 581 542 815 816 54 
632 11 404 38 135 745 641 101 861 553 776 639 452 
633 11 277 489 474 457 60 487 348 829 10 858 518 
634 11 534 590 315 409 263 115 184 638 336 176 54 
635 11 151 539 675 644 690 298 166 477 351 548 253 
636 11 725 500 251 738 265 362 809 567 792 627 603 
637 11 655 301 751 438 285 541 601 813 860 684 836 
638 11 184 263 590 674 115 534 133 336 67 409 718 
639 11 541 813 438 38 101 776 404 632 452 281 135 
640 11 271 216 597 268 814 140 6 81 118 762 369 
641 11 861 404 632 745 776 212 38 135 4 101 639 
642 11 543 261 340 199 530 706 278 762 492 97 275 
643 11 441 446 95 836 601 368 751 264 684 287 698 
644 11 675 266 589 351 461 588 166 539 298 635 871 
645 11 20 680 257 77 250 279 252 854 342 726 730 
646 11 239 224 195 612 112 132 57 604 659 653 364 
647 11 283 69 256 856 564 124 472 82 731 855 469 
648 11 210 886 495 507 407 345 742 872 85 234 164 
649 11 569 203 844 694 205 131 30 169 209 31 186 
650 11 700 800 299 274 74 583 475 297 416 810 697 
651 11 122 434 230 451 320 185 107 19 478 505 804 
652 11 874 397 683 425 499 201 497 405 862 552 174 
653 11 551 57 279 37 132 239 77 252 586 646 195 
654 11 470 288 152 882 866 787 840 471 657 323 480 
655 11 301 637 865 368 596 281 438 813 751 541 601 
656 11 46 626 857 763 11 863 82 207 599 217 877 
657 11 627 866 809 787 603 172 840 654 567 251 470 
658 11 105 822 175 469 273 124 283 731 169 484 186 
659 11 112 595 604 224 612 536 83 646 195 176 442 
660 11 517 662 327 525 433 123 190 473 546 331 823 
661 11 366 161 515 380 507 520 370 228 210 207 345 
662 11 517 433 660 331 123 456 473 546 525 823 327 
663 11 504 681 613 47 12 462 436 227 468 548 539 
664 11 420 240 488 878 238 432 160 746 321 479 90 
665 11 296 284 402 873 137 724 527 729 49 191 422 
666 11 711 759 843 400 179 796 440 308 426 28 511 
667 11 43 241 670 807 780 220 410 523 293 88 835 
668 11 304 229 72 388 880 113 2 347 145 734 582 
669 11 155 317 458 764 542 808 581 459 372 437 193 
670 11 835 241 791 43 667 293 780 514 88 410 602 
671 11 218 337 724 106 867 341 284 553 296 492 535 
672 11 343 63 851 720 6 562 116 712 153 814 142 
673 11 307 225 73 578 708 206 558 305 848 876 8 
674 11 133 67 850 184 718 638 336 263 534 590 232 
675 11 644 166 588 635 539 151 690 351 298 461 589 
676 11 14 375 159 75 305 558 801 506 91 225 307 
677 11 300 272 328 490 771 310 625 89 303 585 819 
678 11 529 412 722 555 481 580 204 705 255 18 513 
679 11 778 379 243 538 319 324 394 620 868 736 509 
680 11 252 279 756 645 20 342 854 37 77 512 586 
681 11 663 504 613 47 12 462 436 768 548 227 298 
682 11 183 314 92 491 99 174 862 201 810 683 528 
683 11 397 874 652 201 862 174 425 99 528 552 499 
684 11 751 601 836 95 285 194 441 749 643 770 23 
685 10 702 890 519 454 475 74 707 478 274 134 
686 11 781 248 629 887 178 80 18 64 39 148 576 
687 11 713 688 154 879 837 447 592 9 449 401 302 
688 11 687 713 879 447 154 302 837 449 592 94 149 
689 11 359 227 32 436 462 892 381 55 12 468 613 
690 11 262 166 33 588 748 635 675 761 253 151 477 
691 11 64 270 493 629 329 396 18 439 444 686 481 
692 11 163 221 448 509 162 775 243 344 376 156 316 
693 11 607 30 168 694 31 569 203 484 598 526 169 
694 11 569 30 203 649 31 693 131 844 168 169 607 
695 11 872 794 742 85 156 886 376 448 407 736 495 
696 11 849 516 574 36 365 385 571 754 386 253 467 
697 11 715 416 566 733 800 728 157 700 392 289 885 
698 11 287 387 825 182 228 643 95 164 441 23 17 
699 11 779 167 623 560 514 222 821 88 226 490 89 
700 11 800 74 650 416 697 715 157 733 890 274 299 
701 11 357 61 426 42 740 565 498 796 179 111 585 
702 10 685 890 519 475 454 74 274 707 478 299 
703 11 464 832 512 170 342 854 723 56 358 41 537 
704 11 338 384 521 389 13 10 474 573 610 489 120 
705 11 570 513 722 839 864 576 555 255 529 18 35 
706 11 530 762 261 340 278 199 140 543 268 642 369 
707 10 454 883 478 455 519 451 685 702 890 230 
708 11 73 578 8 307 225 673 848 305 558 876 206 
709 11 828 881 125 476 377 23 749 260 316 443 194 
710 11 399 364 192 741 177 250 726 276 339 108 257 
711 11 666 759 843 179 400 796 440 426 45 308 28 
712 11 153 562 116 146 720 51 63 783 610 343 721 
713 11 687 688 154 9 837 592 449 879 532 401 447 
714 11 15 869 827 435 356 126 332 533 609 70 845 
715 11 566 697 416 733 728 800 104 392 157 289 700 
716 11 408 333 579 35 204 255 568 555 344 406 412 
717 11 86 774 563 484 168 66 822 175 233 273 526 
718 11 67 336 133 674 850 232 184 54 638 202 263 
719 11 165 382 327 190 561 572 391 594 525 660 235 
720 11 562 116 712 63 153 343 672 51 146 721 783 
721 11 51 306 188 485 146 743 783 116 153 562 712 
722 11 705 513 570 529 555 839 678 255 35 579 864 
723 11 138 841 703 464 41 512 537 121 854 445 342 
724 11 284 296 337 671 665 218 341 873 553 106 191 
725 11 636 500 738 265 251 362 171 792 567 809 627 
726 11 257 108 741 730 250 352 710 20 399 645 77 
727 11 790 594 391 235 430 614 165 768 47 12 540 
728 11 24 566 353 416 715 697 104 313 800 405 733 
729 11 137 200 318 556 527 457 402 422 665 3 187 
730 11 108 257 726 352 741 250 292 645 20 130 254 
731 11 531 469 757 805 105 9 256 658 532 564 283 
732 11 802 598 291 87 208 58 31 605 607 591 808 
733 11 157 697 392 885 289 715 566 416 134 800 74 
734 11 630 72 145 304 668 880 220 737 807 347 244 
735 11 34 584 322 286 411 312 616 198 282 522 395 
736 11 376 156 243 794 85 221 695 509 615 872 495 
737 11 145 630 27 880 734 72 842 40 668 2 304 
738 11 362 725 171 265 636 500 21 251 90 792 567 
739 11 258 339 276 177 192 233 66 437 193 563 372 
740 11 42 565 357 498 701 196 61 426 893 5 796 
741 11 250 726 257 108 730 399 710 77 20 192 364 
742 11 407 872 886 695 164 345 210 648 794 237 557 
743 11 306 485 139 783 721 573 188 51 29 146 619 
744 11 236 148 508 559 39 576 750 887 62 864 868 
745 11 632 404 135 553 641 861 38 101 776 212 452 
746 11 784 383 321 510 664 501 214 432 479 818 420 
747 11 482 185 150 847 19 98 360 818 415 434 107 
748 11 761 323 33 480 471 262 690 574 36 253 840 
749 11 194 23 881 125 377 684 709 71 476 95 237 
750 11 831 888 62 39 236 394 744 868 148 319 324 
751 11 684 601 836 95 285 441 637 643 194 655 860 
752 11 501 871 214 804 505 266 320 432 589 461 644 
753 11 141 811 246 90 547 238 160 766 52 171 21 
754 11 467 55 385 571 381 477 468 253 365 516 386 
755 11 22 267 206 282 522 605 58 616 312 291 673 
756 11 252 680 170 586 37 342 832 279 575 326 854 
757 11 805 531 469 731 532 105 466 100 812 658 273 
758 11 234 380 207 507 661 515 161 210 648 366 363 
759 11 666 711 843 400 440 179 796 28 511 44 431 
760 11 483 502 421 350 373 311 264 368 49 117 865 
761 11 748 323 471 33 480 262 840 690 470 882 288 
762 11 706 268 530 278 140 369 271 340 199 261 640 
763 11 656 564 11 82 46 626 857 863 449 592 256 
764 11 317 808 372 193 591 669 155 526 458 233 598 
765 11 120 829 10 79 797 60 121 521 820 41 474 
766 11 838 417 52 346 102 494 889 753 544 209 547 
767 11 374 826 247 128 617 245 26 786 418 294 611 
768 11 614 540 790 430 727 681 451 235 504 594 548 
769 11 798 524 172 8 792 14 75 76 787 809 708 
770 11 377 260 423 476 424 496 285 860 684 194 749 
771 11 89 272 300 625 335 677 628 226 549 773 303 
772 11 788 144 84 275 97 799 4 212 867 861 824 
773 11 335 552 628 789 625 771 89 549 425 819 272 
774 11 86 717 563 484 168 66 526 233 607 693 193 
775 11 344 406 162 333 163 443 692 828 35 579 716 
776 11 404 641 861 639 38 632 541 795 212 101 813 
777 11 378 810 782 297 503 491 583 299 274 314 475 
778 11 379 679 600 615 620 602 44 511 7 28 243 
779 11 167 699 623 222 226 821 549 89 497 499 628 
780 11 410 88 43 269 514 667 523 220 807 670 821 
781 11 248 887 686 39 178 148 62 576 236 744 508 
782 11 378 777 810 491 297 503 314 583 299 274 183 
783 11 146 389 610 51 743 721 13 306 153 384 712 
784 11 746 383 321 510 501 818 214 752 432 664 582 
785 11 609 824 827 70 795 4 435 714 212 15 84 
786 11 294 128 418 608 5 767 330 374 893 247 826 
787 11 657 172 76 809 627 152 866 654 524 470 603 
788 11 772 144 84 275 97 799 4 212 867 861 824 
789 11 773 552 819 335 625 528 303 771 628 862 89 
790 11 430 594 235 727 391 614 768 165 455 883 540 
791 11 835 670 7 514 88 43 241 780 602 45 293 
792 11 500 870 265 280 486 725 636 769 798 172 738 
793 11 136 447 518 103 879 487 3 117 858 422 348 
794 11 85 872 156 695 376 736 495 886 742 243 648 
795 11 824 70 212 4 776 861 641 785 609 404 799 
796 11 179 426 357 666 711 308 61 701 196 759 740 
797 11 820 79 348 858 121 60 829 445 765 181 349 
798 11 769 524 172 8 792 14 75 708 76 787 809 
799 11 144 84 4 212 772 788 824 861 641 745 795 
800 11 700 416 697 715 650 74 566 733 728 157 313 
801 11 159 211 91 158 375 506 676 322 312 584 558 
802 11 291 732 87 208 58 605 598 755 31 206 803 
803 11 131 87 31 208 390 876 569 209 802 30 486 
804 11 505 320 752 871 501 214 266 651 185 589 122 
805 11 757 531 532 731 469 812 466 834 100 9 105 
806 11 855 863 82 621 429 599 242 398 877 334 463 
807 11 220 523 244 667 43 410 734 780 269 630 241 
808 11 317 764 591 372 193 669 458 526 155 598 109 
809 11 627 657 172 603 866 787 500 636 251 725 567 
810 11 777 378 297 782 491 503 583 299 314 274 650 
811 11 246 753 141 390 171 90 52 362 21 209 160 
812 11 466 834 309 532 349 181 805 401 100 445 757 
813 11 438 541 639 101 452 281 38 301 637 655 632 
814 11 81 597 6 851 640 216 271 672 223 268 140 
815 11 884 54 202 78 232 817 875 816 409 315 336 
816 11 875 78 295 459 202 442 542 815 622 884 155 
817 11 83 884 442 815 54 176 536 295 78 816 315 
818 11 582 360 510 150 113 388 747 2 229 383 304 
819 11 303 625 618 300 789 773 677 771 272 335 328 
820 11 797 79 121 445 348 181 858 829 60 349 765 
821 11 269 623 180 88 514 410 780 779 353 222 699 
822 11 273 658 175 105 717 484 86 774 65 469 169 
823 11 546 473 830 331 660 662 517 892 327 433 727 
824 11 4 795 212 70 785 799 861 641 776 609 84 
825 11 182 387 698 287 164 228 345 237 71 407 23 
826 11 767 374 617 245 247 26 128 611 418 371 80 
827 11 435 714 609 869 15 356 785 70 332 126 533 
828 11 709 881 125 443 476 316 377 406 557 23 260 
829 11 60 10 765 120 474 797 489 820 79 348 521 
830 11 892 823 546 473 12 689 47 359 331 227 32 
831 11 888 750 394 319 324 538 431 62 440 868 39 
832 11 170 464 703 342 756 56 854 512 852 358 326 
833 11 217 545 877 398 119 354 599 334 48 857 842 
834 11 812 466 309 349 181 445 532 401 841 121 79 
835 11 670 791 602 293 241 7 43 667 600 514 780 
836 11 95 601 441 643 751 684 446 194 285 749 637 
837 11 592 449 149 9 713 94 11 687 465 688 763 
838 11 766 52 417 346 544 209 102 494 205 753 889 
839 11 513 255 864 570 35 579 705 722 555 162 333 
840 11 866 603 657 323 470 627 567 654 471 33 761 
841 11 138 723 414 143 834 349 466 100 445 181 121 
842 11 27 215 48 119 354 363 737 545 833 145 630 
843 11 759 400 440 666 711 28 511 44 431 45 620 
844 11 649 203 186 169 205 569 544 694 209 30 52 
845 11 356 332 568 554 550 577 869 126 15 419 714 
846 11 96 393 142 50 187 173 25 63 341 343 318 
847 11 98 415 482 289 392 885 747 19 150 185 360 
848 11 876 8 578 708 73 673 307 225 486 280 870 
849 11 696 516 574 36 365 385 571 386 754 253 467 
850 11 133 67 674 718 460 219 336 198 395 184 232 
851 11 6 814 672 81 216 343 597 640 63 142 271 
852 11 56 619 29 197 358 593 894 139 832 170 189 
853 11 893 608 498 565 42 740 5 196 93 294 357 
854 11 342 512 703 680 464 832 170 756 645 130 252 
855 11 621 242 806 231 429 463 82 361 863 325 494 
856 11 69 283 647 124 472 256 186 855 231 544 621 
857 11 46 626 656 217 877 863 599 82 207 398 763 
858 11 348 487 797 820 136 60 277 79 518 633 829 
859 11 453 439 444 129 213 329 396 59 80 427 16 
860 11 285 496 424 770 637 541 751 423 260 639 684 
861 11 641 404 212 776 632 745 38 4 135 799 795 
862 11 528 92 683 552 397 874 201 652 425 99 174 
863 11 82 806 599 877 398 857 46 656 763 855 217 
864 11 576 559 513 570 839 508 705 162 744 236 148 
865 11 368 301 596 655 191 49 281 637 350 446 483 
866 11 657 627 840 603 809 787 567 654 470 251 172 
867 11 218 671 97 492 553 745 337 144 106 772 135 
868 11 394 319 538 888 324 750 831 509 236 744 679 
869 11 714 15 356 827 332 435 126 533 845 609 70 
870 11 280 486 792 265 390 848 500 8 725 738 876 
871 11 752 266 505 501 214 804 589 320 461 351 644 
872 11 695 794 742 85 886 156 407 495 376 648 736 
873 11 191 49 665 296 284 596 402 724 350 281 865 
874 11 397 652 683 201 425 499 862 174 497 405 552 
875 11 78 816 202 631 542 815 428 581 232 295 54 
876 11 848 578 673 73 708 208 8 307 206 225 486 
877 11 398 599 217 833 545 334 863 857 46 82 806 
878 11 420 547 238 160 889 664 141 240 90 479 488 
879 11 447 688 793 687 154 136 713 103 401 311 302 
880 11 72 145 668 2 304 229 630 734 737 113 40 
881 11 125 709 828 23 749 194 71 377 557 476 237 
882 11 288 470 471 480 654 323 761 152 748 840 36 
883 10 455 707 454 519 430 235 478 702 685 614 
884 11 815 54 817 202 78 232 409 315 875 816 336 
885 11 392 289 157 733 98 134 847 697 715 566 107 
886 11 648 407 210 742 872 495 85 695 345 507 794 
887 11 248 781 148 39 576 236 744 686 62 508 559 
888 11 319 394 831 324 538 431 750 868 440 28 511 
889 11 547 102 417 878 479 766 494 361 141 420 838 
890 10 685 702 519 74 454 475 134 478 707 274 
891 11 59 16 129 413 453 396 444 213 859 329 439 
892 11 830 689 359 12 227 32 823 47 436 462 546 
893 11 5 196 853 608 740 294 42 498 565 330 357 
894 11 197 852 326 593 575 170 832 56 586 619 29 
DEPOT_SECTION
   1
   -1
EOF
