NAME :  X-n819-kX-w327-c7.cctp
COMMENT : 	Adapted by Maziero, Usberti and Cavellucci from the Uchoa, Pecin, Pessoa, Poggi, Subramanian, and Vidal (2013)
TYPE :  CCTP
DIMENSION :    806
EDGE_WEIGHT_TYPE : 	EUC_2D	
CAPACITY : 	358
VERTICES_WITHIN_COVERAGE :  7
VERTICES_WITH_DEMAND : 	327
NODE_COORD_SECTION
1 500 500
2 174 325
3 49 34
4 543 815
5 42 920
6 545 80
7 681 950
8 664 944
9 61 68
10 609 259
11 116 500
12 482 911
13 708 930
14 93 57
15 642 940
16 487 619
17 511 63
18 330 52
19 529 831
20 586 862
21 503 839
22 713 994
23 28 939
24 9 111
25 203 347
26 31 115
27 414 352
28 521 982
29 121 304
30 600 26
31 506 772
32 624 39
33 205 328
34 218 104
35 22 959
36 657 188
37 72 978
38 434 815
39 487 107
40 22 987
41 599 870
42 201 402
43 726 961
44 51 7
45 35 922
46 182 331
47 577 233
48 672 906
49 485 852
50 543 849
51 574 991
52 120 166
53 592 877
54 422 762
55 26 695
56 52 953
57 673 848
58 66 393
59 165 162
60 824 928
61 462 135
62 520 759
63 25 807
64 483 808
65 600 549
66 196 76
67 420 719
68 348 480
69 531 837
70 157 347
71 273 259
72 526 18
73 373 29
74 39 211
75 398 49
76 451 211
77 693 949
78 518 106
79 451 981
80 629 687
81 731 830
82 599 866
83 202 772
84 217 285
85 102 404
86 481 771
87 601 864
88 123 963
89 467 217
90 62 8
91 532 256
92 57 914
93 640 193
94 502 823
95 197 59
96 4 824
97 110 938
98 439 838
99 543 808
100 51 34
101 94 672
102 55 46
103 420 46
104 666 997
105 186 414
106 398 883
107 103 942
108 482 816
109 62 137
110 11 840
111 37 54
112 537 858
113 745 914
114 183 279
115 703 953
116 762 726
117 485 54
118 64 920
119 74 352
120 560 178
121 283 179
122 496 834
123 660 886
124 589 160
125 650 963
126 565 36
127 241 338
128 446 971
129 638 817
130 193 372
131 752 955
132 511 904
133 411 5
134 780 925
135 536 781
136 53 168
137 495 777
138 42 892
139 488 80
140 793 984
141 201 317
142 531 985
143 181 240
144 530 802
145 576 942
146 654 903
147 634 953
148 612 71
149 334 119
150 155 811
151 35 956
152 593 840
153 588 819
154 771 968
155 273 325
156 561 46
157 113 88
158 23 813
159 49 38
160 162 152
161 611 778
162 297 479
163 627 78
164 559 818
165 79 48
166 711 905
167 612 162
168 509 839
169 153 45
170 301 160
171 693 913
172 527 213
173 144 73
174 347 325
175 95 965
176 29 145
177 268 374
178 674 900
179 418 225
180 532 930
181 501 68
182 24 888
183 310 365
184 572 153
185 546 820
186 683 948
187 561 150
188 571 205
189 513 166
190 523 805
191 193 375
192 553 9
193 131 86
194 154 914
195 528 786
196 104 10
197 672 129
198 908 170
199 654 893
200 514 130
201 547 783
202 33 856
203 563 814
204 117 19
205 459 856
206 467 859
207 494 844
208 106 523
209 89 268
210 726 969
211 155 240
212 137 860
213 497 414
214 294 802
215 85 39
216 649 864
217 168 885
218 658 764
219 52 978
220 521 99
221 529 779
222 317 909
223 32 72
224 704 952
225 197 150
226 307 273
227 602 256
228 680 775
229 169 378
230 111 139
231 578 87
232 258 317
233 657 898
234 438 983
235 179 381
236 510 735
237 586 48
238 663 907
239 189 269
240 210 315
241 82 925
242 503 313
243 541 34
244 369 228
245 44 321
246 415 220
247 83 294
248 297 381
249 646 844
250 241 942
251 25 39
252 67 86
253 771 900
254 500 94
255 69 874
256 176 285
257 140 267
258 267 333
259 561 920
260 490 62
261 48 858
262 521 801
263 181 316
264 179 85
265 17 56
266 142 901
267 95 82
268 411 740
269 533 794
270 474 811
271 325 412
272 626 805
273 480 939
274 158 4
275 777 982
276 7 927
277 611 848
278 115 40
279 185 356
280 585 173
281 300 382
282 21 63
283 707 856
284 45 961
285 165 62
286 8 875
287 435 96
288 72 127
289 68 71
290 590 866
291 607 175
292 732 873
293 678 960
294 105 300
295 488 850
296 524 833
297 179 767
298 688 857
299 559 798
300 556 998
301 626 855
302 474 784
303 599 803
304 639 513
305 348 284
306 535 534
307 552 830
308 565 774
309 193 52
310 556 666
311 509 765
312 41 119
313 118 246
314 170 171
315 79 975
316 131 959
317 139 193
318 630 881
319 14 853
320 553 62
321 65 0
322 822 866
323 342 897
324 669 895
325 204 332
326 24 307
327 163 344
328 493 780
329 687 988
330 723 938
331 133 299
332 838 996
333 747 957
334 685 953
335 124 990
336 565 47
337 34 141
338 69 911
339 77 850
340 173 354
341 237 260
342 689 665
343 624 724
344 564 607
345 221 496
346 585 761
347 72 233
348 238 451
349 451 753
350 10 27
351 539 773
352 240 717
353 540 26
354 48 70
355 58 59
356 78 51
357 76 933
358 429 830
359 304 71
360 702 1000
361 695 79
362 142 327
363 90 319
364 572 857
365 552 866
366 581 134
367 565 898
368 473 856
369 183 84
370 625 834
371 529 922
372 518 746
373 694 842
374 715 979
375 690 911
376 29 16
377 671 971
378 157 358
379 171 949
380 560 81
381 534 40
382 137 848
383 50 965
384 137 291
385 62 100
386 315 146
387 712 752
388 499 688
389 12 29
390 477 720
391 481 82
392 193 265
393 72 4
394 12 890
395 588 910
396 675 981
397 95 872
398 61 941
399 0 670
400 582 798
401 36 58
402 257 667
403 525 819
404 579 919
405 653 935
406 762 807
407 241 306
408 129 408
409 941 800
410 603 95
411 421 948
412 561 653
413 596 837
414 199 342
415 229 317
416 198 350
417 727 827
418 534 892
419 196 105
420 169 341
421 618 853
422 65 415
423 687 953
424 597 972
425 158 345
426 168 332
427 569 28
428 499 805
429 428 894
430 121 992
431 539 750
432 688 899
433 172 491
434 369 479
435 49 891
436 256 770
437 415 937
438 87 86
439 505 783
440 208 462
441 556 917
442 507 272
443 473 946
444 129 174
445 44 120
446 484 88
447 275 224
448 386 351
449 761 965
450 418 252
451 33 233
452 270 216
453 583 939
454 454 75
455 90 999
456 572 51
457 58 291
458 624 849
459 138 271
460 580 870
461 487 213
462 174 502
463 523 792
464 196 806
465 752 26
466 489 858
467 563 88
468 749 944
469 568 369
470 612 959
471 580 142
472 601 848
473 587 132
474 425 906
475 165 918
476 56 867
477 645 972
478 200 307
479 63 913
480 518 183
481 592 757
482 573 812
483 703 818
484 727 924
485 465 800
486 11 954
487 178 743
488 24 106
489 319 914
490 144 326
491 545 810
492 29 49
493 523 798
494 279 346
495 381 237
496 45 58
497 287 764
498 376 828
499 61 589
500 24 440
501 4 968
502 519 601
503 159 419
504 6 15
505 689 943
506 589 806
507 488 64
508 193 365
509 660 952
510 126 365
511 135 1000
512 846 808
513 652 954
514 571 107
515 576 158
516 42 159
517 176 182
518 266 261
519 527 817
520 564 87
521 497 765
522 483 865
523 65 894
524 110 896
525 50 230
526 791 119
527 689 955
528 638 891
529 534 35
530 295 209
531 540 822
532 517 26
533 538 79
534 599 3
535 593 782
536 45 0
537 703 930
538 707 633
539 490 107
540 113 17
541 163 88
542 583 628
543 474 789
544 130 250
545 500 169
546 68 825
547 9 943
548 17 896
549 565 35
550 413 80
551 743 800
552 494 869
553 183 312
554 127 898
555 894 879
556 559 953
557 675 777
558 628 127
559 112 118
560 66 309
561 1 892
562 566 275
563 35 927
564 152 359
565 566 201
566 237 261
567 664 667
568 467 937
569 144 327
570 62 273
571 567 59
572 92 296
573 4 319
574 797 701
575 63 83
576 99 246
577 340 435
578 431 52
579 234 263
580 161 343
581 556 90
582 246 413
583 18 884
584 422 731
585 24 65
586 626 53
587 509 746
588 569 898
589 743 851
590 416 906
591 520 46
592 660 760
593 63 807
594 221 463
595 732 909
596 704 940
597 671 909
598 499 159
599 160 967
600 361 128
601 649 861
602 116 104
603 667 764
604 161 352
605 637 772
606 8 93
607 471 759
608 456 852
609 728 780
610 541 805
611 713 907
612 515 873
613 11 275
614 81 862
615 705 942
616 118 327
617 254 330
618 402 539
619 783 822
620 487 201
621 14 19
622 581 876
623 39 795
624 628 739
625 604 984
626 781 525
627 39 852
628 706 947
629 229 339
630 533 973
631 738 836
632 0 139
633 130 325
634 26 364
635 853 961
636 151 260
637 412 937
638 273 392
639 695 995
640 544 786
641 96 23
642 1 405
643 142 302
644 484 875
645 775 773
646 499 18
647 39 52
648 698 178
649 564 826
650 37 878
651 576 208
652 550 819
653 461 796
654 546 805
655 65 886
656 93 132
657 48 0
658 648 844
659 35 957
660 70 204
661 91 1000
662 741 913
663 659 627
664 529 786
665 197 355
666 643 157
667 151 1
668 297 284
669 7 211
670 635 908
671 533 136
672 548 625
673 556 714
674 715 919
675 102 917
676 491 40
677 452 801
678 165 926
679 659 731
680 460 779
681 694 940
682 823 947
683 462 123
684 53 251
685 481 179
686 506 826
687 531 827
688 258 186
689 537 51
690 655 762
691 565 141
692 188 88
693 655 42
694 124 310
695 573 805
696 44 925
697 381 213
698 65 691
699 82 929
700 540 156
701 219 340
702 638 784
703 742 699
704 611 651
705 522 748
706 236 388
707 605 842
708 28 75
709 671 852
710 555 130
711 637 21
712 255 311
713 486 81
714 577 814
715 630 923
716 147 226
717 560 55
718 168 823
719 145 242
720 547 796
721 506 74
722 581 763
723 840 991
724 553 816
725 114 0
726 902 947
727 680 942
728 94 13
729 183 310
730 16 909
731 745 841
732 601 802
733 307 361
734 174 323
735 480 80
736 792 924
737 144 43
738 575 751
739 642 135
740 568 107
741 251 48
742 509 90
743 574 870
744 750 919
745 86 444
746 780 938
747 564 172
748 599 791
749 594 200
750 102 646
751 278 137
752 543 833
753 316 283
754 40 828
755 676 214
756 119 4
757 38 79
758 236 811
759 487 724
760 546 814
761 607 95
762 300 72
763 63 228
764 46 24
765 145 435
766 733 741
767 692 956
768 748 914
769 107 344
770 565 104
771 570 963
772 207 354
773 111 873
774 794 926
775 542 797
776 692 925
777 601 845
778 726 947
779 36 904
780 0 507
781 577 986
782 529 574
783 545 845
784 525 912
785 795 692
786 663 944
787 82 952
788 521 709
789 589 192
790 506 93
791 126 419
792 31 881
793 525 897
794 518 786
795 525 786
796 649 937
797 579 74
798 794 915
799 402 111
800 433 838
801 261 258
802 248 400
803 51 910
804 96 62
805 635 837
806 666 855
DEMAND_SECTION
2 89
3 59
4 53
5 85
6 95
7 66
8 70
9 84
10 68
11 96
12 87
13 77
14 65
15 88
16 75
17 84
18 92
19 75
20 77
21 55
22 64
23 60
24 71
25 80
26 79
27 61
28 100
29 62
30 92
31 60
32 55
33 52
34 65
35 73
36 81
37 97
38 75
39 76
40 87
41 99
42 78
43 50
44 70
45 89
46 98
47 84
48 59
49 63
50 62
51 88
52 61
53 77
54 70
55 76
56 77
57 59
58 53
59 54
60 74
61 81
62 59
63 79
64 78
65 95
66 51
67 69
68 73
69 78
70 59
71 86
72 63
73 97
74 51
75 77
76 99
77 76
78 68
79 77
80 65
81 87
82 62
83 76
84 86
85 92
86 62
87 96
88 80
89 56
90 86
91 86
92 95
93 73
94 74
95 73
96 87
97 92
98 88
99 81
100 81
101 74
102 62
103 55
104 76
105 98
106 78
107 59
108 74
109 83
110 92
111 75
112 71
113 75
114 81
115 70
116 52
117 94
118 54
119 78
120 58
121 93
122 64
123 89
124 63
125 82
126 98
127 51
128 58
129 63
130 61
131 91
132 56
133 81
134 97
135 91
136 51
137 73
138 95
139 79
140 100
141 55
142 81
143 85
144 52
145 99
146 57
147 54
148 62
149 78
150 60
151 81
152 89
153 87
154 80
155 96
156 83
157 53
158 95
159 70
160 69
161 81
162 62
163 83
164 50
165 93
166 77
167 50
168 67
169 92
170 94
171 69
172 76
173 88
174 52
175 64
176 87
177 77
178 80
179 61
180 66
181 91
182 94
183 62
184 96
185 60
186 70
187 90
188 53
189 84
190 80
191 88
192 96
193 63
194 79
195 88
196 65
197 54
198 68
199 93
200 99
201 75
202 61
203 63
204 53
205 77
206 68
207 72
208 100
209 81
210 89
211 73
212 67
213 77
214 70
215 80
216 58
217 84
218 75
219 54
220 77
221 67
222 67
223 62
224 64
225 82
226 51
227 90
228 52
229 63
230 83
231 75
232 72
233 94
234 88
235 93
236 86
237 66
238 93
239 65
240 68
241 81
242 72
243 74
244 65
245 82
246 52
247 91
248 50
249 76
250 84
251 70
252 54
253 100
254 70
255 50
256 52
257 56
258 68
259 72
260 63
261 64
262 86
263 54
264 65
265 66
266 61
267 92
268 72
269 52
270 91
271 51
272 69
273 97
274 69
275 95
276 63
277 51
278 54
279 53
280 51
281 59
282 84
283 73
284 89
285 76
286 53
287 62
288 85
289 56
290 67
291 66
292 99
293 50
294 92
295 90
296 54
297 64
298 73
299 93
300 66
301 81
302 75
303 90
304 78
305 100
306 69
307 70
308 62
309 80
310 92
311 76
312 86
313 52
314 65
315 93
316 81
317 92
318 81
319 53
320 90
321 54
322 90
323 55
324 61
325 70
326 63
327 89
328 66
COVERAGE_SECTION
2 7 734 426 46 263 553 420 729 
3 7 100 159 764 102 647 111 496 
4 7 760 491 185 99 531 652 610 
5 7 696 45 563 803 92 779 118 
6 7 533 380 581 320 467 520 717 
7 7 186 334 423 727 527 293 505 
8 7 786 509 405 513 727 796 7 
9 7 289 355 354 575 252 496 102 
10 7 227 47 562 651 749 188 789 
11 7 208 433 462 745 765 791 503 
12 7 273 132 568 443 644 784 552 
13 7 537 596 615 674 330 628 681 
14 7 804 356 165 215 267 278 289 
15 7 796 405 147 513 715 786 8 
16 7 502 672 782 388 344 412 310 
17 7 181 721 591 260 507 742 117 
18 7 359 762 73 149 75 741 600 
19 7 687 296 69 403 519 531 752 
20 7 290 460 82 743 41 87 364 
21 7 168 122 207 686 94 295 49 
22 7 360 374 639 329 210 43 396 
23 7 563 45 151 547 659 35 696 
24 7 488 606 26 632 312 445 176 
25 7 414 416 772 665 325 701 33 
26 7 312 488 445 24 337 176 606 
27 7 448 174 305 242 450 213 183 
28 7 142 630 300 556 180 771 51 
29 7 694 331 294 384 643 616 633 
30 7 534 237 32 427 126 549 586 
31 7 311 439 521 137 328 794 62 
32 7 586 711 30 693 148 163 237 
33 7 325 141 240 414 701 25 478 
34 7 419 692 66 369 264 95 225 
35 7 486 151 659 501 23 547 284 
36 7 93 755 666 648 167 291 739 
37 7 315 219 175 383 455 787 661 
38 7 358 677 800 98 653 485 270 
39 7 539 254 446 790 391 713 139 
40 7 501 35 219 659 151 284 486 
41 7 82 87 53 290 20 460 622 
42 7 105 191 235 130 508 706 229 
43 7 210 778 333 374 330 115 224 
44 7 657 536 90 321 764 393 376 
45 7 563 5 696 23 779 803 92 
46 7 2 734 426 263 420 553 414 
47 7 651 188 227 565 749 10 562 
48 7 597 178 238 324 233 432 146 
49 7 295 466 207 368 522 206 552 
50 7 783 112 752 69 365 307 19 
51 7 781 300 771 424 625 556 142 
52 7 444 230 317 656 160 59 559 
53 7 41 290 622 82 460 20 87 
54 7 268 349 584 680 67 607 677 
55 7 399 698 101 750 623 63 499 
56 7 284 383 398 151 659 219 23 
57 7 709 806 298 373 658 249 601 
58 7 422 85 119 634 745 500 769 
59 7 160 314 517 225 444 317 52 
60 7 682 774 736 798 134 635 746 
61 7 683 39 539 598 287 685 545 
62 7 705 311 372 587 31 431 221 
63 7 158 623 754 96 110 593 319 
64 7 108 270 428 485 543 94 653 
65 7 304 306 344 782 542 672 502 
66 7 692 369 95 264 309 419 285 
67 7 584 268 54 349 390 607 759 
68 7 434 577 162 271 618 281 248 
69 7 19 296 687 752 783 50 531 
70 7 425 580 604 327 378 420 564 
71 7 518 801 447 668 341 566 226 
72 7 532 353 529 243 381 646 192 
73 7 75 133 18 103 578 550 359 
74 7 525 451 763 660 669 347 684 
75 7 103 73 578 550 133 287 454 
76 7 89 179 461 246 620 685 450 
77 7 423 505 527 767 334 681 186 
78 7 220 742 790 254 200 539 39 
79 6 128 234 443 411 568 273 
80 7 343 567 704 624 679 342 663 
81 7 417 631 731 589 483 551 283 
82 7 87 41 290 53 20 472 460 
83 7 297 464 487 758 436 150 718 
84 7 478 579 240 392 566 239 341 
85 7 408 791 58 422 745 510 765 
86 7 137 302 328 607 521 543 680 
87 7 82 41 290 20 53 472 277 
88 7 316 335 97 175 107 430 599 
89 7 76 461 620 685 179 246 545 
90 7 321 44 393 657 536 764 100 
91 7 442 562 172 47 461 188 242 
92 7 479 803 118 338 5 696 523 
93 7 36 666 291 167 755 749 789 
94 7 686 122 21 168 428 108 207 
95 7 309 66 369 692 264 285 541 
96 7 110 158 63 319 754 202 623 
97 7 107 675 88 699 316 175 241 
98 7 800 358 608 38 205 206 368 
99 7 491 610 654 4 760 775 185 
100 7 3 159 764 102 647 111 496 
101 7 750 698 55 499 399 487 297 
102 7 159 3 100 355 496 647 111 
103 7 578 75 550 133 454 73 287 
104 7 396 329 377 639 477 360 125 
105 7 42 503 235 191 229 130 765 
106 6 590 429 474 637 437 800 
107 7 97 787 175 675 699 241 357 
108 7 64 270 428 94 122 485 686 
109 7 288 445 312 337 516 656 136 
110 7 319 96 202 158 627 754 286 
111 7 647 401 492 496 585 282 223 
112 7 50 783 365 69 752 612 19 
113 7 768 662 744 595 484 253 468 
114 7 256 239 392 729 478 553 84 
115 7 224 628 77 615 767 596 527 
116 7 766 703 574 785 645 387 609 
117 7 260 507 676 181 139 735 713 
118 7 479 92 338 803 357 241 699 
119 7 769 363 58 245 560 634 616 
120 7 747 565 280 515 184 187 188 
121 7 170 688 530 452 751 386 447 
122 7 21 207 94 686 168 295 49 
123 7 199 233 324 146 178 238 48 
124 7 515 280 184 471 167 291 366 
125 7 513 477 509 147 377 786 8 
126 7 549 427 156 336 456 717 571 
127 7 629 617 701 415 258 232 712 
128 6 79 234 411 443 568 437 
129 7 272 805 370 249 658 702 458 
130 7 191 508 235 665 279 416 772 
131 7 333 468 449 154 43 778 210 
132 7 784 793 371 418 12 612 180 
133 7 103 73 75 578 550 454 676 
134 7 736 746 774 798 253 744 768 
135 7 221 195 351 640 664 201 795 
136 7 516 109 176 337 660 74 288 
137 7 328 31 439 521 86 311 302 
138 7 435 779 650 792 182 803 523 
139 7 713 391 735 446 507 181 254 
140 7 275 154 449 332 682 723 746 
141 7 240 478 33 325 553 729 263 
142 7 28 630 300 51 556 771 781 
143 7 211 392 239 636 719 716 114 
144 7 190 493 262 269 610 463 775 
145 7 453 556 771 404 259 441 395 
146 7 233 199 238 324 48 123 597 
147 7 15 513 125 477 796 470 405 
148 7 163 586 761 410 797 32 237 
149 7 600 386 170 359 762 751 18 
150 7 718 382 464 297 212 83 487 
151 7 659 284 35 56 383 23 486 
152 7 413 777 472 707 277 153 20 
153 7 714 506 482 303 413 695 732 
154 7 449 275 131 333 140 746 468 
155 7 258 232 617 494 712 127 407 
156 7 336 717 126 456 549 571 320 
157 7 602 193 267 438 559 804 173 
158 7 63 96 754 623 110 593 319 
159 7 3 100 102 764 647 111 496 
160 7 59 314 517 225 444 52 317 
161 7 535 748 732 605 303 481 702 
162 6 68 577 348 434 271 345 
163 7 148 586 761 410 32 693 797 
164 7 203 724 649 652 185 307 760 
165 7 356 215 14 804 102 355 289 
166 7 611 674 171 595 375 432 13 
167 7 291 124 280 666 515 471 558 
168 7 21 686 122 207 296 94 19 
169 7 737 285 173 278 274 309 204 
170 7 386 121 751 530 688 149 452 
171 7 375 776 432 166 537 611 48 
172 7 480 461 565 620 91 188 120 
173 7 193 285 541 169 737 157 264 
174 7 305 448 753 183 733 668 226 
175 7 787 315 107 37 88 97 455 
176 7 337 516 312 445 26 632 136 
177 7 638 248 494 281 802 706 258 
178 7 48 324 597 238 432 233 375 
179 7 246 450 76 495 697 244 89 
180 7 371 784 441 259 132 793 556 
181 7 721 17 260 507 139 713 117 
182 7 583 792 548 394 650 138 779 
183 7 733 281 248 494 177 638 271 
184 7 515 187 471 691 124 366 747 
185 7 652 4 531 760 724 491 99 
186 7 7 334 423 727 505 527 77 
187 7 691 184 515 471 710 700 747 
188 7 565 651 789 749 47 120 747 
189 7 545 598 480 700 685 200 671 
190 7 262 493 144 463 519 403 269 
191 7 130 508 235 665 279 229 416 
192 7 353 427 72 243 549 126 529 
193 7 157 173 602 541 267 559 285 
194 7 475 678 266 554 217 379 524 
195 7 664 795 221 463 135 269 794 
196 7 728 540 725 641 204 756 278 
197 7 739 666 558 361 648 36 163 
198 7 526 648 465 361 755 197 36 
199 7 233 123 146 324 528 238 178 
200 7 671 78 220 539 598 39 189 
201 7 640 135 351 720 775 221 269 
202 7 627 261 319 650 476 792 110 
203 7 164 482 724 649 695 652 714 
204 7 540 756 196 725 278 641 728 
205 7 608 206 368 49 522 98 295 
206 7 368 205 608 522 49 466 295 
207 7 295 21 122 49 466 168 94 
208 7 11 462 433 499 745 765 791 
209 7 576 247 570 572 294 313 347 
210 7 43 374 778 333 22 115 224 
211 7 719 716 636 143 544 257 459 
212 6 382 773 554 217 266 397 
213 7 469 242 27 306 448 442 434 
214 7 497 436 758 498 83 464 352 
215 7 165 356 641 14 804 728 278 
216 7 601 806 249 658 123 301 318 
217 7 266 194 475 212 678 554 382 
218 7 592 690 603 557 605 228 702 
219 7 383 284 37 56 315 659 151 
220 7 78 742 790 254 533 721 6 
221 7 135 195 664 795 351 794 463 
222 7 489 323 250 106 590 637 498 
223 7 708 757 585 282 401 354 111 
224 7 115 628 615 77 596 767 527 
225 7 59 314 160 517 419 34 692 
226 7 753 668 71 305 518 801 447 
227 7 10 47 562 651 749 188 789 
228 7 557 603 218 592 690 387 605 
229 7 235 378 191 340 130 564 279 
230 7 656 559 52 602 444 288 109 
231 7 797 520 467 380 514 770 581 
232 7 712 617 155 258 407 127 415 
233 7 146 199 238 123 324 48 178 
234 6 79 128 411 437 443 637 
235 7 229 191 130 508 279 340 42 
236 7 587 372 705 759 62 788 311 
237 7 456 336 571 126 156 549 30 
238 7 597 48 146 233 178 324 199 
239 7 392 114 256 143 84 636 478 
240 7 141 478 33 325 415 553 701 
241 7 699 357 118 338 479 675 398 
242 7 442 91 562 469 27 213 461 
243 7 529 353 381 689 72 156 126 
244 7 495 697 246 179 450 305 530 
245 7 326 560 457 573 119 363 247 
246 7 179 450 697 76 495 244 89 
247 7 572 294 560 457 363 209 570 
248 7 281 183 733 638 177 494 271 
249 7 658 805 601 216 301 370 458 
250 7 379 678 475 222 489 599 194 
251 7 492 389 111 265 350 647 401 
252 7 575 289 385 9 438 354 267 
253 7 134 768 798 744 113 736 662 
254 7 790 742 539 446 39 139 713 
255 7 655 476 614 523 339 261 397 
256 7 114 239 392 729 553 263 478 
257 7 459 636 544 384 719 313 211 
258 7 155 617 232 494 712 127 407 
259 4 441 404 367 588 
260 7 507 117 181 139 713 721 17 
261 7 627 476 202 650 255 792 339 
262 7 190 493 144 463 269 794 795 
263 7 553 729 734 2 46 141 426 
264 7 369 692 541 66 419 285 95 
265 7 282 585 492 251 401 111 223 
266 6 554 194 475 217 524 678 
267 7 438 157 804 14 252 289 602 
268 7 584 67 54 349 607 680 390 
269 7 144 195 664 775 463 493 795 
270 7 64 108 485 653 543 677 428 
271 7 577 281 248 183 733 638 177 
272 7 129 702 732 303 370 748 161 
273 7 443 568 12 128 132 79 371 
274 7 667 756 169 737 204 725 540 
275 7 154 140 449 131 333 746 468 
276 7 547 730 23 486 45 563 548 
277 7 707 421 472 777 458 301 87 
278 7 204 540 641 14 737 804 215 
279 7 340 508 665 416 130 25 414 
280 7 124 515 789 747 291 184 120 
281 7 248 183 733 638 177 271 494 
282 7 585 265 223 708 401 492 111 
283 7 298 373 292 57 81 417 589 
284 7 383 56 151 659 219 35 398 
285 7 169 173 541 264 369 737 309 
286 7 583 394 561 182 319 548 792 
287 7 550 454 799 683 578 61 391 
288 7 109 656 385 445 312 337 230 
289 7 9 575 252 355 354 356 438 
290 7 20 82 41 53 87 460 622 
291 7 167 280 124 789 749 515 93 
292 7 589 283 731 595 631 166 611 
293 7 7 334 423 527 186 377 767 
294 7 572 29 694 247 363 331 616 
295 7 49 207 466 368 522 122 21 
296 7 19 69 687 403 168 519 531 
297 7 83 487 464 150 718 758 436 
298 7 373 57 709 283 806 601 123 
299 7 720 654 203 695 775 491 99 
300 7 51 781 142 630 28 771 556 
301 7 458 421 277 805 370 249 601 
302 7 543 86 680 485 653 328 137 
303 7 732 506 748 400 153 535 714 
304 6 65 306 663 344 782 542 
305 7 753 174 226 668 495 244 448 
306 7 782 65 502 344 672 16 304 
307 7 752 652 185 649 164 531 724 
308 7 722 201 346 640 299 738 351 
309 7 95 66 285 369 264 692 169 
310 7 412 672 542 673 788 704 344 
311 7 31 521 62 137 439 587 372 
312 7 445 26 488 337 109 385 176 
313 7 544 576 719 257 459 716 209 
314 7 59 517 160 225 317 444 52 
315 7 37 175 787 455 219 661 383 
316 7 88 97 599 335 107 430 175 
317 7 444 52 716 314 517 59 160 
318 7 528 216 301 199 670 601 123 
319 7 110 202 286 627 96 583 792 
320 7 717 571 156 336 689 6 380 
321 7 393 90 44 657 536 764 728 
322 7 798 619 253 60 512 736 774 
323 7 222 489 106 590 498 637 437 
324 7 178 48 233 123 238 597 199 
325 7 33 414 25 141 701 240 416 
326 7 573 245 613 457 560 570 634 
327 7 580 425 70 420 604 426 340 
328 7 137 439 31 86 521 302 543 
329 7 639 396 360 104 377 22 293 
330 7 778 484 13 615 596 628 674 
331 7 384 643 29 694 633 294 459 
332 7 723 635 140 682 275 60 154 
333 7 131 468 449 43 778 210 154 
334 7 423 527 7 186 767 77 293 
335 7 430 511 88 316 661 455 175 
336 7 156 456 717 126 549 571 320 
337 7 176 516 312 445 26 109 136 
338 7 479 118 92 523 803 241 699 
339 7 614 255 476 546 397 261 627 
340 7 279 604 327 420 378 580 70 
341 7 566 579 801 518 84 71 392 
342 6 567 538 663 703 80 679 
343 7 624 679 80 481 690 605 592 
344 7 672 542 502 412 782 310 704 
345 6 594 440 462 348 433 162 
346 7 722 481 738 535 308 161 748 
347 7 763 525 684 660 576 209 451 
348 6 594 440 582 345 802 42 
349 7 607 680 54 86 584 302 268 
350 7 389 621 504 251 376 492 265 
351 7 135 221 201 640 664 195 795 
352 7 402 436 497 83 487 297 758 
353 7 243 529 381 72 192 532 689 
354 7 496 9 757 355 223 401 111 
355 7 9 102 496 354 289 647 111 
356 7 165 215 14 804 289 355 9 
357 7 699 241 398 118 787 338 479 
358 7 800 98 38 608 677 205 485 
359 7 762 18 149 741 751 386 73 
360 7 639 22 329 374 396 104 210 
361 7 693 197 163 586 739 465 32 
362 7 490 569 633 425 616 70 580 
363 7 572 294 247 560 616 769 29 
364 7 743 20 460 290 622 365 152 
365 6 112 50 364 743 783 460 
366 6 473 471 691 184 515 187 
367 3 588 441 259 
368 7 206 49 522 205 295 466 608 
369 7 264 692 66 541 419 285 95 
370 7 805 458 277 421 129 301 707 
371 7 180 784 132 793 441 418 259 
372 7 705 587 62 236 311 431 521 
373 7 298 283 57 709 483 806 417 
374 7 22 210 43 360 639 115 224 
375 7 171 432 776 48 178 597 166 
376 7 621 764 389 350 251 504 536 
377 7 396 293 125 509 7 329 334 
378 7 564 604 70 425 327 340 580 
379 7 599 678 475 194 316 88 266 
380 7 520 467 581 6 231 320 797 
381 7 529 243 689 353 591 532 72 
382 7 212 773 718 150 217 397 554 
383 7 284 56 219 151 659 37 398 
384 7 331 643 459 29 694 257 294 
385 7 252 575 445 312 288 438 289 
386 7 170 149 751 121 600 530 688 
387 7 766 609 228 557 603 592 218 
388 7 788 759 390 236 587 310 372 
389 7 350 621 504 251 376 492 265 
390 7 759 236 388 607 587 349 788 
391 7 735 713 139 446 507 254 260 
392 7 239 114 256 143 84 579 636 
393 7 321 90 44 657 728 536 641 
394 7 548 583 561 182 286 730 792 
395 4 404 588 367 259 
396 7 377 329 104 293 639 334 423 
397 5 773 614 255 339 524 
398 7 56 357 118 696 699 787 241 
399 7 55 698 101 499 750 623 63 
400 7 506 695 482 714 303 748 535 
401 7 111 647 496 492 585 223 282 
402 7 352 497 436 487 83 297 214 
403 7 519 687 19 190 296 531 4 
404 4 395 259 453 145 
405 7 796 15 786 8 509 513 147 
406 7 551 619 645 631 731 81 417 
407 7 712 415 232 617 84 127 240 
408 7 791 85 765 503 510 229 564 
409 5 555 512 322 726 619 
410 6 761 148 231 163 797 514 
411 6 437 637 128 234 474 590 
412 7 310 672 542 344 704 673 502 
413 7 152 777 707 472 277 153 20 
414 7 25 416 325 665 772 33 46 
415 7 407 240 629 127 701 33 712 
416 7 665 25 414 772 279 508 325 
417 7 81 631 731 483 589 551 283 
418 7 793 784 132 612 371 365 367 
419 7 692 34 369 264 66 541 225 
420 7 327 580 426 425 70 340 604 
421 7 458 301 277 707 472 777 87 
422 7 58 745 85 500 791 119 408 
423 7 334 527 186 767 7 77 505 
424 7 625 470 781 771 51 453 145 
425 7 70 580 327 604 420 378 564 
426 7 2 420 734 327 580 46 425 
427 7 549 126 336 156 456 192 237 
428 7 64 94 108 262 686 439 190 
429 6 474 590 106 437 637 205 
430 7 335 511 88 661 455 316 175 
431 7 705 62 372 351 587 135 221 
432 7 375 178 171 48 324 597 166 
433 6 462 440 345 594 11 765 
434 7 68 577 618 162 271 281 248 
435 7 138 523 655 650 779 803 792 
436 7 497 758 214 83 352 464 297 
437 6 637 411 590 474 429 128 
438 7 267 252 289 575 157 804 385 
439 7 31 137 328 794 311 463 521 
440 6 594 348 345 433 462 105 
441 4 259 367 404 588 
442 7 91 242 562 172 461 89 620 
443 6 273 568 12 128 79 234 
444 7 52 317 59 230 160 314 517 
445 7 312 26 337 488 109 385 176 
446 7 391 713 139 735 254 39 539 
447 6 452 530 71 801 518 688 
448 7 27 174 183 305 733 271 281 
449 7 154 131 333 275 468 746 43 
450 7 179 246 495 76 697 244 89 
451 7 525 74 684 763 669 347 613 
452 6 447 530 688 121 71 801 
453 7 145 404 771 556 259 395 441 
454 7 735 287 391 446 578 713 139 
455 7 661 315 37 430 175 335 219 
456 7 336 571 156 717 237 126 549 
457 7 570 560 247 245 572 326 209 
458 7 301 421 277 370 805 707 249 
459 7 257 636 384 544 331 719 643 
460 7 622 743 20 290 53 364 41 
461 7 620 89 685 76 172 480 545 
462 6 433 345 440 11 594 208 
463 7 493 795 195 664 794 262 269 
464 7 718 83 758 150 297 487 436 
465 7 361 693 526 711 32 586 197 
466 7 49 295 522 552 207 368 644 
467 7 520 581 380 231 770 6 740 
468 7 131 333 778 449 744 330 43 
469 7 213 242 562 442 10 227 91 
470 7 424 147 625 453 477 15 125 
471 7 366 473 184 691 515 124 187 
472 7 777 707 277 152 413 87 82 
473 6 366 471 691 184 124 515 
474 6 590 429 437 637 106 411 
475 7 678 194 266 379 217 554 599 
476 7 261 255 655 650 627 202 435 
477 7 125 513 147 509 377 396 15 
478 7 141 240 729 553 263 33 325 
479 7 92 338 118 803 523 5 241 
480 7 189 545 172 598 700 620 685 
481 7 346 722 738 535 161 308 748 
482 7 714 695 203 164 153 400 506 
483 7 373 417 81 283 631 57 298 
484 7 674 330 595 662 13 113 611 
485 7 653 677 270 543 302 64 680 
486 7 547 35 501 23 151 659 276 
487 7 297 83 464 352 150 718 436 
488 7 26 24 312 606 445 757 708 
489 7 222 323 250 106 637 590 437 
490 7 569 362 633 425 580 643 70 
491 7 99 760 4 654 610 185 652 
492 7 111 647 251 401 265 282 585 
493 7 262 463 190 144 269 795 195 
494 7 258 155 177 617 733 183 232 
495 7 244 697 246 179 450 305 76 
496 7 647 111 401 354 355 102 492 
497 7 436 214 352 758 83 464 402 
498 7 358 800 38 106 98 323 54 
499 7 750 208 101 399 698 780 11 
500 7 642 422 745 58 780 634 85 
501 7 486 35 547 40 151 659 23 
502 7 782 16 672 344 412 306 542 
503 7 765 105 408 791 229 235 42 
504 7 621 350 389 376 251 492 764 
505 7 681 77 186 727 423 7 334 
506 7 303 400 153 732 714 695 482 
507 7 260 117 181 139 713 735 391 
508 7 130 191 665 279 416 772 25 
509 7 513 8 786 125 405 796 293 
510 7 564 769 378 70 604 425 616 
511 7 335 430 88 316 599 661 455 
512 7 322 619 645 406 555 409 551 
513 7 509 125 786 8 15 796 147 
514 6 740 770 231 467 520 581 
515 7 184 124 471 187 280 747 691 
516 7 136 176 337 109 445 312 288 
517 7 314 59 160 225 317 444 716 
518 7 801 71 341 566 579 447 668 
519 7 403 687 190 19 531 144 4 
520 7 467 380 581 231 770 6 740 
521 7 31 137 311 328 86 439 587 
522 7 466 644 552 49 368 295 206 
523 7 655 435 338 479 255 803 92 
524 5 554 675 773 397 266 
525 7 763 451 684 74 347 660 570 
526 7 465 361 648 197 198 755 739 
527 7 423 767 334 77 7 186 293 
528 7 318 199 670 146 233 123 216 
529 7 381 243 353 689 591 72 532 
530 7 447 452 121 688 170 71 518 
531 7 185 4 652 687 760 752 491 
532 7 72 529 591 646 381 353 243 
533 7 6 581 380 320 220 467 520 
534 7 30 427 711 32 192 126 237 
535 7 748 161 400 303 346 722 732 
536 7 657 44 90 321 376 764 393 
537 7 13 596 615 776 681 674 628 
538 6 342 663 567 703 80 704 
539 7 39 254 446 790 742 713 139 
540 7 204 196 756 725 641 728 278 
541 7 264 369 173 692 285 193 66 
542 7 344 412 672 704 310 502 80 
543 7 302 485 653 680 86 64 328 
544 7 313 719 257 459 636 211 716 
545 7 598 189 685 480 620 200 700 
546 7 593 339 754 261 614 627 623 
547 7 486 276 23 35 501 151 659 
548 7 394 182 583 730 561 779 792 
549 7 126 427 156 336 456 717 243 
550 7 287 578 799 75 103 454 73 
551 7 406 609 417 81 631 731 645 
552 7 466 522 644 49 295 612 207 
553 7 729 263 734 2 478 46 141 
554 5 266 524 773 194 675 
555 6 726 322 60 512 409 635 
556 7 771 145 453 259 630 180 441 
557 7 228 603 218 592 690 605 702 
558 6 739 666 167 761 410 473 
559 7 602 230 656 157 193 267 288 
560 7 457 247 245 363 572 570 294 
561 7 394 548 286 583 182 730 792 
562 7 91 227 47 10 442 651 188 
563 7 45 696 5 23 779 803 92 
564 7 378 604 70 425 580 327 340 
565 7 188 651 120 789 749 747 47 
566 7 341 579 801 518 84 71 392 
567 7 342 80 663 538 704 679 343 
568 6 443 273 12 128 79 411 
569 7 490 362 633 425 580 70 327 
570 7 457 684 209 247 560 572 347 
571 7 717 456 336 156 320 797 237 
572 7 247 294 363 209 560 29 457 
573 7 326 245 613 634 457 560 570 
574 7 785 116 703 645 766 387 609 
575 7 252 289 9 385 354 438 355 
576 7 313 209 347 544 763 257 459 
577 7 271 68 434 162 281 248 183 
578 7 103 75 454 550 287 133 117 
579 7 341 566 801 84 518 71 392 
580 7 327 425 70 420 604 426 340 
581 7 467 520 380 6 770 533 740 
582 7 802 706 638 348 177 42 594 
583 7 182 394 548 286 792 561 650 
584 7 67 268 54 349 390 607 680 
585 7 282 223 265 708 401 111 492 
586 7 32 148 163 693 711 30 237 
587 7 372 236 705 62 311 521 31 
588 3 367 395 259 
589 7 731 631 81 292 417 283 406 
590 6 474 429 106 437 637 411 
591 7 381 529 689 17 532 243 353 
592 7 218 690 603 557 228 605 679 
593 7 546 623 754 63 158 339 627 
594 6 440 348 345 433 582 105 
595 7 662 113 484 768 611 674 166 
596 7 615 628 537 681 13 224 115 
597 7 48 238 178 324 146 233 375 
598 7 545 189 685 480 200 671 700 
599 7 379 316 88 511 678 335 430 
600 7 149 799 386 170 550 287 359 
601 7 216 249 658 806 301 709 57 
602 7 559 157 193 267 438 230 656 
603 7 592 218 690 557 228 605 679 
604 7 70 378 327 425 580 564 340 
605 7 702 690 218 592 161 603 624 
606 7 24 488 708 26 223 585 282 
607 7 86 349 680 302 521 137 328 
608 7 205 206 368 98 800 49 522 
609 7 551 387 766 406 483 417 228 
610 7 99 654 491 775 4 760 144 
611 7 166 674 595 171 484 375 13 
612 7 552 793 112 418 466 132 644 
613 7 326 573 451 684 457 570 245 
614 6 339 255 397 476 655 773 
615 7 596 628 224 115 681 13 537 
616 7 633 694 769 29 362 490 569 
617 7 258 232 127 712 155 407 629 
618 7 434 68 16 162 577 502 782 
619 7 406 731 551 631 589 645 81 
620 7 461 685 89 545 480 76 172 
621 7 350 504 389 376 251 764 492 
622 6 460 743 53 290 20 41 
623 7 63 158 593 754 546 96 110 
624 7 343 679 605 690 592 218 481 
625 7 424 470 781 51 771 147 477 
626 6 538 304 663 342 785 574 
627 7 202 261 476 754 319 650 110 
628 7 224 615 115 596 77 681 13 
629 7 701 127 415 33 325 25 617 
630 7 142 28 556 300 771 180 51 
631 7 81 731 417 589 551 283 292 
632 7 24 176 337 26 488 312 516 
633 7 362 616 490 569 694 29 331 
634 7 245 642 58 119 573 326 422 
635 7 682 723 332 60 726 140 774 
636 7 257 459 719 211 544 384 716 
637 6 437 411 590 474 429 128 
638 7 177 248 802 281 582 706 183 
639 7 360 329 22 396 374 104 377 
640 7 201 135 720 775 269 351 664 
641 7 728 196 540 215 204 278 725 
642 7 500 634 422 58 573 119 245 
643 7 331 384 694 29 490 362 569 
644 7 522 552 466 368 49 206 295 
645 7 406 551 609 116 619 766 387 
646 7 532 676 72 591 117 529 381 
647 7 111 401 496 492 102 159 251 
648 7 36 755 197 666 93 739 167 
649 7 164 203 307 724 652 482 714 
650 7 792 138 182 435 583 202 476 
651 7 188 565 749 789 47 120 280 
652 7 185 724 760 4 164 491 531 
653 7 485 677 543 680 302 270 64 
654 7 99 491 610 720 760 775 4 
655 7 523 255 435 476 138 338 479 
656 7 230 288 559 109 602 52 385 
657 7 536 44 90 321 393 764 376 
658 7 249 805 601 216 806 709 57 
659 7 151 284 35 56 383 23 486 
660 7 763 347 74 525 136 451 684 
661 7 455 315 37 430 335 175 511 
662 7 113 768 595 744 484 674 611 
663 6 567 342 538 704 80 542 
664 7 195 795 221 463 135 269 794 
665 7 416 25 772 508 279 414 130 
666 7 739 167 36 558 93 197 291 
667 7 274 756 725 204 540 737 169 
668 7 226 753 71 518 801 155 712 
669 7 74 451 525 763 684 136 516 
670 7 715 528 146 199 233 318 238 
671 7 200 700 710 187 691 78 189 
672 7 344 412 542 502 310 782 16 
673 7 788 431 738 310 705 372 236 
674 7 611 13 484 166 537 595 330 
675 5 97 241 524 699 107 
676 7 117 260 646 507 17 181 532 
677 7 653 485 38 680 270 543 302 
678 7 475 194 379 266 217 599 316 
679 7 592 690 624 218 603 343 605 
680 7 302 543 653 86 485 607 677 
681 7 505 77 596 615 537 186 628 
682 7 60 635 774 736 798 746 723 
683 7 61 39 539 287 446 391 735 
684 7 525 570 763 347 451 209 457 
685 7 545 620 598 189 461 480 89 
686 7 94 21 122 168 296 403 207 
687 7 19 296 69 403 531 519 752 
688 6 121 452 447 530 170 751 
689 7 381 529 243 591 320 717 156 
690 7 218 592 603 605 557 228 702 
691 7 187 184 471 710 366 515 473 
692 7 369 264 66 419 541 95 34 
693 7 711 32 586 163 148 361 30 
694 7 29 331 633 616 643 294 384 
695 7 482 714 400 203 299 506 164 
696 7 5 45 563 92 803 23 118 
697 7 244 495 246 179 450 76 305 
698 7 101 55 750 399 499 623 593 
699 7 241 357 118 338 675 787 398 
700 7 671 187 189 691 747 120 710 
701 7 629 25 325 33 772 414 127 
702 7 605 272 161 218 690 129 592 
703 7 116 766 785 574 387 342 538 
704 7 542 80 412 663 567 310 344 
705 7 372 62 587 431 236 311 31 
706 7 802 582 177 638 42 191 772 
707 7 777 472 277 413 152 421 458 
708 7 223 585 757 282 401 354 265 
709 7 57 806 298 601 658 216 373 
710 7 691 187 671 366 740 471 514 
711 7 32 693 586 30 534 148 163 
712 7 232 407 617 155 258 415 127 
713 7 139 391 735 446 507 254 260 
714 7 482 695 153 203 506 400 164 
715 7 670 15 796 405 147 146 528 
716 7 211 719 544 317 636 313 143 
717 7 571 156 336 320 456 126 549 
718 7 150 464 382 212 297 83 217 
719 7 211 716 544 636 257 313 459 
720 7 775 654 640 610 299 99 201 
721 7 181 17 742 139 790 260 254 
722 7 346 481 738 308 535 748 161 
723 7 332 635 682 140 275 60 154 
724 7 652 164 760 185 4 203 491 
725 7 756 196 540 204 728 641 667 
726 5 635 555 723 682 60 
727 7 186 7 505 334 423 681 77 
728 7 196 641 540 204 393 725 756 
729 7 553 263 734 2 478 141 46 
730 7 548 394 276 779 182 45 561 
731 7 631 589 81 417 292 406 283 
732 7 303 748 506 400 153 535 272 
733 7 183 248 281 494 177 638 258 
734 7 2 263 46 426 553 729 420 
735 7 391 713 139 446 507 260 181 
736 7 774 798 134 746 60 253 682 
737 7 169 285 278 173 204 540 274 
738 7 722 346 481 308 431 535 351 
739 7 558 666 197 167 291 761 36 
740 6 514 770 467 520 581 231 
741 7 95 762 309 359 66 34 692 
742 7 790 254 220 721 78 139 181 
743 6 460 622 364 20 290 53 
744 7 768 113 662 595 484 468 253 
745 7 422 85 791 58 408 765 500 
746 7 134 736 774 798 154 468 131 
747 7 120 515 184 280 187 124 565 
748 7 535 732 303 161 400 506 153 
749 7 789 651 188 280 291 565 47 
750 7 101 698 499 55 399 208 487 
751 7 170 386 121 688 149 34 762 
752 7 307 531 783 69 185 687 19 
753 7 226 668 305 71 174 518 155 
754 7 158 627 63 546 202 110 261 
755 7 36 93 648 666 291 10 167 
756 7 725 540 204 196 728 641 667 
757 7 223 708 354 585 401 496 282 
758 7 464 436 83 214 497 718 297 
759 7 390 236 587 788 372 388 607 
760 7 4 491 185 652 99 724 654 
761 6 410 148 163 231 797 514 
762 7 359 18 741 149 751 386 600 
763 7 347 525 660 684 74 451 576 
764 7 3 100 159 44 376 90 102 
765 7 503 791 408 105 85 745 229 
766 7 387 116 609 703 645 551 228 
767 7 527 423 77 334 115 186 7 
768 7 113 744 662 595 484 253 468 
769 7 616 510 363 633 119 694 362 
770 7 740 514 467 520 581 231 380 
771 7 556 145 781 453 51 424 300 
772 7 25 416 665 414 508 701 279 
773 5 397 524 212 554 614 
774 7 736 798 134 746 60 253 682 
775 7 720 610 269 654 99 640 144 
776 7 171 537 375 681 13 505 596 
777 7 472 707 152 413 277 87 421 
778 7 330 43 628 210 615 224 333 
779 7 138 803 5 45 435 182 548 
780 7 500 499 642 208 745 422 11 
781 7 51 300 424 771 625 556 145 
782 7 502 306 344 672 16 65 542 
783 7 50 752 112 69 307 19 365 
784 7 371 793 132 180 418 441 259 
785 6 574 116 703 766 645 387 
786 7 8 509 405 513 796 727 7 
787 7 175 357 107 315 699 398 241 
788 7 236 388 673 372 759 587 705 
789 7 749 280 651 188 291 565 120 
790 7 742 254 220 78 721 539 139 
791 7 408 765 85 503 745 510 229 
792 7 650 182 583 138 394 435 548 
793 7 418 784 132 371 612 180 441 
794 7 795 463 195 664 221 439 493 
795 7 195 664 463 794 221 269 135 
796 7 405 15 786 8 513 509 147 
797 7 231 571 380 520 467 456 237 
798 7 736 774 134 253 746 60 682 
799 7 550 287 600 683 75 454 61 
800 7 98 358 38 608 205 206 677 
801 7 518 71 341 566 579 447 452 
802 7 582 706 638 177 42 348 248 
803 7 92 479 5 118 779 696 338 
804 7 14 267 356 165 215 438 278 
805 7 370 249 658 458 129 301 421 
806 7 709 57 601 216 658 298 249 
DEPOT_SECTION
   1
   -1
EOF
