NAME :  X-n837-kX-w167-c9.cctp
COMMENT : 	Adapted by Maziero, Usberti and Cavellucci from the Uchoa, Pecin, Pessoa, Poggi, Subramanian, and Vidal (2013)
TYPE :  CCTP
DIMENSION :    664
EDGE_WEIGHT_TYPE : 	EUC_2D	
CAPACITY : 	44
VERTICES_WITHIN_COVERAGE :  9
VERTICES_WITH_DEMAND : 	167
NODE_COORD_SECTION
1 940 231
2 721 848
3 618 44
4 993 145
5 636 512
6 274 496
7 245 945
8 449 812
9 29 650
10 399 8
11 548 19
12 769 717
13 221 850
14 980 233
15 477 922
16 498 720
17 136 832
18 351 663
19 58 67
20 889 569
21 28 334
22 804 928
23 900 138
24 393 403
25 982 609
26 79 299
27 684 582
28 169 252
29 405 925
30 875 191
31 674 112
32 576 537
33 539 63
34 338 657
35 210 209
36 676 568
37 949 826
38 572 890
39 210 615
40 737 46
41 30 527
42 131 724
43 671 842
44 727 566
45 507 497
46 524 134
47 167 665
48 819 108
49 929 582
50 713 738
51 352 626
52 887 547
53 176 645
54 611 289
55 457 532
56 11 147
57 958 60
58 587 187
59 790 956
60 974 63
61 306 225
62 961 969
63 238 736
64 758 840
65 88 44
66 507 811
67 768 476
68 51 914
69 494 445
70 953 33
71 922 45
72 748 111
73 544 867
74 477 596
75 322 79
76 439 150
77 586 764
78 214 599
79 168 480
80 925 138
81 797 107
82 751 783
83 738 913
84 703 73
85 681 886
86 627 27
87 887 310
88 478 345
89 571 600
90 834 858
91 549 370
92 657 233
93 126 769
94 317 934
95 237 55
96 851 409
97 838 426
98 477 559
99 542 94
100 370 432
101 520 621
102 666 178
103 631 484
104 733 255
105 820 918
106 687 877
107 752 983
108 157 720
109 709 898
110 300 878
111 728 617
112 66 59
113 991 657
114 717 47
115 463 177
116 586 397
117 792 307
118 100 392
119 438 722
120 43 247
121 71 476
122 69 560
123 211 73
124 471 14
125 115 806
126 194 337
127 921 320
128 104 495
129 36 456
130 500 152
131 782 316
132 881 374
133 277 601
134 962 575
135 588 181
136 941 728
137 108 931
138 11 814
139 209 800
140 129 525
141 126 149
142 31 219
143 97 324
144 495 122
145 759 480
146 859 782
147 780 669
148 786 769
149 759 159
150 282 633
151 361 17
152 957 103
153 711 939
154 544 544
155 27 318
156 665 656
157 523 586
158 842 429
159 539 783
160 769 347
161 937 386
162 824 841
163 738 391
164 833 988
165 16 637
166 91 472
167 41 388
168 623 780
169 660 155
170 700 658
171 946 783
172 607 815
173 658 874
174 527 853
175 459 577
176 937 639
177 833 692
178 421 999
179 908 447
180 469 163
181 737 238
182 509 61
183 246 352
184 488 408
185 600 359
186 510 460
187 342 691
188 787 465
189 700 873
190 659 568
191 478 525
192 988 980
193 241 353
194 28 661
195 724 842
196 2 660
197 210 180
198 840 841
199 843 9
200 265 453
201 209 673
202 20 952
203 673 659
204 185 335
205 138 655
206 769 741
207 325 260
208 831 678
209 401 625
210 212 360
211 118 426
212 192 520
213 596 376
214 449 679
215 579 295
216 333 352
217 837 944
218 377 500
219 797 97
220 65 235
221 440 877
222 849 769
223 439 326
224 407 621
225 550 241
226 253 243
227 76 852
228 642 116
229 598 124
230 564 374
231 997 660
232 14 98
233 845 303
234 774 9
235 791 671
236 575 109
237 290 897
238 953 348
239 906 692
240 895 790
241 25 242
242 761 886
243 909 336
244 501 846
245 731 4
246 337 71
247 106 973
248 846 368
249 978 669
250 884 559
251 10 910
252 390 602
253 451 134
254 324 221
255 569 98
256 735 341
257 672 867
258 584 520
259 193 416
260 954 912
261 761 734
262 192 875
263 88 353
264 777 38
265 98 68
266 642 658
267 838 305
268 824 694
269 238 825
270 357 593
271 541 423
272 537 99
273 137 539
274 719 213
275 68 173
276 788 339
277 939 69
278 826 300
279 492 174
280 566 830
281 371 935
282 840 180
283 979 466
284 970 249
285 975 291
286 192 630
287 560 724
288 310 503
289 506 445
290 720 806
291 259 450
292 156 388
293 81 518
294 597 384
295 388 967
296 399 787
297 11 859
298 688 276
299 721 451
300 3 300
301 983 902
302 184 404
303 984 221
304 514 801
305 887 476
306 106 208
307 552 923
308 803 145
309 974 602
310 316 566
311 73 473
312 448 186
313 86 398
314 653 3
315 239 470
316 717 351
317 762 276
318 434 39
319 420 378
320 141 122
321 805 572
322 769 874
323 909 440
324 875 676
325 38 852
326 105 958
327 504 740
328 840 804
329 62 24
330 360 375
331 199 310
332 661 252
333 484 955
334 481 777
335 277 225
336 223 388
337 504 527
338 242 931
339 801 74
340 538 483
341 510 183
342 377 842
343 244 834
344 115 811
345 37 611
346 30 147
347 658 235
348 109 856
349 950 351
350 34 512
351 937 779
352 840 77
353 470 783
354 890 127
355 672 450
356 719 972
357 893 283
358 86 437
359 45 423
360 119 237
361 199 550
362 221 723
363 613 950
364 357 566
365 582 795
366 815 464
367 329 481
368 223 90
369 144 199
370 819 300
371 778 769
372 960 581
373 891 760
374 869 582
375 762 952
376 129 544
377 891 765
378 279 754
379 152 677
380 262 932
381 563 354
382 128 42
383 527 584
384 322 73
385 562 370
386 392 609
387 736 268
388 598 496
389 433 748
390 331 889
391 240 788
392 258 809
393 519 923
394 326 931
395 117 800
396 202 115
397 323 190
398 44 588
399 326 102
400 446 362
401 469 593
402 764 469
403 595 304
404 511 582
405 552 544
406 82 52
407 505 535
408 232 30
409 234 71
410 296 920
411 39 226
412 348 79
413 513 307
414 333 16
415 382 971
416 532 444
417 451 579
418 380 524
419 64 69
420 483 514
421 750 328
422 497 64
423 286 695
424 248 949
425 375 378
426 465 221
427 665 270
428 366 0
429 237 52
430 573 528
431 355 35
432 120 742
433 542 619
434 352 892
435 91 80
436 538 87
437 902 274
438 654 479
439 195 998
440 115 52
441 274 243
442 174 77
443 213 892
444 128 133
445 449 314
446 556 888
447 600 669
448 324 50
449 342 957
450 430 128
451 207 933
452 468 125
453 175 709
454 162 859
455 51 47
456 442 125
457 616 462
458 444 691
459 40 840
460 464 616
461 127 21
462 285 942
463 79 85
464 164 732
465 802 300
466 601 607
467 340 363
468 414 154
469 77 257
470 964 400
471 410 533
472 461 585
473 298 981
474 410 716
475 181 164
476 150 224
477 446 55
478 241 697
479 395 26
480 451 196
481 136 5
482 270 851
483 507 75
484 398 622
485 352 730
486 305 69
487 751 566
488 249 494
489 209 637
490 345 960
491 413 673
492 130 914
493 780 402
494 246 922
495 245 939
496 484 170
497 542 595
498 534 437
499 780 618
500 22 4
501 436 370
502 171 660
503 764 567
504 594 247
505 255 840
506 495 395
507 579 590
508 86 560
509 378 926
510 540 352
511 249 45
512 601 470
513 723 669
514 457 108
515 289 292
516 136 898
517 213 165
518 455 745
519 642 706
520 608 601
521 556 353
522 515 475
523 263 868
524 186 643
525 443 30
526 246 21
527 634 512
528 144 764
529 460 151
530 555 359
531 327 83
532 345 249
533 530 192
534 213 657
535 597 751
536 518 599
537 102 914
538 603 302
539 480 125
540 189 49
541 561 541
542 424 174
543 542 198
544 276 191
545 263 655
546 468 282
547 199 7
548 336 851
549 59 564
550 521 545
551 516 627
552 554 621
553 242 77
554 201 388
555 503 99
556 512 898
557 375 11
558 482 548
559 137 621
560 67 799
561 620 405
562 155 793
563 249 50
564 205 733
565 554 130
566 599 693
567 365 919
568 473 164
569 34 929
570 150 787
571 543 575
572 178 253
573 690 409
574 55 99
575 242 68
576 230 108
577 112 800
578 195 119
579 519 123
580 346 372
581 55 79
582 470 430
583 109 474
584 121 716
585 46 87
586 388 31
587 627 292
588 105 831
589 196 879
590 70 101
591 182 429
592 461 727
593 611 551
594 250 928
595 605 605
596 116 708
597 257 883
598 593 306
599 335 249
600 113 146
601 631 430
602 251 203
603 349 223
604 549 148
605 99 354
606 65 569
607 174 66
608 599 697
609 546 563
610 197 184
611 316 899
612 603 611
613 792 373
614 240 583
615 142 783
616 684 693
617 269 748
618 646 519
619 268 693
620 213 33
621 111 771
622 61 608
623 658 591
624 312 448
625 210 48
626 180 107
627 539 169
628 18 18
629 248 946
630 565 83
631 198 787
632 518 10
633 554 356
634 64 665
635 301 987
636 219 644
637 637 463
638 415 133
639 190 59
640 301 863
641 747 120
642 469 369
643 591 776
644 375 17
645 496 587
646 332 242
647 571 590
648 236 921
649 439 545
650 114 190
651 324 21
652 656 228
653 526 747
654 202 580
655 238 966
656 513 551
657 163 299
658 141 898
659 264 956
660 60 249
661 667 557
662 266 960
663 567 423
664 348 955
DEMAND_SECTION
2 7
3 9
4 6
5 7
6 6
7 8
8 9
9 5
10 8
11 10
12 7
13 5
14 7
15 10
16 6
17 5
18 5
19 7
20 6
21 10
22 8
23 10
24 9
25 6
26 10
27 10
28 10
29 10
30 5
31 7
32 8
33 9
34 5
35 7
36 10
37 9
38 6
39 7
40 6
41 7
42 7
43 9
44 6
45 8
46 6
47 5
48 7
49 6
50 7
51 6
52 10
53 6
54 7
55 6
56 7
57 5
58 6
59 9
60 7
61 7
62 8
63 9
64 10
65 10
66 8
67 8
68 5
69 9
70 9
71 10
72 9
73 7
74 10
75 5
76 5
77 10
78 8
79 8
80 10
81 6
82 6
83 8
84 8
85 5
86 9
87 7
88 8
89 6
90 6
91 6
92 9
93 7
94 10
95 10
96 10
97 10
98 7
99 6
100 8
101 6
102 8
103 8
104 10
105 10
106 7
107 7
108 9
109 7
110 10
111 7
112 5
113 9
114 5
115 5
116 9
117 8
118 7
119 9
120 5
121 5
122 8
123 7
124 9
125 10
126 10
127 6
128 8
129 5
130 10
131 10
132 10
133 7
134 9
135 8
136 7
137 6
138 7
139 9
140 9
141 10
142 8
143 6
144 10
145 6
146 7
147 8
148 5
149 9
150 6
151 9
152 7
153 10
154 8
155 10
156 5
157 10
158 8
159 5
160 10
161 10
162 8
163 7
164 8
165 7
166 5
167 6
168 10
COVERAGE_SECTION
2 9 195 189 64 290 106 43 109 257 85 
3 9 86 314 630 255 11 228 236 33 229 
4 9 152 80 303 60 14 57 23 277 354 
5 9 527 618 103 438 388 593 637 258 457 
6 9 488 288 200 315 291 367 624 310 212 
7 9 629 424 495 338 594 380 655 659 494 
8 9 353 334 296 66 244 221 304 389 518 
9 7 194 165 196 634 345 622 398 
10 8 479 557 586 644 428 151 318 525 
11 9 632 33 182 630 422 436 483 3 99 
12 9 261 206 147 235 371 148 50 268 513 
13 8 343 269 505 262 589 443 523 482 
14 9 303 284 285 437 4 357 127 80 30 
15 9 333 393 556 221 29 307 244 174 446 
16 9 327 592 653 518 334 119 458 287 214 
17 9 344 588 125 348 395 454 577 562 570 
18 9 34 187 51 484 209 491 485 386 224 
19 9 419 112 581 455 585 406 463 574 435 
20 9 250 52 374 49 372 134 321 176 309 
21 9 155 300 167 26 263 143 605 313 120 
22 9 105 59 217 375 242 322 164 83 90 
23 9 354 80 30 152 282 277 48 352 4 
24 8 425 100 319 330 501 580 467 400 
25 9 309 372 134 113 231 176 49 249 20 
26 9 143 469 660 155 263 605 21 120 220 
27 8 36 623 190 661 44 111 487 618 
28 9 572 476 657 360 35 369 331 610 306 
29 9 509 281 567 295 415 221 434 664 490 
30 9 282 23 354 80 308 437 357 48 284 
31 9 228 169 84 102 641 72 229 114 3 
32 9 430 541 258 405 154 593 609 388 571 
33 9 436 182 99 630 483 272 422 11 255 
34 9 18 51 187 150 423 270 484 209 386 
35 9 610 197 602 517 475 572 226 28 476 
36 8 661 27 190 623 44 618 593 5 
37 9 171 351 240 301 377 260 373 136 146 
38 9 446 73 307 174 280 556 393 363 172 
39 9 78 489 286 636 654 524 534 614 53 
40 9 114 264 245 84 234 72 339 641 219 
41 9 350 549 122 293 606 398 121 508 311 
42 5 584 432 596 108 464 
43 9 257 173 106 189 85 2 195 290 109 
44 9 487 503 27 36 111 661 190 623 499 
45 8 522 420 337 340 186 407 191 550 
46 9 579 604 130 565 144 272 627 555 99 
47 5 502 379 53 524 205 
48 9 81 219 352 339 308 72 354 641 282 
49 9 372 134 20 309 250 52 176 25 374 
50 9 261 616 206 82 12 290 513 371 519 
51 9 270 34 18 386 252 484 209 224 364 
52 9 250 20 374 49 305 134 372 321 179 
53 9 524 502 47 286 489 205 534 379 201 
54 7 538 587 403 598 215 504 427 
55 9 191 649 558 420 98 175 337 417 471 
56 9 346 232 275 574 585 142 590 581 411 
57 9 60 277 70 71 152 80 4 354 23 
58 9 135 543 627 604 533 504 229 225 565 
59 9 375 22 107 105 217 164 83 356 242 
60 9 57 277 70 152 71 4 80 23 354 
61 8 254 335 646 441 599 397 207 603 
62 9 192 260 301 217 164 37 105 22 90 
63 9 362 564 617 478 378 391 619 423 631 
64 9 195 322 2 242 290 82 162 189 371 
65 9 406 265 112 440 329 419 435 455 19 
66 9 304 244 159 334 353 174 8 280 73 
67 9 402 145 188 366 299 493 97 158 163 
68 9 569 251 202 537 137 325 227 297 326 
69 8 289 186 582 184 522 416 498 506 
70 9 57 71 60 277 152 80 199 354 23 
71 9 277 70 57 60 152 199 352 354 80 
72 9 641 81 149 219 84 308 339 40 48 
73 9 174 446 38 280 556 244 307 393 66 
74 9 401 472 645 460 175 417 98 404 536 
75 7 384 531 246 486 399 412 448 
76 9 253 529 450 456 468 542 638 180 115 
77 9 643 535 365 168 287 159 172 653 608 
78 9 39 654 614 286 489 636 361 524 534 
79 9 212 591 583 140 128 273 259 315 211 
80 9 23 354 152 4 277 30 57 60 71 
81 9 219 48 339 308 72 352 641 149 264 
82 9 371 148 290 206 261 64 50 195 12 
83 9 109 242 153 375 322 189 106 356 85 
84 9 114 40 31 72 641 245 228 264 314 
85 9 106 257 189 173 109 43 2 153 195 
86 9 3 314 11 630 84 228 114 255 33 
87 9 357 243 127 437 233 267 278 132 370 
88 9 642 400 445 223 501 413 506 510 184 
89 9 647 507 552 497 466 595 612 433 520 
90 9 198 162 328 105 322 22 64 242 146 
91 7 385 530 633 230 521 510 381 
92 9 347 652 332 427 298 102 274 504 587 
93 9 621 528 615 432 570 395 577 562 125 
94 9 394 410 462 449 611 664 490 237 390 
95 9 429 563 575 409 511 553 408 625 123 
96 9 97 158 248 132 323 366 179 613 493 
97 9 158 96 366 248 493 188 132 305 613 
98 9 558 175 472 417 55 191 645 401 74 
99 9 272 436 630 255 33 236 579 565 555 
100 9 24 425 330 624 367 580 218 319 467 
101 9 551 433 536 497 552 157 383 404 645 
102 9 169 652 92 347 274 31 228 332 135 
103 9 637 438 457 5 527 512 388 618 355 
104 8 387 181 317 274 298 427 332 421 
105 9 22 217 59 90 242 322 375 164 162 
106 9 85 189 257 173 109 43 2 195 83 
107 9 375 356 59 153 83 22 164 105 217 
108 6 464 453 42 584 379 432 
109 9 189 85 106 83 153 257 2 242 173 
110 8 640 237 611 390 523 482 410 597 
111 9 170 44 499 513 27 487 503 203 36 
112 9 419 19 406 455 581 65 463 265 435 
113 9 231 249 25 176 309 372 134 136 239 
114 9 40 84 245 264 234 72 31 314 641 
115 9 180 568 312 480 496 529 279 76 542 
116 9 294 213 230 663 561 385 185 91 381 
117 9 465 131 370 276 278 317 160 267 421 
118 9 313 211 605 263 358 292 167 359 143 
119 9 592 389 474 518 458 214 491 16 327 
120 8 660 241 411 220 142 469 26 300 
121 9 311 166 128 583 129 358 293 350 359 
122 9 606 549 508 398 293 622 41 350 345 
123 9 368 409 625 639 553 575 95 429 540 
124 7 525 318 632 477 422 182 483 
125 8 344 395 577 588 17 615 621 93 
126 9 204 331 210 657 193 554 183 336 292 
127 9 243 87 349 238 357 437 285 132 161 
128 9 583 166 293 121 311 140 273 376 358 
129 9 359 121 311 358 350 166 167 41 583 
130 9 279 496 46 144 568 180 341 539 579 
131 9 117 276 465 160 421 370 317 278 256 
132 9 248 96 243 161 87 97 127 158 323 
133 9 150 614 310 545 78 39 636 489 654 
134 9 372 309 49 25 176 20 52 250 113 
135 9 58 543 627 604 229 533 565 504 225 
136 8 239 351 171 373 377 249 240 324 
137 8 537 326 492 247 516 658 68 569 
138 5 459 297 325 560 227 
139 8 631 391 269 343 392 13 562 570 
140 9 273 376 128 293 508 583 79 212 166 
141 7 600 444 320 650 369 475 306 
142 8 411 241 120 220 660 275 469 346 
143 9 263 605 26 118 21 155 469 657 313 
144 9 539 555 579 452 130 46 514 529 253 
145 9 67 402 188 299 366 493 487 503 163 
146 8 222 328 377 240 373 198 162 148 
147 9 235 12 268 499 208 513 177 261 206 
148 9 371 206 82 261 12 222 328 146 64 
149 9 641 308 72 81 274 219 48 181 282 
150 9 545 133 34 423 619 636 614 51 489 
151 9 644 557 428 431 414 586 479 651 10 
152 9 277 57 60 80 4 23 71 70 354 
153 9 356 83 109 375 107 85 106 189 242 
154 9 405 541 609 550 571 656 32 430 407 
155 9 21 300 26 143 263 167 120 241 660 
156 9 203 266 170 616 519 513 623 447 111 
157 9 383 404 536 497 571 645 609 101 656 
158 9 97 96 366 248 305 188 132 179 323 
159 9 304 653 66 365 77 643 280 327 334 
160 9 276 421 131 256 613 117 316 163 493 
161 9 470 349 238 132 243 323 127 179 96 
162 9 198 90 328 322 64 146 222 105 242 
163 8 493 316 256 573 160 613 299 421 
164 9 217 59 22 105 375 107 356 83 242 
165 7 9 194 196 345 622 398 634 
166 9 311 583 121 128 358 293 211 129 140 
167 9 359 313 21 118 263 358 605 129 155 
168 9 643 172 535 77 365 280 519 43 159 
169 9 102 228 31 229 652 135 92 58 347 
170 9 513 203 156 616 111 266 519 27 623 
171 9 351 37 240 136 377 373 146 222 239 
172 9 365 168 643 280 77 535 43 159 173 
173 9 257 85 106 43 189 109 2 195 172 
174 9 73 244 280 446 66 556 304 38 393 
175 9 417 472 401 98 74 558 645 649 460 
176 8 249 309 25 113 49 239 372 231 
177 7 268 208 324 235 147 12 239 
178 9 295 415 29 333 281 490 509 664 449 
179 9 323 305 158 161 96 97 283 470 132 
180 9 568 115 529 496 279 312 76 130 253 
181 9 104 387 274 317 298 332 347 427 92 
182 8 422 483 33 555 436 99 272 632 
183 9 193 210 336 126 554 204 331 515 302 
184 9 506 582 69 289 642 498 271 186 416 
185 8 213 294 381 230 116 385 521 530 
186 8 289 522 69 416 498 340 45 271 
187 6 18 34 485 423 51 474 
188 9 67 402 366 145 493 97 158 299 96 
189 9 106 85 109 257 2 195 43 173 83 
190 8 661 36 623 27 593 618 5 520 
191 9 420 55 558 337 407 98 45 649 656 
192 9 62 260 301 164 217 37 105 22 90 
193 9 183 210 336 126 554 204 331 302 515 
194 5 9 196 165 634 345 
195 9 2 64 290 189 106 43 322 242 109 
196 6 194 165 9 345 634 622 
197 7 610 517 35 475 602 578 396 
198 9 162 90 328 146 222 240 322 105 64 
199 9 352 234 264 339 71 219 48 81 40 
200 9 291 315 6 488 624 288 367 336 259 
201 9 534 636 489 524 478 502 47 53 286 
202 9 569 251 68 326 247 137 537 297 325 
203 9 156 170 266 616 513 519 111 623 447 
204 9 126 331 210 657 554 193 292 183 336 
205 2 379 47 
206 9 261 12 371 148 82 50 268 147 235 
207 6 599 646 532 254 61 603 
208 7 177 268 235 324 147 12 239 
209 8 484 224 386 252 51 491 270 18 
210 9 126 193 336 554 183 204 302 331 259 
211 9 358 118 313 583 166 292 591 311 121 
212 9 361 79 273 654 140 488 376 315 614 
213 8 294 185 116 230 385 561 381 530 
214 9 458 491 119 592 474 16 460 518 389 
215 4 403 598 538 54 
216 6 467 580 330 425 515 24 
217 9 105 22 164 59 375 90 107 242 322 
218 8 418 471 367 288 100 364 649 624 
219 9 81 339 48 352 308 72 641 264 149 
220 8 660 120 469 411 142 241 306 360 
221 9 15 29 8 244 342 556 509 567 434 
222 8 146 328 377 373 240 148 371 198 
223 7 445 400 88 501 642 546 319 
224 9 209 484 386 252 491 51 270 460 417 
225 7 504 543 533 215 58 341 135 
226 9 441 335 602 35 61 544 515 207 254 
227 8 348 588 325 459 560 344 125 17 
228 9 31 169 229 102 236 84 255 3 630 
229 9 236 255 565 228 630 604 135 58 99 
230 9 385 91 530 381 633 521 116 213 510 
231 9 113 249 25 309 176 372 136 134 239 
232 9 585 574 581 56 346 19 590 419 455 
233 9 267 278 370 87 465 357 117 131 437 
234 9 264 245 40 114 199 339 219 352 84 
235 9 147 268 208 177 12 499 513 261 206 
236 9 255 229 630 565 99 272 436 604 46 
237 6 110 410 611 597 640 523 
238 9 349 161 127 243 470 285 87 132 357 
239 7 324 136 176 373 177 377 208 
240 9 377 373 146 351 171 222 328 37 198 
241 8 120 411 142 660 220 469 300 155 
242 9 322 83 64 109 2 195 22 189 375 
243 9 127 87 349 238 132 357 161 437 248 
244 9 174 66 304 73 556 8 280 221 446 
245 9 40 234 114 264 84 314 339 86 72 
246 5 412 384 531 75 448 
247 9 326 137 537 492 68 516 658 569 202 
248 9 132 96 613 97 158 267 233 276 87 
249 9 113 231 176 25 309 136 239 372 134 
250 9 20 52 374 49 372 134 321 305 176 
251 9 569 68 202 297 325 459 227 537 138 
252 8 386 484 209 224 270 51 364 417 
253 9 456 452 529 76 450 514 539 180 638 
254 6 61 646 603 599 397 532 
255 9 236 630 99 272 436 565 229 33 604 
256 6 421 316 160 163 131 276 
257 9 173 106 85 43 189 109 2 195 290 
258 6 430 32 388 541 405 593 
259 9 302 591 554 336 292 210 79 315 291 
260 9 301 62 192 37 217 171 90 105 198 
261 9 206 12 371 148 50 82 147 235 268 
262 6 589 443 454 13 658 451 
263 9 605 143 118 313 26 167 21 155 292 
264 9 234 40 339 245 114 219 81 199 352 
265 7 435 406 440 463 65 112 419 
266 9 156 203 447 519 566 616 170 608 612 
267 9 233 278 370 465 117 87 131 357 276 
268 7 177 208 235 147 324 12 206 
269 7 343 505 392 13 391 139 482 
270 8 364 51 252 386 310 484 209 224 
271 6 498 416 663 289 186 69 
272 9 99 436 579 255 630 555 565 33 46 
273 9 376 140 128 508 212 293 361 79 122 
274 9 181 104 387 102 92 347 652 149 298 
275 8 346 650 306 600 142 411 220 56 
276 9 160 131 117 613 421 465 370 256 278 
277 9 57 71 60 152 70 80 354 23 4 
278 9 370 267 233 465 117 131 276 87 317 
279 9 496 341 568 130 180 115 529 533 312 
280 9 365 73 172 174 159 446 38 304 643 
281 9 509 567 664 29 295 449 490 415 394 
282 9 30 308 23 354 48 149 81 219 80 
283 9 470 179 323 161 305 134 372 349 238 
284 9 14 303 285 437 357 127 238 87 349 
285 9 284 14 127 238 349 303 437 243 357 
286 9 524 489 53 39 636 534 502 78 47 
287 9 653 535 608 77 566 327 643 16 159 
288 9 367 6 624 488 310 200 218 418 291 
289 8 69 186 416 498 522 582 184 271 
290 9 195 82 2 64 43 50 371 189 148 
291 9 200 315 488 6 624 336 259 288 367 
292 9 302 554 259 591 211 118 204 210 126 
293 9 128 508 121 122 311 166 350 140 549 
294 9 213 116 185 561 230 385 381 530 663 
295 9 415 281 509 664 490 29 178 449 567 
296 7 389 8 342 518 353 474 485 
297 8 325 459 138 251 227 68 569 560 
298 6 427 332 387 104 347 92 
299 9 402 145 355 573 67 163 188 438 493 
300 9 155 21 241 120 26 660 411 142 469 
301 9 260 62 192 37 171 351 240 217 90 
302 9 259 554 591 292 336 210 126 204 211 
303 9 14 284 285 4 437 80 357 30 127 
304 9 66 159 334 244 353 174 653 280 327 
305 9 179 323 158 97 52 366 96 250 20 
306 8 650 360 369 476 220 275 469 141 
307 9 393 446 38 556 73 363 174 15 333 
308 9 81 48 149 219 282 641 72 339 352 
309 9 25 372 134 49 176 113 231 249 20 
310 8 364 270 133 288 51 150 418 614 
311 9 121 166 583 128 358 129 293 350 359 
312 7 480 115 542 180 568 76 529 
313 9 118 358 211 263 167 605 359 292 166 
314 9 86 3 114 245 84 40 11 31 228 
315 9 488 291 200 6 212 591 259 79 624 
316 4 256 421 163 160 
317 9 387 104 117 131 181 465 421 370 276 
318 6 525 477 479 124 10 586 
319 8 501 400 24 425 642 223 330 88 
320 4 444 141 600 626 
321 9 503 499 487 374 44 250 20 52 111 
322 9 242 64 83 2 195 22 162 109 90 
323 9 179 305 161 96 158 470 97 132 283 
324 7 239 208 177 268 176 136 235 
325 8 459 297 227 138 560 68 251 588 
326 8 247 137 537 492 516 68 658 569 
327 9 16 653 334 592 518 159 353 287 304 
328 9 146 222 198 162 90 240 148 377 373 
329 9 455 65 406 112 19 628 419 500 581 
330 8 580 425 467 216 24 100 319 501 
331 9 126 204 657 210 193 572 183 28 554 
332 6 347 427 92 652 298 587 
333 9 15 393 556 307 178 29 221 295 446 
334 9 353 304 518 66 327 8 592 653 389 
335 9 441 61 226 544 602 254 397 646 207 
336 9 554 210 193 259 302 183 591 126 204 
337 9 407 420 550 191 656 45 558 98 154 
338 8 495 594 494 648 7 629 424 380 
339 9 219 81 48 352 264 72 40 234 308 
340 4 522 45 186 416 
341 9 279 533 496 627 130 543 568 180 115 
342 6 548 434 296 390 221 8 
343 7 269 505 13 392 482 523 391 
344 9 125 395 577 588 17 615 621 570 93 
345 9 398 622 165 9 606 194 549 122 196 
346 8 56 275 232 574 590 585 142 581 
347 9 92 652 332 427 298 102 274 504 587 
348 9 588 227 17 344 125 516 454 658 577 
349 9 238 161 127 243 470 285 132 87 357 
350 9 41 293 121 311 129 549 122 606 166 
351 9 171 240 377 37 373 136 146 222 239 
352 9 48 339 219 81 199 354 264 308 23 
353 9 334 8 518 66 304 389 327 592 653 
354 9 23 80 30 152 352 48 282 277 71 
355 8 438 637 573 601 299 103 457 561 
356 9 153 107 375 83 59 109 85 22 242 
357 9 437 87 127 233 243 267 278 370 285 
358 9 211 166 311 313 121 359 583 118 129 
359 9 129 167 358 313 311 121 118 166 211 
360 8 306 476 369 469 650 28 220 660 
361 9 654 212 78 614 273 39 376 140 488 
362 9 564 63 478 453 201 617 619 464 108 
363 9 307 38 446 173 85 393 153 257 106 
364 8 270 310 418 252 386 51 471 218 
365 9 643 77 172 280 168 159 535 304 287 
366 9 188 97 158 67 402 145 96 493 305 
367 9 288 624 218 6 100 418 200 291 488 
368 7 576 123 409 553 575 396 95 
369 8 476 650 306 360 475 141 610 28 
370 9 278 465 267 233 117 131 276 317 87 
371 9 148 206 82 261 12 290 222 328 50 
372 9 134 309 49 25 176 20 250 52 113 
373 8 377 240 146 222 351 136 171 328 
374 8 20 250 52 49 321 176 372 134 
375 9 59 107 83 356 22 153 242 105 217 
376 9 273 140 508 128 293 122 212 606 361 
377 8 373 240 146 222 351 171 136 328 
378 3 617 63 391 
379 3 47 502 205 
380 8 594 495 494 338 629 7 424 659 
381 7 521 530 633 385 230 91 510 
382 5 440 461 481 65 265 
383 9 157 404 536 571 497 609 645 656 101 
384 7 75 531 246 486 448 412 399 
385 7 230 91 530 381 633 521 510 
386 8 252 484 209 224 270 51 364 417 
387 8 104 317 181 298 274 421 131 117 
388 7 512 258 103 457 527 5 430 
389 9 518 119 592 474 353 296 334 458 8 
390 9 611 434 110 548 640 237 394 567 94 
391 7 392 139 269 631 343 617 63 
392 6 269 391 343 505 482 139 
393 9 556 307 15 333 446 73 38 174 244 
394 9 94 449 410 664 611 490 567 390 462 
395 9 577 125 344 615 621 93 588 570 17 
396 7 578 626 576 368 123 442 517 
397 2 254 61 
398 9 345 622 549 606 122 508 165 41 9 
399 3 531 75 384 
400 9 501 642 319 88 223 445 506 184 24 
401 9 74 472 175 417 460 645 98 404 558 
402 9 67 145 188 299 366 493 163 97 158 
403 5 598 538 215 54 587 
404 9 157 383 645 536 656 571 497 74 550 
405 9 154 541 609 32 430 550 571 258 656 
406 9 65 112 265 419 19 435 455 440 463 
407 9 337 656 550 558 191 420 98 45 154 
408 8 526 620 429 511 95 563 625 575 
409 9 575 553 95 429 368 123 563 511 625 
410 8 237 94 462 611 394 380 110 390 
411 8 142 120 241 220 660 469 275 306 
412 3 246 531 75 
413 3 546 88 510 
414 5 651 151 431 448 428 
415 9 295 281 664 490 449 509 178 29 567 
416 7 498 271 289 186 522 69 340 
417 9 175 472 401 74 98 649 460 558 645 
418 8 218 471 364 649 367 270 288 55 
419 9 19 112 581 463 406 585 455 435 574 
420 9 191 337 45 407 55 558 98 656 550 
421 8 256 160 131 276 316 117 317 465 
422 8 182 483 555 33 436 477 272 99 
423 7 619 478 545 187 617 378 150 
424 9 629 7 495 659 338 655 594 662 380 
425 8 330 580 24 467 319 216 100 501 
426 5 480 312 115 279 496 
427 6 332 298 347 92 652 587 
428 9 557 151 644 10 414 431 586 479 651 
429 9 95 563 511 575 409 408 553 625 620 
430 8 32 258 541 405 154 388 593 609 
431 7 151 644 414 557 586 448 651 
432 6 42 584 93 621 528 596 
433 9 552 101 497 551 536 89 157 383 647 
434 9 390 567 611 509 548 281 394 110 94 
435 6 463 265 406 419 590 112 
436 9 99 272 33 630 255 483 555 182 579 
437 9 357 87 127 243 233 267 284 285 278 
438 9 637 103 355 5 527 618 457 512 601 
439 8 655 451 424 7 629 495 659 662 
440 5 382 265 65 406 461 
441 9 335 226 61 602 515 544 207 254 646 
442 5 607 639 626 540 123 
443 5 589 262 648 451 13 
444 4 141 320 600 626 
445 7 223 546 88 400 501 642 413 
446 9 38 73 307 174 556 393 280 244 363 
447 9 566 608 266 519 612 466 595 156 552 
448 6 384 246 486 75 651 531 
449 8 490 664 394 94 281 415 567 295 
450 6 456 638 253 76 468 514 
451 7 648 338 495 7 443 494 594 
452 9 539 253 514 456 144 529 76 180 450 
453 6 108 464 564 379 47 42 
454 9 262 17 589 658 516 348 13 443 492 
455 9 112 19 329 419 406 581 65 585 628 
456 7 450 253 514 76 452 638 529 
457 7 512 637 103 601 388 438 527 
458 9 214 119 491 592 474 518 389 16 327 
459 8 325 297 227 138 560 588 348 68 
460 9 74 401 472 175 417 645 551 101 224 
461 6 481 382 440 65 265 406 
462 8 380 410 659 662 94 629 424 594 
463 8 435 590 419 265 581 19 574 112 
464 8 108 453 42 528 564 432 584 93 
465 9 117 370 278 131 267 276 233 317 160 
466 8 595 612 520 507 89 647 552 593 
467 7 580 216 330 425 24 100 319 
468 4 638 542 76 450 
469 8 660 220 120 26 360 411 241 306 
470 9 161 349 238 283 323 179 243 132 127 
471 8 418 649 55 218 364 417 175 191 
472 9 175 401 417 74 98 460 645 558 649 
473 7 635 662 462 659 449 94 490 
474 9 119 389 458 491 592 214 518 485 187 
475 8 610 517 197 578 369 396 35 141 
476 8 369 28 360 572 306 650 35 610 
477 4 318 525 124 422 
478 9 619 362 63 201 423 545 534 564 636 
479 7 586 10 644 557 151 428 318 
480 7 312 115 426 542 180 568 496 
481 6 461 382 440 65 547 540 
482 6 523 505 343 640 597 110 
483 8 182 422 555 436 33 272 99 144 
484 8 209 224 386 252 51 270 491 18 
485 3 187 474 18 
486 4 384 75 531 448 
487 9 503 44 321 111 499 27 36 661 145 
488 9 6 315 200 291 288 212 361 624 367 
489 9 636 286 534 39 524 53 201 78 502 
490 9 449 664 394 281 94 415 295 567 509 
491 9 214 458 474 209 224 484 119 18 386 
492 8 516 658 137 537 326 348 247 454 
493 9 613 163 160 97 188 276 158 402 96 
494 8 594 338 648 495 380 7 629 424 
495 9 7 629 338 424 594 494 380 648 659 
496 9 279 568 180 115 130 341 529 312 480 
497 9 383 571 157 433 536 89 552 647 609 
498 7 416 271 289 186 663 69 522 
499 9 147 111 321 503 235 487 44 513 208 
500 9 628 329 455 112 19 65 406 419 581 
501 9 400 319 642 223 88 24 445 425 184 
502 7 47 53 524 379 205 286 201 
503 9 487 44 321 499 111 27 145 36 67 
504 9 225 54 215 538 587 403 598 58 92 
505 7 343 482 269 523 392 13 597 
506 9 184 642 582 69 289 88 271 498 400 
507 9 647 89 466 595 520 612 497 571 552 
508 9 122 606 549 293 376 398 622 140 273 
509 9 281 567 29 295 664 434 415 490 449 
510 7 633 521 530 91 381 385 230 
511 8 563 429 95 408 526 575 409 553 
512 5 457 388 103 637 601 
513 9 170 616 203 111 147 156 12 235 50 
514 6 452 456 253 539 450 144 
515 7 207 441 226 599 646 335 61 
516 8 658 492 537 137 454 348 262 589 
517 7 197 610 475 35 578 396 602 
518 9 592 389 119 334 353 327 16 474 458 
519 9 608 616 566 266 156 203 447 535 170 
520 8 595 466 612 507 89 647 593 623 
521 7 633 530 381 510 91 385 230 
522 7 186 45 340 289 416 69 498 
523 7 597 482 505 110 640 343 237 
524 9 53 286 502 489 47 534 636 39 201 
525 6 318 477 124 479 10 586 
526 6 408 511 563 429 95 620 
527 9 5 618 103 388 438 593 637 258 457 
528 9 93 615 570 562 432 621 464 42 395 
529 9 180 568 253 76 115 452 496 456 539 
530 7 633 521 381 91 385 230 510 
531 6 75 384 246 399 412 486 
532 6 599 646 207 603 254 61 
533 9 543 341 627 279 604 130 496 225 58 
534 9 636 201 489 524 286 53 39 502 47 
535 9 77 643 168 287 365 608 566 519 172 
536 9 157 383 404 101 497 645 551 433 571 
537 9 137 492 516 658 326 68 348 247 227 
538 6 403 598 54 215 587 504 
539 9 452 144 514 253 529 130 555 456 579 
540 8 639 625 607 620 442 123 547 408 
541 9 405 32 154 430 609 258 571 550 656 
542 5 468 312 76 480 115 
543 8 533 627 341 225 58 135 604 279 
544 5 602 335 61 397 441 
545 9 150 619 636 423 478 534 133 201 489 
546 5 445 413 223 426 88 
547 8 620 408 625 540 526 639 429 95 
548 6 640 390 342 434 110 611 
549 9 606 122 508 398 622 41 293 345 350 
550 9 656 407 154 337 405 609 571 404 383 
551 9 101 433 536 552 497 157 383 404 645 
552 9 433 89 497 101 647 551 507 536 383 
553 7 575 409 95 368 429 563 123 
554 9 336 302 259 210 292 591 126 193 204 
555 9 144 483 579 272 539 422 436 182 99 
556 9 393 15 73 446 174 307 244 38 333 
557 9 644 428 151 10 586 479 431 414 651 
558 9 98 191 407 55 337 656 420 175 550 
559 5 205 53 502 47 524 
560 2 577 125 
561 7 601 294 116 213 185 663 457 
562 9 570 615 528 93 395 125 17 631 344 
563 8 511 429 95 575 408 409 553 526 
564 9 362 63 453 464 108 478 631 201 391 
565 9 604 46 236 255 272 579 99 627 229 
566 9 608 447 519 287 266 535 77 156 203 
567 9 509 281 434 29 664 394 449 390 490 
568 9 180 496 115 529 279 130 312 76 253 
569 9 68 202 251 537 137 297 325 326 247 
570 9 562 615 528 93 395 125 577 344 621 
571 9 609 383 497 157 154 405 647 404 536 
572 9 28 476 657 35 331 360 369 610 226 
573 5 355 163 299 601 316 
574 9 585 590 581 463 419 19 112 232 435 
575 8 409 553 95 429 563 511 368 123 
576 6 368 396 553 409 578 123 
577 7 395 125 344 621 588 93 615 
578 8 396 626 576 368 442 475 123 517 
579 9 46 144 555 272 130 565 99 539 604 
580 7 467 330 216 425 24 100 319 
581 9 19 585 419 574 112 463 590 455 435 
582 9 69 184 289 506 186 642 416 498 522 
583 9 166 128 311 121 358 211 293 140 79 
584 4 596 42 432 108 
585 9 581 574 19 419 590 463 112 232 455 
586 7 479 644 557 10 151 431 428 
587 7 54 538 403 598 427 215 332 
588 8 344 348 125 17 577 395 227 560 
589 5 262 443 13 454 451 
590 8 574 463 581 585 435 419 19 112 
591 9 259 302 554 292 79 336 211 315 210 
592 9 518 119 389 16 458 327 214 474 334 
593 8 32 258 430 527 5 618 507 520 
594 8 494 338 495 380 648 7 629 424 
595 8 466 520 612 507 89 647 552 593 
596 2 584 42 
597 5 523 482 237 494 110 
598 5 403 538 215 54 587 
599 6 646 532 207 254 603 61 
600 7 141 444 320 650 275 369 306 
601 8 561 637 457 355 512 103 438 116 
602 7 544 335 226 35 441 197 517 
603 6 254 646 532 599 397 61 
604 9 565 627 46 579 236 533 130 272 543 
605 9 263 143 118 313 26 292 167 21 211 
606 8 549 122 508 398 622 345 293 41 
607 5 442 639 540 123 625 
608 9 566 447 519 287 535 266 77 156 643 
609 9 571 154 405 541 383 550 497 157 656 
610 8 197 517 475 35 369 602 476 578 
611 8 390 110 237 410 394 94 434 640 
612 8 466 595 520 507 89 647 552 447 
613 9 493 276 160 248 163 131 421 256 117 
614 9 78 654 133 39 361 489 150 636 286 
615 9 570 562 528 93 395 621 577 125 344 
616 9 203 170 156 519 513 50 266 566 608 
617 6 378 63 391 362 619 423 
618 9 5 527 103 438 661 593 190 388 36 
619 8 423 478 545 63 617 362 150 201 
620 9 625 408 540 547 429 95 526 639 511 
621 7 93 577 395 432 615 528 125 
622 8 345 398 606 549 122 9 165 508 
623 8 190 27 36 661 520 595 466 612 
624 9 367 200 291 288 100 6 315 488 218 
625 9 620 540 639 123 429 95 408 409 575 
626 7 578 396 442 607 320 123 368 
627 9 604 533 543 341 46 565 130 279 135 
628 9 500 329 455 19 112 419 581 406 585 
629 9 7 424 495 338 594 659 380 655 662 
630 9 255 99 436 236 272 33 565 229 483 
631 9 139 391 562 570 564 269 615 528 392 
632 9 11 124 182 33 422 483 525 436 477 
633 7 530 521 381 91 510 385 230 
634 2 194 9 
635 7 473 662 462 659 449 490 94 
636 9 489 534 39 286 201 524 53 78 545 
637 9 457 103 438 601 355 512 5 527 388 
638 4 450 468 456 76 
639 8 540 607 625 442 123 620 368 409 
640 8 110 482 237 548 523 611 390 597 
641 9 72 149 81 219 308 84 339 31 48 
642 9 400 88 501 506 184 319 223 445 582 
643 9 77 365 535 168 172 159 280 287 653 
644 8 557 151 428 586 479 10 431 414 
645 9 404 74 536 157 401 383 98 472 175 
646 6 599 532 207 254 603 61 
647 9 507 89 497 571 466 552 595 609 612 
648 7 494 338 594 495 7 380 629 
649 8 55 471 417 175 98 558 191 472 
650 8 306 369 141 600 360 275 476 444 
651 4 414 448 431 151 
652 9 92 347 332 427 102 298 274 504 587 
653 9 327 159 16 287 334 304 77 66 353 
654 9 78 361 39 614 286 489 212 524 636 
655 9 424 7 629 495 659 662 338 594 380 
656 9 550 407 337 404 558 154 609 157 383 
657 9 331 204 28 572 126 143 360 476 210 
658 8 516 492 537 454 137 348 262 589 
659 9 662 424 629 7 380 462 495 655 594 
660 8 220 120 469 411 241 142 26 360 
661 8 36 190 27 623 618 5 527 593 
662 9 659 424 629 7 462 380 655 495 594 
663 6 271 116 498 416 230 294 
664 9 449 490 281 394 94 415 567 295 509 
DEPOT_SECTION
   1
   -1
EOF
