NAME :  X-n837-kX-w83-c7.cctp
COMMENT : 	Adapted by Maziero, Usberti and Cavellucci from the Uchoa, Pecin, Pessoa, Poggi, Subramanian, and Vidal (2013)
TYPE :  CCTP
DIMENSION :    407
EDGE_WEIGHT_TYPE : 	EUC_2D	
CAPACITY : 	44
VERTICES_WITHIN_COVERAGE :  7
VERTICES_WITH_DEMAND : 	83
NODE_COORD_SECTION
1 940 231
2 721 848
3 618 44
4 993 145
5 636 512
6 274 496
7 245 945
8 449 812
9 29 650
10 399 8
11 548 19
12 769 717
13 221 850
14 980 233
15 477 922
16 498 720
17 136 832
18 351 663
19 58 67
20 889 569
21 28 334
22 804 928
23 900 138
24 393 403
25 982 609
26 79 299
27 684 582
28 169 252
29 405 925
30 875 191
31 674 112
32 576 537
33 539 63
34 338 657
35 210 209
36 676 568
37 949 826
38 572 890
39 210 615
40 737 46
41 30 527
42 131 724
43 671 842
44 727 566
45 507 497
46 524 134
47 167 665
48 819 108
49 929 582
50 713 738
51 352 626
52 887 547
53 176 645
54 611 289
55 457 532
56 11 147
57 958 60
58 587 187
59 790 956
60 974 63
61 306 225
62 961 969
63 238 736
64 758 840
65 88 44
66 507 811
67 768 476
68 51 914
69 494 445
70 953 33
71 922 45
72 748 111
73 544 867
74 477 596
75 322 79
76 439 150
77 586 764
78 214 599
79 168 480
80 925 138
81 797 107
82 751 783
83 738 913
84 703 73
85 681 886
86 627 27
87 834 858
88 477 559
89 542 94
90 370 432
91 666 178
92 631 484
93 820 918
94 687 877
95 752 983
96 157 720
97 709 898
98 728 617
99 66 59
100 991 657
101 717 47
102 69 560
103 115 806
104 500 152
105 277 601
106 962 575
107 588 181
108 108 931
109 209 800
110 129 525
111 97 324
112 495 122
113 759 480
114 780 669
115 786 769
116 759 159
117 282 633
118 957 103
119 711 939
120 544 544
121 27 318
122 539 783
123 824 841
124 833 988
125 16 637
126 41 388
127 623 780
128 660 155
129 946 783
130 607 815
131 658 874
132 527 853
133 459 577
134 937 639
135 421 999
136 469 163
137 509 61
138 488 408
139 510 460
140 342 691
141 787 465
142 700 873
143 659 568
144 478 525
145 988 980
146 28 661
147 724 842
148 2 660
149 210 180
150 843 9
151 265 453
152 209 673
153 20 952
154 138 655
155 769 741
156 401 625
157 192 520
158 449 679
159 579 295
160 837 944
161 797 97
162 440 877
163 407 621
164 550 241
165 253 243
166 642 116
167 997 660
168 14 98
169 774 9
170 791 671
171 761 886
172 501 846
173 731 4
174 337 71
175 106 973
176 978 669
177 884 559
178 10 910
179 390 602
180 451 134
181 324 221
182 672 867
183 584 520
184 193 416
185 954 912
186 761 734
187 192 875
188 88 353
189 777 38
190 98 68
191 824 694
192 238 825
193 357 593
194 939 69
195 566 830
196 371 935
197 840 180
198 970 249
199 975 291
200 192 630
201 560 724
202 310 503
203 506 445
204 720 806
205 259 450
206 388 967
207 399 787
208 11 859
209 721 451
210 3 300
211 983 902
212 984 221
213 514 801
214 887 476
215 552 923
216 803 145
217 974 602
218 316 566
219 653 3
220 239 470
221 434 39
222 420 378
223 805 572
224 769 874
225 38 852
226 105 958
227 504 740
228 62 24
229 360 375
230 484 955
231 481 777
232 277 225
233 504 527
234 242 931
235 801 74
236 538 483
237 244 834
238 115 811
239 37 611
240 30 147
241 109 856
242 34 512
243 937 779
244 840 77
245 470 783
246 890 127
247 719 972
248 119 237
249 199 550
250 221 723
251 613 950
252 357 566
253 582 795
254 815 464
255 329 481
256 778 769
257 960 581
258 869 582
259 762 952
260 279 754
261 152 677
262 262 932
263 322 73
264 392 609
265 598 496
266 519 923
267 326 102
268 469 593
269 764 469
270 595 304
271 552 544
272 82 52
273 451 579
274 64 69
275 483 514
276 497 64
277 248 949
278 375 378
279 366 0
280 573 528
281 120 742
282 538 87
283 654 479
284 195 998
285 115 52
286 274 243
287 556 888
288 324 50
289 430 128
290 207 933
291 468 125
292 175 709
293 162 859
294 51 47
295 442 125
296 464 616
297 127 21
298 79 85
299 164 732
300 340 363
301 414 154
302 77 257
303 410 533
304 461 585
305 150 224
306 241 697
307 395 26
308 136 5
309 507 75
310 398 622
311 305 69
312 751 566
313 249 494
314 209 637
315 246 922
316 245 939
317 780 618
318 22 4
319 436 370
320 171 660
321 764 567
322 594 247
323 255 840
324 495 395
325 378 926
326 723 669
327 213 165
328 455 745
329 515 475
330 186 643
331 443 30
332 634 512
333 460 151
334 327 83
335 213 657
336 597 751
337 102 914
338 603 302
339 561 541
340 424 174
341 542 198
342 276 191
343 59 564
344 512 898
345 375 11
346 482 548
347 137 621
348 155 793
349 205 733
350 554 130
351 599 693
352 365 919
353 34 929
354 178 253
355 55 99
356 519 123
357 346 372
358 55 79
359 470 430
360 121 716
361 46 87
362 388 31
363 627 292
364 105 831
365 196 879
366 182 429
367 461 727
368 611 551
369 250 928
370 116 708
371 593 306
372 251 203
373 549 148
374 99 354
375 599 697
376 197 184
377 240 583
378 684 693
379 269 748
380 646 519
381 268 693
382 61 608
383 658 591
384 312 448
385 539 169
386 18 18
387 248 946
388 565 83
389 518 10
390 64 665
391 219 644
392 637 463
393 415 133
394 747 120
395 591 776
396 375 17
397 496 587
398 332 242
399 236 921
400 439 545
401 526 747
402 202 580
403 238 966
404 163 299
405 264 956
406 667 557
407 266 960
DEMAND_SECTION
2 7
3 9
4 6
5 7
6 6
7 8
8 9
9 5
10 8
11 10
12 7
13 5
14 7
15 10
16 6
17 5
18 5
19 7
20 6
21 10
22 8
23 10
24 9
25 6
26 10
27 10
28 10
29 10
30 5
31 7
32 8
33 9
34 5
35 7
36 10
37 9
38 6
39 7
40 6
41 7
42 7
43 9
44 6
45 8
46 6
47 5
48 7
49 6
50 7
51 6
52 10
53 6
54 7
55 6
56 7
57 5
58 6
59 9
60 7
61 7
62 8
63 9
64 10
65 10
66 8
67 8
68 5
69 9
70 9
71 10
72 9
73 7
74 10
75 5
76 5
77 10
78 8
79 8
80 10
81 6
82 6
83 8
84 8
COVERAGE_SECTION
2 7 147 142 64 204 94 43 97 
3 5 86 219 388 11 166 
4 7 118 80 212 60 14 57 23 
5 7 332 380 92 283 265 368 392 
6 7 313 202 151 220 205 255 384 
7 7 387 277 316 234 369 262 403 
8 7 245 231 207 66 172 162 213 
9 6 146 125 148 390 239 382 
10 6 307 345 362 396 279 221 
11 7 389 33 137 388 276 282 309 
12 7 186 155 114 170 256 115 50 
13 5 237 192 323 187 365 
14 4 212 198 199 4 
15 7 230 266 344 162 29 215 172 
16 5 227 367 401 328 231 
17 5 238 364 103 241 293 
18 5 34 140 51 310 156 
19 7 274 99 358 294 361 272 298 
20 7 177 52 258 49 257 106 223 
21 7 121 210 126 26 188 111 374 
22 7 93 59 160 259 171 224 124 
23 7 246 80 30 118 197 194 48 
24 7 278 90 222 229 319 357 300 
25 7 217 257 106 100 167 134 49 
26 6 111 302 121 188 374 21 
27 6 36 383 143 406 44 98 
28 5 354 305 404 248 35 
29 5 325 196 352 206 162 
30 5 197 23 246 80 216 
31 6 166 128 84 91 394 72 
32 6 280 339 183 271 120 368 
33 6 282 137 89 388 309 276 
34 6 18 51 140 117 193 310 
35 6 376 149 372 327 354 165 
36 6 406 27 143 383 44 380 
37 4 129 243 211 185 
38 7 287 73 215 132 195 344 266 
39 7 78 314 200 391 402 330 335 
40 7 101 189 173 84 169 72 235 
41 3 242 343 102 
42 5 360 281 370 96 299 
43 7 182 131 94 142 85 2 147 
44 7 312 321 27 36 98 406 143 
45 6 329 275 233 236 139 144 
46 6 356 373 104 350 112 385 
47 5 320 261 53 330 154 
48 7 81 161 244 235 216 72 246 
49 7 257 106 20 217 177 52 134 
50 7 186 378 155 82 12 204 326 
51 7 193 34 18 264 179 310 156 
52 7 177 20 258 49 214 106 257 
53 7 330 320 47 200 314 154 335 
54 6 338 363 270 371 159 322 
55 7 144 400 346 275 88 133 233 
56 4 240 168 355 361 
57 7 60 194 70 71 118 80 4 
58 5 107 341 385 373 322 
59 7 259 22 95 93 160 124 83 
60 7 57 194 70 118 71 4 80 
61 4 181 232 398 286 
62 7 145 185 211 160 124 37 93 
63 6 250 349 379 306 260 381 
64 7 147 224 2 171 204 82 123 
65 6 272 190 99 285 228 274 
66 7 213 172 122 231 245 132 8 
67 5 269 113 141 254 209 
68 6 353 178 153 337 108 225 
69 5 203 139 359 138 329 
70 7 57 71 60 194 118 80 150 
71 7 194 70 57 60 118 150 244 
72 7 394 81 116 161 84 216 235 
73 7 132 287 38 195 344 172 215 
74 7 268 304 397 296 133 273 88 
75 5 263 334 174 311 267 
76 7 180 333 289 295 301 340 393 
77 7 395 336 253 127 201 122 130 
78 7 39 402 377 200 314 391 249 
79 4 157 366 110 184 
80 7 23 246 118 4 194 30 57 
81 7 161 48 235 216 72 244 394 
82 7 256 115 204 155 186 64 50 
83 7 97 171 119 259 224 142 94 
84 7 101 40 31 72 394 173 166 
85 7 94 182 142 131 97 43 2 
86 7 3 219 11 388 84 166 101 
87 5 123 93 224 22 64 
88 7 346 133 304 273 55 144 397 
89 4 282 388 33 356 
90 6 24 278 229 384 255 357 
91 3 128 31 166 
92 5 392 283 5 332 265 
93 7 22 160 59 87 171 224 259 
94 7 85 142 182 131 97 43 2 
95 7 259 247 59 119 83 22 124 
96 4 299 292 42 360 
97 7 142 85 94 83 119 182 2 
98 6 44 317 326 27 312 321 
99 7 274 19 272 294 358 65 298 
100 7 167 176 25 134 217 257 106 
101 7 40 84 173 189 169 72 31 
102 3 343 382 41 
103 3 238 364 17 
104 3 46 112 136 
105 6 117 377 218 78 39 391 
106 7 257 217 49 25 134 20 52 
107 5 58 341 385 373 350 
108 4 337 226 175 68 
109 4 192 237 13 348 
110 1 79 
111 6 188 374 26 21 121 302 
112 4 356 291 104 46 
113 6 67 269 141 209 254 312 
114 5 170 12 191 317 326 
115 5 256 155 82 186 12 
116 6 394 216 72 81 161 48 
117 5 105 34 381 391 377 
118 7 194 57 60 80 4 23 71 
119 7 247 83 97 259 95 85 94 
120 3 271 339 32 
121 6 21 210 26 111 188 126 
122 7 213 401 66 253 77 395 195 
123 3 87 224 64 
124 7 160 59 22 93 259 95 247 
125 6 9 146 148 239 382 390 
126 3 21 188 374 
127 6 395 130 336 77 253 195 
128 4 91 166 31 107 
129 2 243 37 
130 7 253 127 395 195 77 336 43 
131 7 182 85 94 43 142 97 2 
132 7 73 172 195 287 66 344 213 
133 7 273 304 268 88 74 346 397 
134 6 176 217 25 100 49 257 
135 5 206 29 230 196 325 
136 2 333 76 
137 5 276 309 33 282 89 
138 4 324 359 69 203 
139 4 203 329 69 236 
140 2 18 34 
141 4 67 269 254 113 
142 7 94 85 97 182 2 147 43 
143 6 406 36 383 27 368 380 
144 6 275 55 346 233 88 45 
145 7 62 185 211 124 160 37 93 
146 5 9 148 125 390 239 
147 7 2 64 204 142 94 43 224 
148 5 146 125 9 239 390 
149 4 376 327 35 372 
150 7 244 169 189 235 71 161 48 
151 7 205 220 6 313 384 202 255 
152 7 335 391 314 330 306 320 47 
153 7 353 178 68 226 175 108 337 
154 2 261 47 
155 7 186 12 256 115 82 50 191 
156 6 310 163 264 179 51 193 
157 5 249 79 402 110 313 
158 3 367 16 296 
159 4 270 371 338 54 
160 7 93 22 124 59 259 87 95 
161 7 81 235 48 244 216 72 394 
162 6 15 29 8 172 344 325 
163 6 156 310 264 179 51 193 
164 4 322 341 159 58 
165 6 286 232 372 35 61 342 
166 4 31 128 91 84 
167 6 100 176 25 217 134 257 
168 6 361 355 358 56 240 19 
169 7 189 173 40 101 150 235 161 
170 5 114 191 12 317 326 
171 7 224 83 64 97 2 147 22 
172 7 132 66 213 73 344 8 195 
173 7 40 169 101 189 84 219 235 
174 4 263 334 75 288 
175 4 226 108 337 68 
176 5 100 167 134 25 217 
177 7 20 52 258 49 257 106 223 
178 5 353 68 153 208 225 
179 6 264 310 156 163 193 51 
180 5 295 291 333 76 289 
181 2 61 398 
182 7 131 94 85 43 142 97 2 
183 6 280 32 265 339 271 368 
184 2 366 79 
185 7 211 62 145 37 160 129 87 
186 7 155 12 256 115 50 82 114 
187 3 365 293 13 
188 5 374 111 26 126 21 
189 7 169 40 235 173 101 161 81 
190 4 272 285 298 65 
191 3 170 114 12 
192 4 237 323 13 109 
193 6 252 51 179 264 218 310 
194 7 57 71 60 118 70 80 246 
195 7 253 73 130 132 122 287 38 
196 4 325 352 29 206 
197 7 30 216 23 246 48 116 81 
198 3 14 212 199 
199 3 198 14 212 
200 7 330 314 53 39 391 335 320 
201 7 401 336 375 77 351 227 395 
202 6 255 6 384 313 218 151 
203 4 69 139 329 359 
204 7 147 82 2 64 43 50 256 
205 6 151 220 313 6 384 184 
206 4 196 325 29 135 
207 3 8 328 245 
208 4 225 178 68 353 
209 4 269 113 67 141 
210 3 121 21 26 
211 6 185 62 145 37 129 243 
212 5 14 198 199 4 80 
213 7 66 122 231 172 245 132 401 
214 2 52 254 
215 7 266 287 38 344 73 251 132 
216 7 81 48 116 161 197 394 72 
217 7 25 257 106 49 134 100 167 
218 6 252 193 105 202 51 117 
219 7 86 3 101 173 84 40 11 
220 7 313 205 151 6 157 366 184 
221 4 331 307 10 362 
222 4 319 24 278 229 
223 7 321 317 312 258 44 177 20 
224 7 171 64 83 2 147 22 123 
225 3 208 68 178 
226 4 175 108 337 68 
227 7 16 401 231 367 328 122 245 
228 7 294 65 272 99 19 386 274 
229 5 357 278 300 24 90 
230 7 15 266 344 215 135 29 162 
231 7 245 213 328 66 227 8 367 
232 6 286 61 165 342 372 181 
233 4 275 144 45 346 
234 7 316 369 315 399 7 387 277 
235 7 161 81 48 244 189 72 40 
236 3 329 45 139 
237 3 192 323 13 
238 3 103 364 17 
239 5 382 125 9 146 343 
240 4 56 168 355 361 
241 5 364 17 238 103 293 
242 3 41 343 102 
243 2 129 37 
244 7 48 235 161 81 150 246 189 
245 6 231 8 328 66 213 227 
246 7 23 80 30 118 244 48 197 
247 7 119 95 259 83 59 97 85 
248 3 305 302 28 
249 5 402 157 78 377 39 
250 7 349 63 306 292 152 379 381 
251 7 215 38 287 131 85 266 119 
252 5 193 218 179 264 51 
253 7 395 77 130 195 127 122 336 
254 4 141 67 269 113 
255 5 202 384 6 90 151 
256 6 115 155 82 186 12 204 
257 7 106 217 49 25 134 20 177 
258 6 20 177 52 49 223 134 
259 7 59 95 83 247 22 119 171 
260 2 379 63 
261 3 47 320 154 
262 7 369 316 315 234 387 7 277 
263 6 75 334 174 311 288 267 
264 6 179 310 156 163 193 51 
265 4 183 92 332 5 
266 7 344 215 15 230 287 73 38 
267 2 334 75 
268 7 74 304 133 273 296 397 88 
269 5 67 113 141 209 254 
270 5 371 338 159 54 363 
271 4 120 339 32 280 
272 6 65 99 190 274 19 294 
273 7 133 304 268 74 88 400 296 
274 7 19 99 358 298 272 361 294 
275 6 144 233 45 55 346 88 
276 4 137 309 33 282 
277 7 387 7 316 405 234 403 369 
278 5 229 357 24 300 222 
279 4 345 396 10 362 
280 7 32 183 339 271 120 265 368 
281 2 42 360 
282 4 89 33 388 309 
283 5 392 92 5 332 380 
284 6 403 290 277 7 387 316 
285 2 190 65 
286 5 232 165 61 372 342 
287 7 38 73 215 132 344 266 195 
288 4 263 174 311 75 
289 5 295 393 180 76 301 
290 4 399 234 316 7 
291 5 180 295 112 333 76 
292 6 96 299 349 261 47 42 
293 5 187 17 365 241 13 
294 7 99 19 228 274 272 358 65 
295 5 289 180 76 291 393 
296 6 74 268 304 133 273 397 
297 4 308 285 65 190 
298 5 274 190 358 19 355 
299 6 96 292 42 349 281 360 
300 4 357 229 278 24 
301 4 393 340 76 289 
302 2 26 248 
303 4 400 55 252 273 
304 7 133 268 273 74 88 296 397 
305 3 28 248 354 
306 5 381 250 63 152 335 
307 4 362 10 396 345 
308 3 297 285 65 
309 5 137 276 282 33 89 
310 6 156 163 264 179 51 193 
311 3 263 75 334 
312 7 321 44 223 98 317 27 36 
313 7 6 220 151 205 202 157 249 
314 7 391 200 335 39 330 53 152 
315 6 369 234 399 316 262 7 
316 7 7 387 234 277 369 315 262 
317 7 114 98 223 321 170 312 44 
318 7 386 228 294 99 19 65 272 
319 2 222 24 
320 7 47 53 330 261 154 200 152 
321 7 312 44 223 317 98 27 113 
322 7 164 54 159 338 363 270 371 
323 3 237 192 13 
324 4 138 359 69 203 
325 4 196 352 29 206 
326 4 378 98 114 12 
327 3 149 376 35 
328 5 367 231 245 227 16 
329 5 139 45 236 203 69 
330 7 53 200 320 314 47 335 391 
331 3 221 307 10 
332 7 5 380 92 265 283 368 392 
333 4 136 180 76 291 
334 5 75 263 174 267 311 
335 7 391 152 314 330 200 53 39 
336 7 77 395 127 201 253 375 351 
337 4 108 226 68 241 
338 5 270 371 54 159 363 
339 5 271 32 120 280 183 
340 2 301 76 
341 5 385 164 58 107 373 
342 3 372 232 61 
343 3 102 382 41 
344 7 266 15 73 287 132 215 172 
345 5 396 279 10 362 307 
346 5 88 144 55 233 275 
347 3 154 53 320 
348 2 103 17 
349 6 250 63 292 299 96 306 
350 4 373 46 356 89 
351 4 375 201 336 77 
352 3 325 196 29 
353 7 68 153 178 337 108 208 225 
354 5 28 305 404 35 248 
355 6 361 358 298 274 19 99 
356 5 46 112 104 350 89 
357 5 300 229 278 24 90 
358 6 19 361 274 355 99 298 
359 5 69 138 203 324 139 
360 3 370 42 281 
361 6 358 355 19 274 298 99 
362 4 307 396 345 10 
363 5 54 338 270 371 159 
364 4 238 241 103 17 
365 3 187 13 293 
366 2 184 79 
367 4 328 16 227 158 
368 6 32 183 280 332 5 380 
369 7 315 234 316 262 399 7 387 
370 2 360 42 
371 5 270 338 159 54 363 
372 6 342 232 165 35 286 149 
373 5 350 385 46 356 104 
374 4 188 111 26 126 
375 4 351 201 336 77 
376 4 149 327 35 372 
377 7 78 402 105 39 249 314 117 
378 2 326 50 
379 4 260 63 250 381 
380 7 5 332 92 283 406 368 143 
381 4 306 63 379 250 
382 4 239 343 102 9 
383 4 143 27 36 406 
384 7 255 151 205 202 90 6 220 
385 5 373 341 46 350 104 
386 7 318 228 294 19 99 274 358 
387 7 7 277 316 234 369 405 262 
388 4 89 282 33 350 
389 6 11 137 33 276 309 331 
390 2 146 9 
391 7 314 335 39 200 152 330 53 
392 3 92 283 5 
393 4 289 301 295 76 
394 7 72 116 81 161 216 84 235 
395 7 77 253 336 127 130 122 195 
396 5 345 279 362 307 10 
397 3 74 268 88 
398 2 181 61 
399 5 315 234 369 316 7 
400 7 55 303 273 133 88 346 144 
401 7 227 122 16 201 231 213 77 
402 7 78 249 39 377 200 314 157 
403 7 277 7 387 316 405 407 234 
404 4 28 354 111 248 
405 6 407 277 387 7 262 316 
406 6 36 143 27 383 380 5 
407 6 405 277 387 7 262 403 
DEPOT_SECTION
   1
   -1
EOF
