NAME :  X-n819-kX-w81-c9.cctp
COMMENT : 	Adapted by Maziero, Usberti and Cavellucci from the Uchoa, Pecin, Pessoa, Poggi, Subramanian, and Vidal (2013)
TYPE :  CCTP
DIMENSION :    524
EDGE_WEIGHT_TYPE : 	EUC_2D	
CAPACITY : 	358
VERTICES_WITHIN_COVERAGE :  9
VERTICES_WITH_DEMAND : 	81
NODE_COORD_SECTION
1 500 500
2 174 325
3 49 34
4 543 815
5 42 920
6 545 80
7 681 950
8 664 944
9 61 68
10 609 259
11 116 500
12 482 911
13 708 930
14 93 57
15 642 940
16 487 619
17 511 63
18 330 52
19 529 831
20 586 862
21 503 839
22 713 994
23 28 939
24 9 111
25 203 347
26 31 115
27 414 352
28 521 982
29 121 304
30 600 26
31 506 772
32 624 39
33 205 328
34 218 104
35 22 959
36 657 188
37 72 978
38 434 815
39 487 107
40 22 987
41 599 870
42 201 402
43 726 961
44 51 7
45 35 922
46 182 331
47 577 233
48 672 906
49 485 852
50 543 849
51 574 991
52 120 166
53 592 877
54 422 762
55 26 695
56 52 953
57 673 848
58 66 393
59 165 162
60 824 928
61 462 135
62 520 759
63 25 807
64 483 808
65 600 549
66 196 76
67 420 719
68 348 480
69 531 837
70 157 347
71 273 259
72 526 18
73 373 29
74 39 211
75 398 49
76 451 211
77 693 949
78 518 106
79 451 981
80 629 687
81 731 830
82 599 866
83 102 404
84 481 771
85 601 864
86 467 217
87 62 8
88 532 256
89 57 914
90 640 193
91 502 823
92 197 59
93 4 824
94 439 838
95 543 808
96 51 34
97 94 672
98 55 46
99 420 46
100 186 414
101 482 816
102 11 840
103 537 858
104 703 953
105 485 54
106 74 352
107 496 834
108 660 886
109 650 963
110 446 971
111 193 372
112 752 955
113 511 904
114 411 5
115 53 168
116 495 777
117 201 317
118 531 985
119 654 903
120 634 953
121 612 71
122 334 119
123 35 956
124 593 840
125 113 88
126 23 813
127 49 38
128 162 152
129 297 479
130 627 78
131 559 818
132 79 48
133 711 905
134 509 839
135 693 913
136 347 325
137 95 965
138 29 145
139 674 900
140 418 225
141 501 68
142 546 820
143 683 948
144 571 205
145 193 375
146 553 9
147 672 129
148 908 170
149 654 893
150 514 130
151 459 856
152 467 859
153 494 844
154 106 523
155 726 969
156 497 414
157 85 39
158 649 864
159 52 978
160 521 99
161 704 952
162 197 150
163 307 273
164 602 256
165 111 139
166 657 898
167 438 983
168 179 381
169 510 735
170 586 48
171 663 907
172 210 315
173 503 313
174 541 34
175 415 220
176 83 294
177 67 86
178 500 94
179 490 62
180 181 316
181 179 85
182 95 82
183 411 740
184 474 811
185 325 412
186 480 939
187 777 982
188 7 927
189 115 40
190 185 356
191 707 856
192 45 961
193 165 62
194 435 96
195 68 71
196 590 866
197 732 873
198 678 960
199 105 300
200 488 850
201 524 833
202 688 857
203 556 998
204 474 784
205 639 513
206 535 534
207 552 830
208 193 52
209 509 765
210 41 119
211 170 171
212 79 975
213 139 193
214 553 62
215 65 0
216 822 866
217 669 895
218 204 332
219 163 344
220 493 780
221 687 988
222 723 938
223 133 299
224 838 996
225 747 957
226 685 953
227 34 141
228 173 354
229 237 260
230 689 665
231 624 724
232 564 607
233 72 233
234 238 451
235 451 753
236 540 26
237 48 70
238 58 59
239 78 51
240 429 830
241 304 71
242 702 1000
243 695 79
244 142 327
245 90 319
246 572 857
247 552 866
248 473 856
249 183 84
250 518 746
251 694 842
252 715 979
253 690 911
254 29 16
255 671 971
256 157 358
257 560 81
258 534 40
259 941 947
260 50 965
261 137 291
262 62 100
263 481 82
264 72 4
265 61 941
266 0 670
267 525 819
268 653 935
269 762 807
270 941 800
271 421 948
272 596 837
273 199 342
274 229 317
275 198 350
276 727 827
277 196 105
278 169 341
279 618 853
280 65 415
281 687 953
282 597 972
283 158 345
284 168 332
285 499 805
286 539 750
287 688 899
288 172 491
289 369 479
290 87 86
291 505 783
292 208 462
293 507 272
294 473 946
295 129 174
296 44 120
297 484 88
298 275 224
299 386 351
300 761 965
301 418 252
302 33 233
303 270 216
304 90 999
305 580 870
306 487 213
307 174 502
308 752 26
309 489 858
310 563 88
311 749 944
312 568 369
313 612 959
314 601 848
315 425 906
316 645 972
317 200 307
318 63 913
319 703 818
320 727 924
321 465 800
322 11 954
323 24 106
324 144 326
325 545 810
326 381 237
327 45 58
328 376 828
329 61 589
330 24 440
331 4 968
332 519 601
333 159 419
334 689 943
335 488 64
336 193 365
337 660 952
338 126 365
339 652 954
340 42 159
341 176 182
342 266 261
343 527 817
344 564 87
345 497 765
346 483 865
347 50 230
348 791 119
349 689 955
350 534 35
351 295 209
352 540 822
353 517 26
354 538 79
355 599 3
356 45 0
357 703 930
358 707 633
359 490 107
360 163 88
361 583 628
362 474 789
363 68 825
364 9 943
365 413 80
366 743 800
367 494 869
368 183 312
369 894 879
370 235 214
371 112 118
372 566 275
373 35 927
374 152 359
375 566 201
376 237 261
377 664 667
378 467 937
379 144 327
380 92 296
381 63 83
382 340 435
383 431 52
384 234 263
385 161 343
386 556 90
387 246 413
388 422 731
389 626 53
390 509 746
391 743 851
392 416 906
393 520 46
394 63 807
395 221 463
396 704 940
397 671 909
398 499 159
399 361 128
400 649 861
401 161 352
402 8 93
403 471 759
404 456 852
405 728 780
406 541 805
407 713 907
408 567 890
409 705 942
410 118 327
411 402 539
412 783 822
413 487 201
414 581 876
415 39 795
416 604 984
417 781 525
418 706 947
419 229 339
420 533 973
421 738 836
422 0 139
423 130 325
424 26 364
425 853 961
426 695 995
427 1 405
428 142 302
429 484 875
430 775 773
431 499 18
432 698 178
433 576 208
434 550 819
435 461 796
436 546 805
437 93 132
438 48 0
439 648 844
440 35 957
441 70 204
442 91 1000
443 659 627
444 197 355
445 643 157
446 297 284
447 7 211
448 533 136
449 548 625
450 715 919
451 491 40
452 452 801
453 963 952
454 694 940
455 823 947
456 462 123
457 53 251
458 481 179
459 506 826
460 531 827
461 188 88
462 655 42
463 124 310
464 44 925
465 381 213
466 65 691
467 219 340
468 611 651
469 522 748
470 236 388
471 671 852
472 637 21
473 630 923
474 506 74
475 840 991
476 553 816
477 902 947
478 680 942
479 183 310
480 16 909
481 745 841
482 174 323
483 792 924
484 642 135
485 251 48
486 509 90
487 574 870
488 86 444
489 594 200
490 102 646
491 278 137
492 543 833
493 316 283
494 40 828
495 676 214
496 38 79
497 546 814
498 300 72
499 63 228
500 46 24
501 692 956
502 570 963
503 207 354
504 794 926
505 692 925
506 601 845
507 726 947
508 36 904
509 0 507
510 577 986
511 529 574
512 545 845
513 663 944
514 82 952
515 506 93
516 649 937
517 794 915
518 402 111
519 433 838
520 261 258
521 248 400
522 51 910
523 96 62
524 666 855
DEMAND_SECTION
2 89
3 59
4 53
5 85
6 95
7 66
8 70
9 84
10 68
11 96
12 87
13 77
14 65
15 88
16 75
17 84
18 92
19 75
20 77
21 55
22 64
23 60
24 71
25 80
26 79
27 61
28 100
29 62
30 92
31 60
32 55
33 52
34 65
35 73
36 81
37 97
38 75
39 76
40 87
41 99
42 78
43 50
44 70
45 89
46 98
47 84
48 59
49 63
50 62
51 88
52 61
53 77
54 70
55 76
56 77
57 59
58 53
59 54
60 74
61 81
62 59
63 79
64 78
65 95
66 51
67 69
68 73
69 78
70 59
71 86
72 63
73 97
74 51
75 77
76 99
77 76
78 68
79 77
80 65
81 87
82 62
COVERAGE_SECTION
2 9 482 284 46 180 368 278 479 219 385 
3 5 96 127 500 98 327 
4 9 497 325 142 95 352 434 406 436 476 
5 8 464 45 373 522 89 508 318 23 
6 6 354 257 386 214 310 344 
7 9 143 226 281 478 349 198 334 77 501 
8 9 513 337 268 339 478 516 7 143 198 
9 9 195 238 237 381 177 327 98 239 496 
10 8 164 47 372 433 489 144 375 90 
11 6 154 288 307 488 333 83 
12 7 186 113 378 294 429 367 346 
13 9 357 396 409 450 222 418 454 505 320 
14 9 523 239 132 157 182 189 195 290 9 
15 9 516 268 120 339 473 513 8 337 109 
16 5 332 449 511 232 361 
17 7 141 474 393 179 335 486 105 
18 9 241 498 73 122 75 485 399 365 99 
19 9 460 201 69 267 343 352 492 142 4 
20 9 196 305 82 487 41 85 246 414 53 
21 9 134 107 153 459 91 200 49 201 309 
22 8 242 252 426 221 155 43 104 161 
23 9 373 45 123 364 440 35 464 322 5 
24 8 323 402 26 422 210 296 138 227 
25 9 273 275 503 444 218 467 33 190 336 
26 9 210 323 296 24 227 138 402 262 496 
27 6 299 136 173 301 156 185 
28 7 118 420 203 502 51 510 186 
29 9 463 223 199 261 428 410 423 380 244 
30 5 355 170 32 389 472 
31 6 209 291 345 116 220 62 
32 8 389 472 30 462 121 130 170 355 
33 9 218 117 172 273 467 25 317 46 275 
34 9 277 461 66 249 181 92 162 360 208 
35 9 322 123 440 331 23 364 192 40 260 
36 7 90 495 445 432 484 147 489 
37 9 212 159 137 260 304 514 442 56 192 
38 8 240 452 519 94 435 321 184 404 
39 6 359 178 297 515 263 486 
40 9 331 35 159 440 123 192 322 260 56 
41 8 82 85 53 196 20 305 414 314 
42 8 100 145 168 111 336 470 333 387 
43 9 155 507 225 252 222 104 161 418 112 
44 9 438 356 87 215 500 264 254 3 96 
45 9 373 5 464 23 508 522 89 480 188 
46 9 2 482 284 180 278 368 273 479 218 
47 8 433 144 164 375 489 10 372 88 
48 9 397 139 171 217 166 287 119 253 135 
49 9 200 309 153 248 346 152 367 107 21 
50 9 512 103 492 69 247 207 19 201 460 
51 7 510 203 502 282 416 118 420 
52 9 295 165 213 437 128 59 371 211 341 
53 9 41 196 414 82 305 20 85 487 246 
54 8 183 235 388 67 403 452 435 38 
55 9 266 466 97 490 415 63 329 126 394 
56 9 192 260 265 123 440 159 23 464 514 
57 8 471 524 202 251 439 400 158 191 
58 6 280 83 106 424 488 330 
59 9 128 211 341 162 295 213 52 165 277 
60 6 455 504 483 517 425 216 
61 8 456 39 359 398 194 458 150 297 
62 7 469 209 250 390 31 286 345 
63 7 126 415 494 93 102 394 363 
64 9 101 184 285 321 362 91 435 204 107 
65 9 205 206 232 511 361 449 332 443 468 
66 9 461 249 92 181 208 277 193 360 34 
67 6 388 183 54 235 403 84 
68 6 289 382 129 185 411 234 
69 9 19 201 460 492 512 50 352 267 343 
70 9 283 385 401 219 256 278 374 228 284 
71 9 342 520 298 446 229 376 163 384 303 
72 8 353 236 350 174 258 431 146 393 
73 9 75 114 18 99 383 365 241 498 518 
74 9 347 302 499 441 447 233 457 115 340 
75 8 99 73 383 365 114 194 518 18 
76 8 86 140 306 175 413 458 301 465 
77 9 281 334 349 501 226 454 143 104 161 
78 9 160 486 515 178 150 359 39 354 448 
79 6 110 167 294 271 378 186 
80 6 231 377 468 230 443 361 
81 9 276 421 481 391 319 366 191 251 269 
82 9 85 41 196 53 20 314 305 414 506 
83 6 58 280 488 338 106 333 
84 8 116 204 220 403 345 362 31 291 
85 8 82 41 196 20 53 314 506 279 
86 7 76 306 413 458 140 175 301 
87 8 215 44 264 438 356 500 96 3 
88 8 293 372 47 306 144 173 375 433 
89 6 318 522 5 464 45 508 
90 5 36 445 495 489 484 
91 9 459 107 21 134 285 101 153 267 64 
92 8 208 66 249 461 181 193 360 277 
93 5 102 126 63 494 415 
94 9 519 240 404 38 151 152 248 452 184 
95 7 325 406 436 4 497 142 434 
96 6 3 127 500 98 327 238 
97 7 490 466 55 329 266 415 394 
98 6 127 3 96 238 327 9 
99 8 383 75 365 114 73 194 105 518 
100 7 42 333 168 145 111 336 292 
101 9 64 184 285 91 107 321 459 362 435 
102 4 93 126 494 63 
103 8 50 512 247 69 492 19 201 207 
104 9 161 418 77 409 501 396 349 281 454 
105 6 179 335 451 141 17 263 
106 6 245 58 424 410 338 83 
107 9 21 153 91 459 134 200 49 101 309 
108 8 149 166 217 119 139 171 48 158 
109 9 339 316 337 120 255 513 8 15 516 
110 6 79 167 271 294 378 186 
111 8 145 336 168 444 190 275 503 25 
112 7 225 311 300 43 507 155 222 
113 3 12 367 429 
114 8 99 73 75 383 365 451 105 431 
115 7 340 138 227 441 74 296 210 
116 8 220 31 291 345 84 209 204 362 
117 9 172 317 33 218 368 479 180 46 273 
118 6 28 420 203 51 502 510 
119 8 166 149 171 217 48 108 397 139 
120 9 15 339 109 316 516 313 268 337 473 
121 4 130 389 32 170 
122 6 399 241 498 491 18 518 
123 9 440 192 35 56 260 23 322 159 364 
124 6 272 506 314 20 85 196 
125 6 182 290 371 523 14 177 
126 6 63 93 494 415 102 394 
127 6 3 96 98 500 327 238 
128 9 59 211 341 162 295 52 213 165 277 
129 7 68 382 234 289 185 395 387 
130 4 121 389 32 462 
131 6 476 434 142 207 497 4 
132 8 239 157 14 523 98 238 195 9 
133 8 407 450 135 253 287 13 320 357 
134 9 21 459 107 153 201 91 19 69 200 
135 9 253 505 287 133 357 407 48 397 13 
136 5 299 493 446 163 27 
137 5 514 212 37 304 442 
138 8 227 340 210 296 26 422 115 24 
139 9 48 217 397 171 287 166 253 108 119 
140 8 175 301 76 326 465 86 306 413 
141 7 474 17 179 335 105 486 263 
142 9 434 4 352 497 476 325 95 207 131 
143 9 7 226 281 478 334 349 77 501 198 
144 4 375 433 489 47 
145 8 111 336 168 444 190 275 503 42 
146 5 236 72 174 350 258 
147 7 484 445 243 432 36 130 90 
148 9 348 432 308 243 495 147 36 445 484 
149 8 166 108 119 217 171 139 48 397 
150 7 448 78 160 359 398 39 515 
151 9 404 152 248 49 346 94 200 309 429 
152 9 248 151 404 346 49 309 200 429 367 
153 9 200 21 107 49 309 134 91 459 248 
154 7 11 307 288 329 488 509 280 
155 9 43 252 507 225 22 104 161 112 418 
156 9 312 173 27 206 299 293 289 372 411 
157 7 132 239 14 523 189 98 96 
158 6 400 524 439 108 471 57 
159 9 260 192 37 56 212 440 123 40 35 
160 9 78 486 515 178 354 474 6 150 359 
161 9 104 418 409 77 396 501 349 454 281 
162 9 59 211 128 341 277 34 461 181 249 
163 6 493 446 71 342 520 298 
164 8 10 47 372 433 489 144 375 88 
165 6 437 371 52 295 125 128 
166 8 119 149 171 108 217 48 139 397 
167 6 79 110 271 294 378 186 
168 8 145 111 336 190 228 42 256 444 
169 7 390 250 469 62 209 286 345 
170 1 30 
171 9 397 48 119 166 139 217 149 108 287 
172 9 117 317 33 218 274 368 467 479 180 
173 8 293 88 372 312 27 156 306 86 
174 5 350 236 258 72 393 
175 8 140 301 465 76 326 86 306 413 
176 5 380 199 245 29 463 
177 9 381 195 262 9 290 237 182 238 496 
178 7 515 486 359 297 39 474 78 
179 6 335 105 141 474 17 263 
180 9 368 479 482 2 46 117 284 317 33 
181 8 249 461 360 66 277 193 92 208 
182 8 290 125 523 14 177 195 381 239 
183 7 388 67 54 235 403 452 435 
184 9 64 101 321 435 362 452 285 204 91 
185 3 382 68 129 
186 6 294 378 12 110 113 79 
187 6 300 112 225 311 155 43 
188 8 364 480 23 322 45 373 35 5 
189 3 14 523 157 
190 9 228 336 444 275 111 25 273 145 278 
191 9 202 251 197 57 81 276 391 471 421 
192 9 260 56 123 440 159 35 265 23 37 
193 6 360 181 249 208 92 66 
194 7 365 518 456 383 61 263 297 
195 9 9 381 177 238 237 239 290 132 327 
196 9 20 82 41 53 85 305 414 487 246 
197 7 391 191 481 421 133 407 81 
198 9 7 226 281 349 143 255 501 478 77 
199 9 380 29 463 176 245 223 410 261 423 
200 9 49 153 309 248 346 107 21 367 152 
201 9 19 69 460 267 134 343 352 459 492 
202 9 251 57 471 191 524 400 108 158 217 
203 8 51 510 118 420 28 502 282 416 
204 8 362 84 321 435 220 116 403 64 
205 8 65 206 443 232 511 361 358 468 
206 8 511 65 332 232 449 16 205 361 
207 8 492 434 142 131 352 476 4 497 
208 7 92 66 193 249 181 461 360 
209 9 31 345 62 116 291 390 250 469 220 
210 7 296 26 323 227 262 138 24 
211 8 59 341 128 162 213 295 52 165 
212 9 37 137 514 304 159 442 260 56 192 
213 6 295 52 211 341 59 128 
214 3 6 257 354 
215 8 264 87 44 438 356 500 96 3 
216 6 517 412 60 483 504 369 
217 9 139 48 166 108 171 397 149 119 287 
218 9 33 273 25 117 467 172 275 46 503 
219 9 385 283 70 278 401 284 228 256 374 
220 9 116 291 31 84 345 204 362 209 285 
221 7 426 242 255 22 198 252 501 
222 9 507 320 13 409 396 418 450 357 43 
223 8 261 428 29 463 423 199 244 324 
224 6 475 425 455 187 60 477 
225 7 112 311 300 43 507 155 222 
226 9 281 349 7 143 501 77 198 334 478 
227 8 138 340 210 296 26 115 422 323 
228 9 190 401 219 278 256 385 70 283 374 
229 6 376 384 520 342 71 370 
230 6 377 358 443 80 468 231 
231 1 80 
232 7 449 361 332 511 468 65 16 
233 6 499 347 457 441 302 74 
234 7 395 292 387 521 42 470 100 
235 7 403 54 84 388 204 183 362 
236 6 174 350 258 72 146 353 
237 6 327 9 496 238 195 381 
238 6 9 98 327 237 195 239 
239 9 132 157 14 523 195 238 9 98 96 
240 9 519 94 38 404 452 151 321 435 152 
241 7 498 18 122 485 491 73 399 
242 7 426 22 221 252 155 255 501 
243 8 462 147 130 389 484 308 32 472 
244 9 324 379 423 283 410 70 385 428 463 
245 7 380 199 176 410 29 463 106 
246 9 487 20 305 196 414 247 124 53 82 
247 8 103 50 246 487 512 305 408 414 
248 9 152 49 346 151 200 309 404 429 153 
249 9 181 461 66 360 277 193 92 208 34 
250 8 469 390 62 169 209 286 345 31 
251 9 202 191 57 471 319 524 276 81 421 
252 9 22 155 43 242 426 104 161 221 418 
253 9 135 287 505 48 139 397 133 357 407 
254 4 500 356 44 438 
255 8 198 109 337 7 221 226 281 349 
256 8 374 401 70 283 219 228 385 278 
257 6 344 310 386 6 214 354 
258 7 350 174 236 393 353 72 214 
259 9 453 477 369 425 475 224 455 60 216 
260 9 192 56 159 123 440 37 265 35 212 
261 6 223 428 29 463 199 423 
262 8 177 381 296 210 290 195 9 496 
263 6 297 335 178 179 141 39 
264 6 215 87 44 438 356 500 
265 5 56 464 514 192 260 
266 9 55 466 97 329 490 415 63 126 394 
267 6 343 460 19 201 352 4 
268 9 516 15 513 8 337 339 120 473 109 
269 9 366 412 430 421 481 81 276 405 391 
270 8 369 216 259 477 453 412 430 60 
271 6 110 167 315 392 79 378 
272 6 124 506 314 20 85 279 
273 9 25 275 218 444 503 33 46 190 467 
274 5 172 419 467 33 117 
275 9 444 25 273 503 190 336 218 33 111 
276 9 81 421 481 319 391 366 191 251 269 
277 9 461 34 249 181 66 360 162 92 193 
278 9 219 385 284 283 70 228 401 46 2 
279 4 314 506 85 82 
280 7 58 488 83 330 106 424 427 
281 9 226 349 143 501 7 77 334 198 478 
282 6 416 313 510 502 51 120 
283 9 70 385 219 401 278 256 374 284 228 
284 9 2 278 482 219 385 46 283 70 180 
285 6 64 91 101 459 291 184 
286 5 469 62 250 390 169 
287 9 253 139 135 48 217 397 133 171 407 
288 6 307 292 395 11 154 333 
289 6 68 382 411 129 185 299 
290 9 182 177 195 381 125 523 262 14 9 
291 5 31 116 220 209 345 
292 7 395 234 288 307 100 42 387 
293 8 88 173 372 306 86 413 47 76 
294 8 186 378 12 110 79 167 271 113 
295 8 52 213 59 165 128 211 341 437 
296 7 210 26 227 323 262 138 24 
297 6 263 178 39 359 515 335 
298 7 303 351 71 520 342 370 229 
299 4 27 136 185 382 
300 6 112 225 187 311 43 155 
301 7 140 175 326 76 465 86 306 
302 7 347 74 457 499 447 233 441 
303 7 298 351 370 71 520 342 229 
304 6 442 212 37 137 159 514 
305 9 414 487 20 196 53 246 41 82 85 
306 5 413 86 458 76 398 
307 6 288 292 11 395 154 234 
308 9 243 462 348 472 32 389 147 130 121 
309 9 49 200 346 367 153 248 429 152 21 
310 4 344 386 257 6 
311 7 112 225 507 300 222 43 320 
312 9 156 173 372 293 10 164 88 47 27 
313 7 282 120 416 316 15 109 339 
314 7 506 124 272 85 82 279 20 
315 4 392 271 378 12 
316 7 109 339 120 337 255 15 513 
317 8 117 172 479 368 180 33 218 46 
318 4 89 522 5 464 
319 9 251 276 81 191 421 57 202 366 405 
320 5 450 222 13 407 507 
321 8 435 452 184 362 204 64 101 84 
322 9 364 35 331 23 123 440 188 40 192 
323 7 26 24 210 402 296 496 227 
324 9 379 244 423 283 385 428 70 284 219 
325 9 95 497 4 436 406 142 434 476 352 
326 7 465 175 140 301 76 493 163 
327 4 237 238 98 9 
328 6 240 519 38 94 54 452 
329 9 490 154 97 266 466 509 11 55 307 
330 8 427 280 488 58 509 424 83 106 
331 9 322 35 364 40 123 440 23 188 192 
332 6 511 16 449 232 206 361 
333 5 100 168 42 145 111 
334 9 454 77 143 478 281 7 226 349 501 
335 6 179 105 141 263 474 17 
336 9 111 145 444 190 275 503 25 168 228 
337 9 339 8 513 109 268 516 198 7 15 
338 8 374 256 70 401 283 410 423 244 
339 9 337 109 513 8 15 516 120 268 316 
340 7 115 138 227 296 210 26 422 
341 7 211 59 128 162 213 295 52 
342 9 520 71 229 376 384 298 446 163 303 
343 6 267 460 19 352 4 201 
344 4 310 257 386 6 
345 9 31 116 209 220 84 291 390 62 403 
346 9 309 429 367 49 248 200 152 153 151 
347 7 499 302 457 74 233 441 447 
348 9 308 243 432 147 148 495 484 36 445 
349 9 281 501 226 77 7 143 198 334 104 
350 6 258 174 236 393 72 353 
351 6 298 303 71 342 370 520 
352 9 142 4 434 460 497 492 325 19 95 
353 8 72 350 393 431 258 236 174 451 
354 8 6 386 257 214 160 310 344 17 
355 5 30 472 32 146 170 
356 9 438 44 87 215 254 500 264 3 96 
357 9 13 396 409 505 454 450 418 334 135 
358 5 230 443 377 80 468 
359 7 39 178 297 515 486 263 78 
360 6 181 249 461 193 66 277 
361 7 232 449 468 332 80 443 511 
362 8 204 321 435 84 64 220 184 116 
363 4 394 494 415 63 
364 9 322 188 23 35 331 123 440 373 45 
365 7 194 383 518 75 99 73 456 
366 9 269 405 276 81 421 481 430 319 412 
367 8 309 346 429 49 200 153 248 152 
368 9 479 180 482 2 317 46 117 284 33 
369 8 477 216 259 60 270 425 455 453 
370 8 303 298 229 376 384 520 342 71 
371 6 165 437 125 182 290 52 
372 8 88 164 47 10 293 433 144 173 
373 9 45 464 5 23 508 522 89 480 188 
374 8 256 401 70 283 385 219 228 278 
375 4 144 433 489 47 
376 6 229 384 520 342 71 370 
377 6 230 80 443 358 468 231 
378 7 294 186 12 110 79 271 315 
379 9 324 244 423 283 385 70 219 284 428 
380 5 176 199 245 29 463 
381 9 177 195 9 262 237 290 238 496 327 
382 4 185 68 289 129 
383 7 99 75 365 194 114 105 263 
384 5 229 376 520 342 71 
385 9 219 283 70 278 401 284 228 256 374 
386 5 310 344 257 6 354 
387 6 521 470 234 42 395 100 
388 6 67 183 54 235 403 84 
389 7 32 121 130 462 472 30 170 
390 8 250 169 469 62 209 345 31 286 
391 9 481 421 81 197 276 191 269 412 251 
392 4 315 271 378 12 
393 8 258 350 17 353 174 236 72 141 
394 5 363 415 494 63 126 
395 7 292 234 288 387 100 307 42 
396 9 409 418 357 454 13 161 104 77 334 
397 9 48 171 139 217 119 166 253 287 135 
398 5 458 150 448 61 413 
399 7 122 518 365 194 241 18 491 
400 6 158 439 524 471 57 108 
401 9 70 256 219 283 385 374 228 278 284 
402 4 24 323 26 496 
403 8 84 235 204 345 116 220 362 31 
404 9 151 152 248 94 519 49 346 200 309 
405 6 366 269 319 276 430 81 
406 5 95 436 325 4 497 
407 8 133 450 135 320 253 13 357 287 
408 4 414 487 305 53 
409 9 396 418 161 104 454 13 357 77 334 
410 8 423 463 29 244 324 379 245 199 
411 9 289 68 16 129 382 332 511 206 185 
412 9 269 481 366 421 391 430 81 276 216 
413 5 306 458 86 76 398 
414 9 305 487 53 196 20 41 408 82 246 
415 7 63 126 394 494 363 93 102 
416 8 282 313 510 51 502 120 316 203 
417 5 358 205 443 230 65 
418 9 161 409 104 396 77 454 13 334 357 
419 7 467 274 33 218 25 503 273 
420 6 118 28 203 502 51 510 
421 9 81 481 276 391 366 191 197 269 319 
422 9 24 138 227 26 323 210 340 402 296 
423 8 244 410 324 379 463 29 223 428 
424 5 427 58 106 280 330 
425 8 455 475 224 60 477 504 483 517 
426 7 242 221 22 252 255 198 501 
427 7 330 424 280 58 106 488 83 
428 8 223 261 463 29 324 244 379 423 
429 8 346 367 309 248 49 152 200 151 
430 6 269 366 405 412 81 276 
431 9 353 451 72 393 105 350 258 236 174 
432 6 36 495 147 445 90 484 
433 4 144 375 489 47 
434 9 142 476 497 4 131 325 352 207 95 
435 8 321 452 362 204 184 64 101 84 
436 7 95 325 406 497 4 476 142 
437 6 165 371 52 262 290 125 
438 9 356 44 87 215 264 500 254 3 96 
439 5 400 158 524 471 57 
440 9 123 192 35 56 260 23 322 159 364 
441 8 499 233 74 347 115 302 457 340 
442 5 304 212 37 137 159 
443 8 377 230 358 468 80 361 232 65 
444 9 275 25 503 336 190 273 111 145 218 
445 5 484 36 90 147 432 
446 5 163 493 71 342 520 
447 8 74 302 347 499 457 115 340 441 
448 4 150 78 160 398 
449 6 232 361 332 511 16 468 
450 8 407 13 320 133 357 222 135 396 
451 9 105 179 431 335 17 141 353 393 474 
452 8 435 321 38 184 362 204 64 101 
453 9 259 477 369 425 475 224 455 60 270 
454 9 334 77 396 409 357 143 418 478 281 
455 6 60 425 504 483 517 475 
456 7 61 39 359 194 297 263 178 
457 5 347 499 233 302 74 
458 6 413 398 306 86 76 61 
459 9 91 21 107 134 201 267 153 285 343 
460 9 19 201 69 267 352 343 492 4 142 
461 9 249 181 66 277 360 92 34 193 208 
462 9 472 32 389 130 121 243 30 355 170 
463 9 29 223 423 410 428 199 261 244 324 
464 8 5 45 373 89 522 23 318 508 
465 7 326 175 140 301 76 86 351 
466 8 97 55 490 266 329 415 394 63 
467 8 419 25 218 33 503 273 275 274 
468 7 361 80 443 377 232 449 231 
469 8 250 62 390 286 169 209 31 345 
470 7 521 387 42 145 503 111 336 
471 8 57 524 202 400 439 158 251 108 
472 8 32 462 389 30 355 121 130 170 
473 7 15 516 268 120 119 166 171 
474 7 141 17 486 515 179 178 335 
475 6 224 425 455 187 60 477 
476 8 434 131 497 142 4 325 95 436 
477 9 259 425 453 369 475 455 60 224 504 
478 9 143 7 334 226 281 454 77 8 349 
479 8 368 180 482 2 317 117 46 172 
480 4 188 508 45 373 
481 9 421 391 81 276 197 269 191 366 412 
482 9 2 180 46 284 368 479 278 219 385 
483 4 504 517 60 455 
484 3 445 147 36 
485 9 92 498 208 241 66 34 461 249 18 
486 8 515 178 160 474 78 141 297 359 
487 9 305 414 246 20 196 53 408 247 41 
488 6 280 83 58 330 11 333 
489 4 433 144 375 47 
490 7 97 466 329 55 266 154 11 
491 5 122 34 498 241 351 
492 9 207 352 512 69 142 460 19 50 434 
493 6 163 446 71 136 342 520 
494 6 126 63 363 102 394 415 
495 7 36 90 432 445 10 489 147 
496 3 237 327 9 
497 9 4 325 142 434 95 476 436 352 406 
498 8 241 18 485 122 491 399 73 34 
499 6 233 347 441 457 74 302 
500 9 3 96 127 44 254 87 98 356 438 
501 9 349 281 77 226 104 143 7 161 334 
502 6 510 51 282 203 420 416 
503 9 25 275 444 273 336 467 190 218 111 
504 4 483 517 60 455 
505 9 135 357 253 454 13 334 396 409 478 
506 7 314 124 272 85 279 82 20 
507 9 222 43 418 155 409 161 225 311 320 
508 5 522 5 45 480 464 
509 9 330 329 427 154 488 280 11 58 83 
510 7 51 203 282 502 416 313 118 
511 7 332 206 232 449 16 65 361 
512 9 50 492 103 69 207 19 247 460 201 
513 9 8 337 268 339 516 478 7 143 15 
514 5 137 212 265 37 56 
515 7 486 178 160 78 474 359 297 
516 9 268 15 513 8 339 337 120 473 109 
517 4 483 504 60 455 
518 8 365 194 399 456 75 61 383 99 
519 9 94 240 38 404 151 152 452 248 184 
520 9 342 71 229 376 384 298 303 446 163 
521 5 387 470 42 234 145 
522 6 89 318 5 508 464 45 
523 9 14 182 239 132 157 290 189 195 125 
524 8 471 57 400 158 439 202 251 108 
DEPOT_SECTION
   1
   -1
EOF
