NAME :  X-n819-kX-w327-c11.cctp
COMMENT : 	Adapted by Maziero, Usberti and Cavellucci from the Uchoa, Pecin, Pessoa, Poggi, Subramanian, and Vidal (2013)
TYPE :  CCTP
DIMENSION :    819
EDGE_WEIGHT_TYPE : 	EUC_2D	
CAPACITY : 	358
VERTICES_WITHIN_COVERAGE :  11
VERTICES_WITH_DEMAND : 	327
NODE_COORD_SECTION
1 500 500
2 174 325
3 49 34
4 543 815
5 42 920
6 545 80
7 681 950
8 664 944
9 61 68
10 609 259
11 116 500
12 482 911
13 708 930
14 93 57
15 642 940
16 487 619
17 511 63
18 330 52
19 529 831
20 586 862
21 503 839
22 713 994
23 28 939
24 9 111
25 203 347
26 31 115
27 414 352
28 521 982
29 121 304
30 600 26
31 506 772
32 624 39
33 205 328
34 218 104
35 22 959
36 657 188
37 72 978
38 434 815
39 487 107
40 22 987
41 599 870
42 201 402
43 726 961
44 51 7
45 35 922
46 182 331
47 577 233
48 672 906
49 485 852
50 543 849
51 574 991
52 120 166
53 592 877
54 422 762
55 26 695
56 52 953
57 673 848
58 66 393
59 165 162
60 824 928
61 462 135
62 520 759
63 25 807
64 483 808
65 600 549
66 196 76
67 420 719
68 348 480
69 531 837
70 157 347
71 273 259
72 526 18
73 373 29
74 39 211
75 398 49
76 451 211
77 693 949
78 518 106
79 451 981
80 629 687
81 731 830
82 599 866
83 202 772
84 217 285
85 102 404
86 481 771
87 601 864
88 123 963
89 467 217
90 62 8
91 532 256
92 57 914
93 640 193
94 502 823
95 197 59
96 4 824
97 110 938
98 439 838
99 543 808
100 51 34
101 94 672
102 55 46
103 420 46
104 666 997
105 186 414
106 398 883
107 103 942
108 482 816
109 62 137
110 11 840
111 37 54
112 537 858
113 745 914
114 183 279
115 703 953
116 762 726
117 485 54
118 64 920
119 74 352
120 560 178
121 283 179
122 496 834
123 660 886
124 589 160
125 650 963
126 565 36
127 241 338
128 446 971
129 638 817
130 193 372
131 752 955
132 511 904
133 411 5
134 780 925
135 536 781
136 53 168
137 495 777
138 42 892
139 488 80
140 793 984
141 201 317
142 531 985
143 181 240
144 530 802
145 576 942
146 654 903
147 634 953
148 612 71
149 334 119
150 155 811
151 35 956
152 593 840
153 588 819
154 771 968
155 273 325
156 561 46
157 113 88
158 23 813
159 49 38
160 162 152
161 611 778
162 297 479
163 627 78
164 559 818
165 79 48
166 711 905
167 612 162
168 509 839
169 153 45
170 301 160
171 693 913
172 527 213
173 144 73
174 347 325
175 95 965
176 29 145
177 268 374
178 674 900
179 418 225
180 532 930
181 501 68
182 24 888
183 310 365
184 572 153
185 546 820
186 683 948
187 561 150
188 571 205
189 513 166
190 523 805
191 193 375
192 553 9
193 131 86
194 154 914
195 528 786
196 104 10
197 672 129
198 908 170
199 654 893
200 514 130
201 547 783
202 33 856
203 563 814
204 117 19
205 459 856
206 467 859
207 494 844
208 106 523
209 89 268
210 726 969
211 155 240
212 137 860
213 497 414
214 294 802
215 85 39
216 649 864
217 168 885
218 658 764
219 52 978
220 521 99
221 529 779
222 317 909
223 32 72
224 704 952
225 197 150
226 307 273
227 602 256
228 680 775
229 169 378
230 111 139
231 578 87
232 258 317
233 657 898
234 438 983
235 179 381
236 510 735
237 586 48
238 663 907
239 189 269
240 210 315
241 82 925
242 503 313
243 541 34
244 369 228
245 44 321
246 415 220
247 83 294
248 297 381
249 646 844
250 241 942
251 25 39
252 67 86
253 771 900
254 500 94
255 69 874
256 176 285
257 140 267
258 267 333
259 561 920
260 490 62
261 48 858
262 521 801
263 181 316
264 179 85
265 17 56
266 142 901
267 95 82
268 411 740
269 533 794
270 474 811
271 325 412
272 626 805
273 480 939
274 158 4
275 777 982
276 7 927
277 611 848
278 115 40
279 185 356
280 585 173
281 300 382
282 21 63
283 707 856
284 45 961
285 165 62
286 8 875
287 435 96
288 72 127
289 68 71
290 590 866
291 607 175
292 732 873
293 678 960
294 105 300
295 488 850
296 524 833
297 179 767
298 688 857
299 559 798
300 556 998
301 626 855
302 474 784
303 599 803
304 639 513
305 348 284
306 535 534
307 552 830
308 565 774
309 193 52
310 556 666
311 509 765
312 41 119
313 118 246
314 170 171
315 79 975
316 131 959
317 139 193
318 630 881
319 14 853
320 553 62
321 65 0
322 822 866
323 342 897
324 669 895
325 204 332
326 24 307
327 163 344
328 493 780
329 687 988
330 723 938
331 133 299
332 838 996
333 747 957
334 685 953
335 124 990
336 565 47
337 34 141
338 69 911
339 77 850
340 173 354
341 237 260
342 689 665
343 624 724
344 564 607
345 221 496
346 585 761
347 72 233
348 238 451
349 451 753
350 10 27
351 539 773
352 104 891
353 240 717
354 540 26
355 48 70
356 58 59
357 78 51
358 76 933
359 429 830
360 304 71
361 702 1000
362 695 79
363 142 327
364 90 319
365 572 857
366 552 866
367 581 134
368 565 898
369 473 856
370 183 84
371 625 834
372 529 922
373 518 746
374 694 842
375 715 979
376 690 911
377 29 16
378 671 971
379 157 358
380 171 949
381 560 81
382 534 40
383 137 848
384 941 947
385 50 965
386 137 291
387 62 100
388 315 146
389 712 752
390 499 688
391 12 29
392 477 720
393 481 82
394 193 265
395 72 4
396 12 890
397 588 910
398 675 981
399 95 872
400 61 941
401 0 670
402 582 798
403 36 58
404 257 667
405 525 819
406 579 919
407 653 935
408 762 807
409 241 306
410 129 408
411 941 800
412 603 95
413 421 948
414 561 653
415 596 837
416 199 342
417 229 317
418 198 350
419 727 827
420 534 892
421 196 105
422 169 341
423 618 853
424 65 415
425 687 953
426 597 972
427 158 345
428 168 332
429 569 28
430 499 805
431 428 894
432 121 992
433 539 750
434 688 899
435 172 491
436 369 479
437 49 891
438 256 770
439 415 937
440 87 86
441 505 783
442 208 462
443 556 917
444 507 272
445 473 946
446 129 174
447 44 120
448 484 88
449 275 224
450 386 351
451 761 965
452 418 252
453 33 233
454 270 216
455 583 939
456 454 75
457 90 999
458 572 51
459 58 291
460 624 849
461 138 271
462 580 870
463 487 213
464 174 502
465 523 792
466 196 806
467 752 26
468 489 858
469 563 88
470 749 944
471 568 369
472 612 959
473 580 142
474 601 848
475 587 132
476 429 931
477 425 906
478 165 918
479 56 867
480 645 972
481 200 307
482 63 913
483 518 183
484 592 757
485 573 812
486 703 818
487 585 121
488 727 924
489 465 800
490 574 904
491 11 954
492 178 743
493 24 106
494 319 914
495 144 326
496 545 810
497 29 49
498 523 798
499 279 346
500 381 237
501 45 58
502 287 764
503 376 828
504 61 589
505 24 440
506 4 968
507 519 601
508 159 419
509 6 15
510 689 943
511 589 806
512 488 64
513 193 365
514 660 952
515 126 365
516 135 1000
517 846 808
518 652 954
519 571 107
520 576 158
521 42 159
522 176 182
523 266 261
524 527 817
525 573 905
526 564 87
527 497 765
528 483 865
529 65 894
530 110 896
531 50 230
532 791 119
533 689 955
534 638 891
535 534 35
536 295 209
537 540 822
538 517 26
539 538 79
540 599 3
541 593 782
542 45 0
543 703 930
544 707 633
545 490 107
546 113 17
547 163 88
548 583 628
549 474 789
550 130 250
551 500 169
552 68 825
553 9 943
554 17 896
555 565 35
556 413 80
557 743 800
558 494 869
559 183 312
560 127 898
561 894 879
562 559 953
563 235 214
564 675 777
565 628 127
566 112 118
567 66 309
568 1 892
569 566 275
570 35 927
571 152 359
572 566 201
573 237 261
574 664 667
575 467 937
576 144 327
577 62 273
578 567 59
579 92 296
580 4 319
581 797 701
582 63 83
583 99 246
584 340 435
585 431 52
586 234 263
587 161 343
588 556 90
589 246 413
590 18 884
591 422 731
592 24 65
593 626 53
594 509 746
595 569 898
596 743 851
597 416 906
598 520 46
599 660 760
600 63 807
601 221 463
602 732 909
603 704 940
604 671 909
605 499 159
606 160 967
607 361 128
608 649 861
609 116 104
610 667 764
611 161 352
612 637 772
613 8 93
614 471 759
615 456 852
616 728 780
617 541 805
618 713 907
619 515 873
620 11 275
621 567 890
622 81 862
623 705 942
624 118 327
625 579 904
626 254 330
627 402 539
628 783 822
629 487 201
630 14 19
631 581 876
632 39 795
633 628 739
634 604 984
635 781 525
636 39 852
637 706 947
638 229 339
639 533 973
640 738 836
641 0 139
642 130 325
643 26 364
644 853 961
645 151 260
646 412 937
647 273 392
648 695 995
649 544 786
650 96 23
651 1 405
652 142 302
653 484 875
654 775 773
655 499 18
656 39 52
657 698 178
658 564 826
659 37 878
660 576 208
661 550 819
662 461 796
663 546 805
664 65 886
665 93 132
666 48 0
667 648 844
668 35 957
669 70 204
670 91 1000
671 741 913
672 659 627
673 529 786
674 197 355
675 643 157
676 151 1
677 297 284
678 7 211
679 635 908
680 533 136
681 548 625
682 556 714
683 715 919
684 102 917
685 491 40
686 452 801
687 165 926
688 659 731
689 460 779
690 963 952
691 694 940
692 823 947
693 462 123
694 53 251
695 481 179
696 506 826
697 531 827
698 258 186
699 722 621
700 537 51
701 655 762
702 565 141
703 188 88
704 655 42
705 124 310
706 573 805
707 44 925
708 381 213
709 65 691
710 82 929
711 540 156
712 219 340
713 638 784
714 742 699
715 611 651
716 522 748
717 236 388
718 605 842
719 28 75
720 671 852
721 555 130
722 637 21
723 255 311
724 486 81
725 577 814
726 630 923
727 147 226
728 560 55
729 168 823
730 145 242
731 547 796
732 506 74
733 581 763
734 840 991
735 553 816
736 114 0
737 902 947
738 680 942
739 94 13
740 183 310
741 16 909
742 745 841
743 601 802
744 307 361
745 174 323
746 480 80
747 792 924
748 144 43
749 575 751
750 642 135
751 568 107
752 251 48
753 509 90
754 574 870
755 750 919
756 86 444
757 780 938
758 564 172
759 599 791
760 594 200
761 222 478
762 102 646
763 278 137
764 543 833
765 316 283
766 40 828
767 676 214
768 119 4
769 38 79
770 236 811
771 487 724
772 546 814
773 607 95
774 300 72
775 63 228
776 46 24
777 145 435
778 733 741
779 692 956
780 748 914
781 107 344
782 565 104
783 99 888
784 570 963
785 207 354
786 111 873
787 794 926
788 542 797
789 692 925
790 601 845
791 726 947
792 36 904
793 0 507
794 577 986
795 529 574
796 545 845
797 525 912
798 795 692
799 663 944
800 82 952
801 521 709
802 589 192
803 506 93
804 126 419
805 31 881
806 525 897
807 518 786
808 525 786
809 649 937
810 579 74
811 794 915
812 402 111
813 433 838
814 261 258
815 248 400
816 51 910
817 96 62
818 635 837
819 666 855
DEMAND_SECTION
2 89
3 59
4 53
5 85
6 95
7 66
8 70
9 84
10 68
11 96
12 87
13 77
14 65
15 88
16 75
17 84
18 92
19 75
20 77
21 55
22 64
23 60
24 71
25 80
26 79
27 61
28 100
29 62
30 92
31 60
32 55
33 52
34 65
35 73
36 81
37 97
38 75
39 76
40 87
41 99
42 78
43 50
44 70
45 89
46 98
47 84
48 59
49 63
50 62
51 88
52 61
53 77
54 70
55 76
56 77
57 59
58 53
59 54
60 74
61 81
62 59
63 79
64 78
65 95
66 51
67 69
68 73
69 78
70 59
71 86
72 63
73 97
74 51
75 77
76 99
77 76
78 68
79 77
80 65
81 87
82 62
83 76
84 86
85 92
86 62
87 96
88 80
89 56
90 86
91 86
92 95
93 73
94 74
95 73
96 87
97 92
98 88
99 81
100 81
101 74
102 62
103 55
104 76
105 98
106 78
107 59
108 74
109 83
110 92
111 75
112 71
113 75
114 81
115 70
116 52
117 94
118 54
119 78
120 58
121 93
122 64
123 89
124 63
125 82
126 98
127 51
128 58
129 63
130 61
131 91
132 56
133 81
134 97
135 91
136 51
137 73
138 95
139 79
140 100
141 55
142 81
143 85
144 52
145 99
146 57
147 54
148 62
149 78
150 60
151 81
152 89
153 87
154 80
155 96
156 83
157 53
158 95
159 70
160 69
161 81
162 62
163 83
164 50
165 93
166 77
167 50
168 67
169 92
170 94
171 69
172 76
173 88
174 52
175 64
176 87
177 77
178 80
179 61
180 66
181 91
182 94
183 62
184 96
185 60
186 70
187 90
188 53
189 84
190 80
191 88
192 96
193 63
194 79
195 88
196 65
197 54
198 68
199 93
200 99
201 75
202 61
203 63
204 53
205 77
206 68
207 72
208 100
209 81
210 89
211 73
212 67
213 77
214 70
215 80
216 58
217 84
218 75
219 54
220 77
221 67
222 67
223 62
224 64
225 82
226 51
227 90
228 52
229 63
230 83
231 75
232 72
233 94
234 88
235 93
236 86
237 66
238 93
239 65
240 68
241 81
242 72
243 74
244 65
245 82
246 52
247 91
248 50
249 76
250 84
251 70
252 54
253 100
254 70
255 50
256 52
257 56
258 68
259 72
260 63
261 64
262 86
263 54
264 65
265 66
266 61
267 92
268 72
269 52
270 91
271 51
272 69
273 97
274 69
275 95
276 63
277 51
278 54
279 53
280 51
281 59
282 84
283 73
284 89
285 76
286 53
287 62
288 85
289 56
290 67
291 66
292 99
293 50
294 92
295 90
296 54
297 64
298 73
299 93
300 66
301 81
302 75
303 90
304 78
305 100
306 69
307 70
308 62
309 80
310 92
311 76
312 86
313 52
314 65
315 93
316 81
317 92
318 81
319 53
320 90
321 54
322 90
323 55
324 61
325 70
326 63
327 89
328 66
COVERAGE_SECTION
2 11 745 428 46 263 559 422 740 327 587 427 70 
3 11 100 159 776 102 656 111 501 251 497 44 356 
4 11 772 496 185 99 537 661 617 663 735 164 524 
5 11 707 45 570 816 92 792 118 482 23 138 338 
6 11 539 381 588 320 469 526 728 578 700 220 782 
7 11 186 334 425 738 533 293 510 77 779 691 8 
8 11 799 514 407 518 738 809 7 186 293 15 334 
9 11 289 356 355 582 252 501 102 357 769 165 403 
10 11 227 47 569 660 760 188 802 572 93 91 767 
11 11 208 435 464 756 777 804 508 410 85 424 442 
12 11 273 132 575 445 653 797 558 806 528 372 619 
13 11 543 603 623 683 330 637 691 789 488 224 171 
14 11 817 357 165 215 267 278 289 440 9 650 356 
15 11 809 407 147 518 726 799 8 514 125 480 679 
16 11 507 681 795 390 344 414 310 548 801 306 392 
17 11 181 732 598 260 512 753 117 139 700 685 803 
18 11 360 774 73 149 75 752 607 556 103 812 133 
19 11 697 296 69 405 524 537 764 185 4 796 168 
20 11 290 462 82 754 41 87 365 631 53 474 152 
21 11 168 122 207 696 94 295 49 296 468 19 69 
22 11 361 375 648 329 210 43 398 115 224 779 533 
23 11 570 45 151 553 668 35 707 491 5 276 56 
24 11 493 613 26 641 312 447 176 337 719 769 223 
25 11 416 418 785 674 325 712 33 279 513 46 130 
26 11 312 493 447 24 337 176 613 387 769 109 641 
27 11 450 174 305 242 452 213 183 271 744 584 281 
28 11 142 639 300 562 180 784 51 794 273 445 372 
29 11 705 331 294 386 652 624 642 579 363 495 576 
30 11 540 237 32 429 126 555 593 722 458 336 156 
31 11 311 441 527 137 328 807 62 221 808 86 195 
32 11 593 722 30 704 148 163 237 540 458 429 810 
33 11 325 141 240 416 712 25 481 46 418 417 638 
34 11 421 703 66 370 264 95 225 547 309 752 285 
35 11 491 151 668 506 23 553 284 40 385 56 276 
36 11 93 767 675 657 167 291 750 197 760 565 802 
37 11 315 219 175 385 457 800 670 56 284 400 151 
38 11 359 686 813 98 662 489 270 615 689 108 205 
39 11 545 254 448 803 393 724 139 746 753 693 78 
40 11 506 35 219 668 151 284 491 385 56 553 23 
41 11 82 87 53 290 20 462 631 474 277 423 754 
42 11 105 191 235 130 513 717 229 508 589 674 815 
43 11 210 791 333 375 330 115 224 637 131 623 470 
44 11 666 542 90 321 776 395 377 3 100 159 102 
45 11 570 5 707 23 792 816 92 741 276 118 482 
46 11 2 745 428 263 422 559 416 740 325 33 327 
47 11 660 188 227 572 760 10 569 802 91 172 120 
48 11 604 178 238 324 233 434 146 376 171 199 123 
49 11 295 468 207 369 528 206 558 122 21 653 205 
50 11 796 112 764 69 366 307 19 296 697 537 185 
51 11 794 300 784 426 634 562 142 639 145 472 455 
52 11 446 230 317 665 160 59 566 314 522 288 609 
53 11 41 290 631 82 462 20 87 754 365 621 474 
54 11 268 349 591 689 67 614 686 662 38 302 489 
55 11 401 709 101 762 632 63 504 158 600 96 766 
56 11 284 385 400 151 668 219 23 707 800 35 358 
57 11 720 819 298 374 667 249 608 216 283 123 818 
58 11 424 85 119 643 756 505 781 410 804 515 651 
59 11 160 314 522 225 446 317 52 230 421 727 566 
60 11 692 787 747 811 134 644 757 253 322 140 734 
61 11 693 39 545 605 287 695 551 200 448 254 393 
62 11 716 311 373 594 31 433 221 351 527 236 135 
63 11 158 632 766 96 110 600 319 552 636 202 261 
64 11 108 270 430 489 549 94 662 302 122 696 328 
65 11 304 306 344 795 548 681 507 672 715 414 310 
66 11 703 370 95 264 309 421 285 547 34 173 169 
67 11 591 268 54 349 392 614 771 689 86 302 390 
68 11 436 584 162 271 627 281 248 348 647 183 589 
69 11 19 296 697 764 796 50 537 405 524 112 168 
70 11 427 587 611 327 379 422 571 340 428 576 363 
71 11 523 814 449 677 341 573 226 586 454 765 536 
72 11 538 354 535 243 382 655 192 598 700 685 126 
73 11 75 133 18 103 585 556 360 774 812 287 456 
74 11 531 453 775 669 678 347 694 136 521 577 176 
75 11 103 73 585 556 133 287 456 812 18 117 607 
76 11 89 179 463 246 629 695 452 551 708 605 483 
77 11 425 510 533 779 334 691 186 115 224 7 637 
78 11 220 753 803 254 200 545 39 539 680 732 6 
79 11 128 234 445 413 575 273 476 439 646 28 12 
80 11 343 574 715 633 688 342 672 548 310 414 682 
81 11 419 640 742 596 486 557 283 374 408 292 616 
82 11 87 41 290 53 20 474 462 631 790 277 423 
83 11 297 466 492 770 438 150 729 353 502 214 383 
84 11 481 586 240 394 573 239 341 409 417 114 141 
85 11 410 804 58 424 756 515 777 119 508 781 571 
86 11 137 302 328 614 527 549 689 31 441 311 662 
87 11 82 41 290 20 53 474 277 790 423 462 718 
88 11 316 335 97 175 107 432 606 516 800 315 457 
89 11 76 463 629 695 179 246 551 172 452 483 605 
90 11 321 44 395 666 542 776 100 3 739 159 377 
91 11 444 569 172 47 463 188 242 572 660 227 629 
92 11 482 816 118 338 5 707 529 45 792 437 570 
93 11 36 675 291 167 767 760 802 750 280 657 124 
94 11 696 122 21 168 430 108 207 405 64 296 524 
95 11 309 66 370 703 264 285 547 169 421 34 173 
96 11 110 158 63 319 766 202 632 636 286 261 600 
97 11 107 684 88 710 316 175 241 800 358 530 560 
98 11 813 359 615 38 205 206 369 686 270 489 662 
99 11 496 617 663 4 772 788 185 661 731 735 144 
100 11 3 159 776 102 656 111 501 251 356 44 497 
101 11 762 709 55 504 401 492 297 632 600 83 208 
102 11 159 3 100 356 501 656 111 403 9 165 357 
103 11 585 75 556 133 456 73 287 117 812 746 512 
104 11 398 329 378 648 480 361 125 293 514 518 22 
105 11 42 508 235 191 229 130 777 513 442 717 410 
106 11 597 431 477 646 439 476 813 323 503 98 359 
107 11 97 800 175 684 710 241 358 88 316 315 400 
108 11 64 270 430 94 122 489 696 549 662 207 21 
109 11 288 447 312 337 521 665 136 176 387 26 230 
110 11 319 96 202 158 636 766 286 63 261 590 659 
111 11 656 403 497 501 592 282 223 251 355 102 159 
112 11 50 796 366 69 764 619 19 296 307 697 168 
113 11 780 671 755 602 488 253 470 683 330 618 166 
114 11 256 239 394 740 481 559 84 263 645 143 141 
115 11 224 637 77 623 779 603 533 425 691 510 334 
116 11 778 714 581 798 654 389 616 557 408 342 228 
117 11 260 512 685 181 139 746 724 17 393 732 448 
118 11 482 92 338 816 358 241 710 400 707 5 529 
119 11 781 364 58 245 567 643 624 515 85 247 579 
120 11 758 572 280 520 184 187 188 711 802 124 660 
121 11 170 698 536 454 763 388 449 563 149 71 814 
122 11 21 207 94 696 168 295 49 108 468 296 64 
123 11 199 233 324 146 178 238 48 534 216 604 608 
124 11 520 280 184 473 167 291 367 475 758 187 702 
125 11 518 480 514 147 378 799 8 15 809 293 407 
126 11 555 429 156 336 458 728 578 237 243 354 320 
127 11 638 626 712 417 258 232 723 409 155 33 325 
128 11 79 234 413 445 575 476 439 273 646 477 12 
129 11 272 818 371 249 667 713 460 301 743 277 303 
130 11 191 513 235 674 279 418 785 229 25 340 42 
131 11 333 470 451 154 43 791 210 757 330 755 275 
132 11 797 806 372 420 12 619 180 558 653 273 443 
133 11 103 73 75 585 556 456 685 117 655 18 287 
134 11 747 757 787 811 253 755 780 470 113 131 671 
135 11 221 195 351 649 673 201 808 269 465 788 731 
136 11 521 109 176 337 669 74 288 447 312 665 26 
137 11 328 31 441 527 86 311 302 549 807 430 614 
138 11 437 792 659 805 182 816 529 664 554 590 92 
139 11 724 393 746 448 512 181 254 260 732 803 753 
140 11 275 154 451 332 692 734 757 131 333 787 470 
141 11 240 481 33 325 559 740 263 46 416 2 417 
142 11 28 639 300 51 562 784 794 180 145 372 426 
143 11 211 394 239 645 730 727 114 256 257 550 461 
144 11 190 498 262 269 617 465 788 99 524 195 663 
145 11 455 562 784 406 259 443 397 426 525 490 625 
146 11 233 199 238 324 48 123 604 178 534 679 726 
147 11 15 518 125 480 809 472 407 514 726 799 8 
148 11 163 593 773 412 810 32 237 231 458 30 578 
149 11 607 388 170 360 774 763 18 812 121 556 75 
150 11 729 383 466 297 212 83 492 217 786 770 399 
151 11 668 284 35 56 385 23 491 219 553 570 400 
152 11 415 790 474 718 277 153 20 87 290 82 365 
153 11 725 511 485 303 415 706 743 152 402 203 658 
154 11 451 275 131 333 140 757 470 134 210 43 787 
155 11 258 232 626 499 723 127 409 417 638 677 177 
156 11 336 728 126 458 555 578 320 429 243 237 700 
157 11 609 193 267 440 566 817 173 14 252 278 289 
158 11 63 96 766 632 110 600 319 636 202 552 261 
159 11 3 100 102 776 656 111 501 356 497 251 403 
160 11 59 314 522 225 446 52 317 230 421 566 547 
161 11 541 759 743 612 303 484 713 272 346 733 402 
162 11 68 584 348 436 271 761 345 601 589 647 442 
163 11 148 593 773 412 32 704 810 565 231 237 722 
164 11 203 735 658 661 185 307 772 485 4 496 663 
165 11 357 215 14 817 102 356 289 9 650 100 159 
166 11 618 683 171 602 376 434 13 488 543 789 671 
167 11 291 124 280 675 520 473 565 802 475 750 184 
168 11 21 696 122 207 296 94 19 69 295 697 405 
169 11 748 285 173 278 274 309 204 547 676 95 193 
170 11 388 121 763 536 698 149 454 607 449 563 774 
171 11 376 789 434 166 543 618 48 604 13 178 683 
172 11 483 463 572 629 91 188 120 189 660 551 47 
173 11 193 285 547 169 748 157 264 370 609 278 703 
174 11 305 450 765 183 744 677 226 499 27 155 281 
175 11 800 315 107 37 88 97 457 670 316 358 432 
176 11 337 521 312 447 26 641 136 109 24 493 288 
177 11 647 248 499 281 815 717 258 744 183 127 589 
178 11 48 324 604 238 434 233 376 123 146 199 171 
179 11 246 452 76 500 708 244 89 463 629 695 305 
180 11 372 797 443 259 132 806 562 420 639 145 368 
181 11 732 17 260 512 139 724 117 753 393 746 803 
182 11 590 805 554 396 659 138 792 286 741 568 437 
183 11 744 281 248 499 177 647 271 155 174 258 626 
184 11 520 187 473 702 124 367 758 280 475 120 721 
185 11 661 4 537 772 735 496 99 307 164 764 663 
186 11 7 334 425 738 510 533 77 779 293 691 8 
187 11 702 184 520 473 721 711 758 367 120 124 680 
188 11 572 660 802 760 47 120 758 280 172 291 520 
189 11 551 605 483 711 695 200 680 629 120 172 187 
190 11 262 498 144 465 524 405 269 617 808 99 195 
191 11 130 513 235 674 279 229 418 785 42 340 25 
192 11 354 429 72 243 555 126 535 382 156 336 538 
193 11 157 173 609 547 267 566 285 817 440 748 169 
194 11 478 687 266 560 217 380 530 97 316 684 606 
195 11 673 808 221 465 135 269 807 498 144 649 262 
196 11 739 546 736 650 204 768 278 395 215 321 90 
197 11 750 675 565 362 657 36 163 167 93 773 412 
198 11 532 657 467 362 767 197 36 675 750 93 565 
199 11 233 123 146 324 534 238 178 48 604 679 318 
200 11 680 78 220 545 605 39 189 711 803 254 753 
201 11 649 135 351 731 788 221 269 673 195 299 308 
202 11 636 261 319 659 479 805 110 766 286 590 182 
203 11 164 485 735 658 706 661 725 299 772 185 496 
204 11 546 768 196 736 278 650 739 748 215 676 169 
205 11 615 206 369 49 528 98 295 468 653 813 207 
206 11 369 205 615 528 49 468 295 653 558 207 98 
207 11 295 21 122 49 468 168 94 696 369 528 558 
208 11 11 464 435 504 756 777 804 793 424 410 505 
209 11 583 247 577 579 294 313 347 459 694 550 567 
210 11 43 375 791 333 22 115 224 131 637 330 470 
211 11 730 727 645 143 550 257 461 313 239 394 114 
212 11 383 786 560 217 266 399 352 530 783 729 150 
213 11 471 242 27 306 450 444 436 569 627 584 91 
214 11 502 438 770 503 83 466 353 323 222 494 297 
215 11 165 357 650 14 817 739 278 102 100 356 196 
216 11 608 819 249 667 123 301 318 720 57 199 460 
217 11 266 194 478 212 687 560 383 786 530 729 352 
218 11 599 701 610 564 612 228 713 688 633 161 272 
219 11 385 284 37 56 315 668 151 40 35 400 800 
220 11 78 753 803 254 539 732 6 200 545 39 588 
221 11 135 195 673 808 351 807 465 269 649 201 498 
222 11 494 323 250 106 597 646 503 439 477 214 413 
223 11 719 769 592 282 403 355 111 501 656 265 497 
224 11 115 637 623 77 603 779 533 691 425 510 334 
225 11 59 314 160 522 421 34 703 264 370 547 698 
226 11 765 677 71 305 523 814 449 155 723 536 174 
227 11 10 47 569 660 760 188 802 572 91 93 291 
228 11 564 610 218 599 701 389 612 713 616 486 688 
229 11 235 379 191 340 130 571 279 513 611 70 327 
230 11 665 566 52 609 446 288 109 157 160 193 440 
231 11 810 526 469 381 519 782 588 751 412 578 773 
232 11 723 626 155 258 409 127 417 499 638 712 240 
233 11 146 199 238 123 324 48 178 604 534 679 434 
234 11 79 128 413 439 445 476 646 575 273 477 597 
235 11 229 191 130 513 279 340 42 379 674 105 611 
236 11 594 373 716 771 62 801 311 433 527 392 31 
237 11 458 336 578 126 156 555 30 429 728 810 148 
238 11 604 48 146 233 178 324 199 123 434 376 679 
239 11 394 114 256 143 84 645 481 740 559 211 586 
240 11 141 481 33 325 417 559 712 740 263 416 84 
241 11 710 358 118 338 482 684 400 92 107 800 97 
242 11 444 91 569 471 27 213 463 89 172 452 47 
243 11 535 354 382 700 72 156 126 555 598 538 336 
244 11 500 708 246 179 452 305 536 765 226 76 677 
245 11 326 567 459 580 119 364 247 643 577 579 620 
246 11 179 452 708 76 500 244 89 463 629 695 305 
247 11 579 294 567 459 364 209 577 29 705 245 624 
248 11 281 183 744 647 177 499 271 815 258 589 155 
249 11 667 818 608 216 301 371 460 819 720 57 129 
250 11 380 687 478 222 494 606 194 217 266 316 323 
251 11 497 391 111 265 350 656 403 377 630 159 282 
252 11 582 289 387 9 440 355 267 356 769 501 357 
253 11 134 780 811 755 113 747 671 787 757 602 292 
254 11 803 753 545 448 39 139 724 732 78 220 393 
255 11 664 479 622 529 339 261 399 437 138 659 783 
256 11 114 239 394 740 559 263 481 645 652 745 386 
257 11 461 645 550 386 730 313 211 331 652 256 29 
258 11 155 626 232 499 723 127 409 638 177 417 712 
259 11 443 406 525 490 368 595 625 145 397 455 180 
260 11 512 117 181 139 724 732 17 746 393 685 448 
261 11 636 479 202 659 255 805 339 766 437 622 664 
262 11 190 498 144 465 269 807 808 195 524 673 405 
263 11 559 740 745 2 46 141 428 481 33 325 422 
264 11 370 703 547 66 421 285 95 309 173 34 169 
265 11 282 592 497 251 403 111 223 656 719 391 501 
266 11 560 194 478 217 530 687 352 212 786 684 783 
267 11 440 157 817 14 252 289 609 582 357 193 9 
268 11 591 67 54 349 614 689 392 686 662 86 302 
269 11 144 195 673 788 465 498 808 135 262 617 649 
270 11 64 108 489 662 549 686 430 302 94 122 689 
271 11 584 281 248 183 744 647 177 68 162 815 589 
272 11 129 713 743 303 371 759 161 818 612 511 153 
273 11 445 575 12 128 132 79 372 476 797 180 28 
274 11 676 768 169 748 204 736 546 196 278 285 309 
275 11 154 140 451 131 333 757 470 210 43 134 692 
276 11 553 741 23 491 45 570 554 35 5 568 396 
277 11 718 423 474 790 460 301 87 415 152 371 82 
278 11 204 546 650 14 748 817 215 196 739 768 165 
279 11 340 513 674 418 130 25 416 191 422 785 611 
280 11 124 520 802 758 291 184 120 760 167 473 187 
281 11 248 183 744 647 177 271 499 815 258 589 155 
282 11 592 265 223 719 403 497 111 656 769 251 501 
283 11 298 374 292 57 81 419 596 720 640 486 742 
284 11 385 56 151 668 219 35 400 23 37 40 491 
285 11 169 173 547 264 370 748 309 95 66 703 193 
286 11 590 396 568 182 319 554 805 659 202 110 741 
287 11 556 456 812 693 585 61 393 746 448 103 39 
288 11 109 665 387 447 312 337 230 252 566 26 440 
289 11 9 582 252 356 355 357 440 165 501 102 14 
290 11 20 82 41 53 87 462 631 754 365 474 790 
291 11 167 280 124 802 760 520 93 675 184 473 758 
292 11 596 283 742 602 640 166 618 671 81 113 780 
293 11 7 334 425 533 186 378 779 738 77 510 514 
294 11 579 29 705 247 364 331 624 386 642 209 652 
295 11 49 207 468 369 528 122 21 558 206 168 653 
296 11 19 69 697 405 168 524 537 696 764 21 94 
297 11 83 492 466 150 729 770 438 353 383 212 502 
298 11 374 57 720 283 819 608 123 216 324 434 486 
299 11 731 663 203 706 788 496 99 201 617 649 735 
300 11 51 794 142 639 28 784 562 426 634 145 455 
301 11 460 423 277 818 371 249 608 216 667 718 318 
302 11 549 86 689 489 662 328 137 614 64 270 686 
303 11 743 511 759 402 153 541 725 706 272 161 485 
304 11 65 306 672 344 795 548 699 544 715 635 681 
305 11 765 174 226 677 500 244 450 452 708 71 155 
306 11 795 65 507 344 681 16 304 548 414 213 627 
307 11 764 661 185 658 164 537 735 4 772 796 203 
308 11 733 201 346 649 299 749 351 731 402 541 135 
309 11 95 66 285 370 264 703 169 547 748 173 421 
310 11 414 681 548 682 801 715 344 390 507 80 16 
311 11 31 527 62 137 441 594 373 716 328 807 221 
312 11 447 26 493 337 109 387 176 288 24 521 769 
313 11 550 583 730 257 461 727 209 645 211 347 386 
314 11 59 522 160 225 317 446 52 727 230 143 211 
315 11 37 175 800 457 219 670 385 56 284 400 107 
316 11 88 97 606 335 107 432 175 380 516 687 800 
317 11 446 52 727 314 522 59 160 730 211 313 550 
318 11 534 216 301 199 679 608 123 423 233 41 146 
319 11 110 202 286 636 96 590 805 261 659 182 766 
320 11 728 578 156 336 700 6 381 458 539 526 469 
321 11 395 90 44 666 542 776 739 100 3 377 650 
322 11 811 628 253 60 517 747 787 134 561 596 692 
323 11 222 494 106 597 503 646 439 477 431 476 413 
324 11 178 48 233 123 238 604 199 146 434 376 171 
325 11 33 416 25 141 712 240 418 46 785 674 481 
326 11 580 245 620 459 567 577 643 247 694 119 364 
327 11 587 427 70 422 611 428 340 379 571 2 46 
328 11 137 441 31 86 527 302 549 311 430 807 64 
329 11 648 398 361 104 378 22 293 375 779 533 334 
330 11 791 488 13 623 603 637 683 543 43 224 115 
331 11 386 652 29 705 642 294 461 363 495 576 624 
332 11 734 644 140 692 275 60 154 737 757 451 787 
333 11 131 470 451 43 791 210 154 330 755 757 275 
334 11 425 533 7 186 779 77 293 510 738 691 115 
335 11 432 516 88 316 670 457 175 606 315 107 37 
336 11 156 458 728 126 555 578 320 429 237 243 700 
337 11 176 521 312 447 26 109 136 641 493 24 288 
338 11 482 118 92 529 816 241 710 358 664 5 437 
339 11 622 255 479 552 399 261 636 664 786 766 202 
340 11 279 611 327 422 379 587 70 427 571 428 513 
341 11 573 586 814 523 84 71 394 409 563 239 449 
342 11 574 544 672 699 714 80 688 715 343 778 389 
343 11 633 688 80 484 701 612 599 218 346 161 749 
344 11 681 548 507 414 795 310 715 65 16 306 672 
345 11 761 601 442 464 348 435 162 589 105 42 777 
346 11 733 484 749 541 308 161 759 402 201 303 743 
347 11 775 531 694 669 583 209 453 74 577 313 459 
348 11 601 761 442 589 345 815 42 717 105 162 647 
349 11 614 689 54 86 591 302 268 392 549 662 67 
350 11 391 630 509 251 377 497 265 776 111 282 656 
351 11 135 221 201 649 673 195 808 269 433 62 731 
352 11 783 530 786 399 560 684 622 255 266 529 664 
353 11 404 438 502 83 492 297 770 466 214 150 729 
354 11 243 535 382 72 192 538 700 126 555 598 156 
355 11 501 9 769 356 223 403 111 289 582 656 719 
356 11 9 102 501 355 289 656 111 357 403 159 165 
357 11 165 215 14 817 289 356 9 102 100 159 650 
358 11 710 241 400 118 800 338 482 92 107 56 684 
359 11 813 98 38 615 686 205 489 662 206 270 369 
360 11 774 18 149 752 763 388 73 607 170 34 75 
361 11 648 22 329 375 398 104 210 378 779 43 115 
362 11 704 197 163 593 750 467 32 565 722 148 773 
363 11 495 576 642 427 624 70 587 652 705 428 327 
364 11 579 294 247 567 624 781 29 705 119 642 459 
365 11 754 20 462 290 631 366 152 53 82 41 50 
366 11 112 50 365 754 796 462 621 631 420 20 764 
367 11 475 473 487 702 184 520 187 721 124 519 751 
368 11 595 621 490 525 625 443 259 406 397 631 754 
369 11 206 49 528 205 295 468 615 653 207 558 122 
370 11 264 703 66 547 421 285 95 309 34 173 169 
371 11 818 460 277 423 129 301 718 249 667 790 474 
372 11 180 797 132 806 443 420 259 368 562 525 595 
373 11 716 594 62 236 311 433 527 31 351 221 801 
374 11 298 283 57 720 486 819 419 81 640 667 249 
375 11 22 210 43 361 648 115 224 329 637 779 791 
376 11 171 434 789 48 178 604 166 543 618 13 324 
377 11 630 776 391 350 251 509 542 44 666 3 100 
378 11 398 293 125 514 7 329 334 425 533 518 104 
379 11 571 611 70 427 327 340 587 422 229 279 428 
380 11 606 687 478 194 316 88 266 97 335 516 217 
381 11 526 469 588 6 231 320 810 539 578 782 728 
382 11 535 243 700 354 598 538 72 156 320 728 126 
383 11 212 786 729 150 217 399 560 266 352 530 783 
384 11 690 737 561 644 734 332 692 60 322 411 787 
385 11 284 56 219 151 668 37 400 35 315 23 800 
386 11 331 652 461 29 705 257 294 645 642 363 495 
387 11 252 582 447 312 288 440 289 9 769 355 26 
388 11 170 149 763 121 607 536 698 360 774 454 449 
389 11 778 616 228 564 610 599 218 116 557 688 701 
390 11 801 771 392 236 594 310 373 682 716 16 414 
391 11 350 630 509 251 377 497 265 776 111 282 656 
392 11 771 236 390 614 594 349 801 373 527 86 716 
393 11 746 724 139 448 512 254 260 181 39 732 545 
394 11 239 114 256 143 84 586 645 481 341 573 211 
395 11 321 90 44 666 739 542 650 196 776 100 215 
396 11 554 590 568 182 286 741 805 659 792 138 276 
397 11 625 406 490 525 595 368 259 455 621 53 443 
398 11 378 329 104 293 648 334 425 533 779 125 480 
399 11 783 786 622 352 255 339 530 664 529 479 560 
400 11 56 358 118 707 710 800 241 284 385 92 5 
401 11 55 709 101 504 762 632 63 158 600 96 766 
402 11 511 706 485 725 303 759 541 743 153 299 203 
403 11 111 656 501 497 592 223 282 355 265 719 769 
404 11 353 502 438 492 83 297 214 770 466 762 101 
405 11 524 697 19 190 296 537 4 144 262 69 696 
406 11 397 525 625 490 259 455 145 443 595 368 621 
407 11 809 15 799 8 514 518 147 726 125 738 238 
408 11 557 628 654 640 742 81 419 616 596 486 292 
409 11 723 417 232 626 84 127 240 638 155 258 712 
410 11 804 85 777 508 515 229 571 756 105 235 379 
411 11 561 517 322 384 737 690 628 654 60 581 408 
412 11 773 148 231 163 487 810 519 751 782 475 526 
413 11 439 646 476 128 234 477 597 79 575 445 431 
414 11 310 681 548 344 715 682 507 801 390 80 16 
415 11 152 790 718 474 277 153 20 87 423 82 371 
416 11 25 418 325 674 785 33 46 279 712 513 141 
417 11 409 240 638 127 712 33 723 141 626 232 325 
418 11 674 25 416 785 279 513 325 33 130 712 46 
419 11 81 640 742 486 596 557 283 374 408 292 616 
420 11 806 797 132 619 372 366 368 443 621 112 595 
421 11 703 34 370 264 66 547 225 95 285 309 160 
422 11 327 587 428 427 70 340 611 46 2 745 379 
423 11 460 301 277 718 474 790 87 371 82 818 41 
424 11 58 756 85 505 804 119 410 643 651 515 777 
425 11 334 533 186 779 7 77 510 293 738 691 115 
426 11 634 472 794 784 51 455 145 147 562 480 300 
427 11 70 587 327 611 422 379 571 428 340 576 363 
428 11 2 422 745 327 587 46 427 70 263 611 340 
429 11 555 126 336 156 458 192 237 728 243 354 30 
430 11 64 94 108 262 696 441 190 498 270 328 465 
431 11 477 597 106 476 439 646 205 615 206 413 813 
432 11 335 516 88 670 457 316 175 315 606 37 107 
433 11 716 62 373 351 594 135 221 236 201 311 308 
434 11 376 178 171 48 324 604 166 238 618 789 123 
435 11 464 442 345 761 601 11 777 208 508 348 105 
436 11 68 584 627 162 271 281 248 183 450 647 744 
437 11 138 529 664 659 792 816 805 92 182 479 255 
438 11 502 770 214 83 353 466 297 492 404 729 150 
439 11 646 413 476 597 477 431 128 234 575 79 106 
440 11 267 252 289 582 157 817 387 14 9 609 357 
441 11 31 137 328 807 311 465 527 808 195 430 498 
442 11 601 761 348 345 435 464 105 42 589 508 777 
443 11 259 368 525 490 406 595 625 180 372 621 797 
444 11 91 242 569 172 463 89 629 47 76 483 452 
445 11 273 575 12 128 79 476 234 413 132 439 28 
446 11 52 317 59 230 160 314 522 665 727 566 669 
447 11 312 26 337 493 109 387 176 288 24 521 252 
448 11 393 724 139 746 254 39 545 803 512 753 181 
449 11 454 536 71 814 523 563 698 121 341 573 586 
450 11 27 174 183 305 744 271 281 248 584 765 452 
451 11 154 131 333 275 470 757 43 210 140 791 134 
452 11 179 246 500 76 708 244 89 305 463 629 444 
453 11 531 74 694 775 678 347 620 669 577 459 209 
454 11 449 536 698 563 121 71 814 523 341 573 586 
455 11 145 406 784 562 259 397 443 472 525 625 426 
456 11 746 287 393 448 585 724 139 512 117 260 556 
457 11 670 315 37 432 175 335 219 516 800 88 385 
458 11 336 578 156 728 237 126 555 320 429 810 381 
459 11 577 567 247 245 579 326 209 694 364 294 620 
460 11 301 423 277 371 818 718 249 474 790 667 87 
461 11 257 645 386 550 331 730 652 313 211 29 256 
462 11 631 754 20 290 53 365 41 82 87 621 366 
463 11 629 89 695 76 172 483 551 189 605 91 444 
464 11 435 345 442 761 11 601 208 777 348 508 105 
465 11 498 808 195 673 807 262 269 144 190 221 135 
466 11 729 83 770 150 297 492 438 383 212 217 214 
467 11 362 704 532 722 32 593 197 163 148 30 540 
468 11 49 295 528 558 207 369 653 206 21 122 168 
469 11 526 588 381 231 782 6 751 519 810 539 320 
470 11 131 333 791 451 755 330 43 113 488 780 671 
471 11 213 242 569 444 10 227 91 47 27 172 304 
472 11 426 147 634 455 480 15 125 145 518 726 784 
473 11 367 475 184 702 520 124 187 487 721 280 758 
474 11 790 718 277 152 415 87 82 423 20 290 41 
475 11 367 487 473 702 184 124 520 519 751 187 721 
476 11 439 646 413 477 597 431 575 128 445 273 234 
477 11 597 431 476 439 646 106 413 575 12 205 445 
478 11 687 194 266 380 217 560 606 316 97 530 88 
479 11 261 255 664 659 636 202 437 622 339 529 138 
480 11 125 518 147 514 378 398 15 104 799 8 293 
481 11 141 240 740 559 263 33 325 84 46 417 745 
482 11 92 338 118 816 529 5 241 707 358 710 437 
483 11 189 551 172 605 711 629 695 120 463 758 680 
484 11 346 733 749 541 161 308 759 633 402 343 743 
485 11 725 706 203 164 153 402 511 658 299 735 661 
486 11 374 419 81 283 640 57 298 557 616 720 742 
487 11 475 367 519 473 751 782 702 721 412 773 184 
488 11 683 330 602 671 13 113 618 780 791 755 166 
489 11 662 686 270 549 302 64 689 108 86 38 328 
490 11 525 625 595 368 397 406 621 259 443 631 53 
491 11 553 35 506 23 151 668 276 40 284 570 45 
492 11 297 83 466 353 150 729 438 770 101 404 502 
493 11 26 24 312 613 447 769 719 223 337 387 176 
494 11 222 323 250 106 646 597 439 503 477 413 431 
495 11 576 363 642 427 587 652 70 428 327 624 705 
496 11 99 772 4 663 617 185 661 735 537 788 731 
497 11 111 656 251 403 265 282 592 501 159 223 3 
498 11 262 465 190 144 269 808 195 673 807 524 617 
499 11 258 155 177 626 744 183 232 127 248 281 723 
500 11 244 708 246 179 452 305 76 765 226 89 536 
501 11 656 111 403 355 356 102 497 9 223 159 592 
502 11 438 214 353 770 83 466 404 297 503 492 268 
503 11 359 813 38 106 98 323 54 686 431 615 214 
504 11 762 208 101 401 709 793 11 55 464 756 435 
505 11 651 424 756 58 793 643 85 119 804 11 410 
506 11 491 35 553 40 151 668 23 276 284 385 219 
507 11 795 16 681 344 414 306 548 310 390 65 715 
508 11 777 105 410 804 229 235 42 191 130 85 571 
509 11 630 350 391 377 251 497 776 265 542 666 44 
510 11 691 77 186 738 425 7 334 533 779 603 623 
511 11 303 402 153 743 725 706 485 759 541 203 299 
512 11 260 117 181 139 724 746 393 732 17 448 685 
513 11 130 191 674 279 418 785 25 235 340 416 229 
514 11 518 8 799 125 407 809 293 7 15 378 738 
515 11 571 781 379 70 611 427 624 642 363 587 576 
516 11 335 432 88 316 606 670 457 175 315 380 107 
517 11 322 628 654 408 561 411 557 742 596 640 81 
518 11 514 125 799 8 15 809 147 407 480 378 293 
519 11 751 782 487 231 469 526 588 381 721 367 475 
520 11 184 124 473 187 280 758 702 367 120 475 291 
521 11 136 176 337 109 447 312 288 26 641 74 669 
522 11 314 59 160 225 317 446 727 52 143 211 563 
523 11 814 71 341 573 586 449 677 226 454 409 723 
524 11 405 697 190 19 537 144 4 296 262 99 617 
525 11 490 625 595 368 406 397 621 259 443 631 53 
526 11 469 381 588 231 782 6 751 810 519 320 539 
527 11 31 137 311 328 86 441 594 62 614 373 302 
528 11 468 653 558 49 369 295 206 207 205 615 21 
529 11 664 437 338 482 255 816 92 138 118 479 792 
530 11 352 783 560 684 786 399 266 241 97 710 338 
531 11 775 453 694 74 347 669 577 678 583 209 620 
532 11 467 362 657 197 198 767 750 36 675 704 565 
533 11 425 779 334 77 7 186 293 510 115 224 691 
534 11 318 199 679 146 233 123 216 238 324 608 726 
535 11 382 243 354 700 598 72 538 156 126 555 192 
536 11 449 454 121 698 170 71 523 563 814 226 388 
537 11 185 4 661 697 772 764 496 19 99 307 524 
538 11 72 535 598 655 382 354 243 685 700 17 192 
539 11 6 588 381 320 220 469 526 700 17 753 732 
540 11 30 429 722 32 192 126 237 555 458 336 156 
541 11 759 161 402 303 346 733 743 511 484 308 706 
542 11 666 44 90 321 377 776 395 3 100 630 159 
543 11 13 603 623 789 691 683 637 510 171 77 224 
544 11 699 342 672 574 714 80 715 798 116 688 778 
545 11 39 254 448 803 753 724 139 393 78 746 220 
546 11 204 196 768 736 650 739 278 215 748 676 395 
547 11 264 370 173 703 285 193 66 421 169 95 309 
548 11 344 414 681 715 310 507 80 672 795 65 574 
549 11 302 489 662 689 86 64 328 270 137 686 108 
550 11 313 730 257 461 645 211 727 583 386 209 331 
551 11 605 189 695 483 629 200 711 463 680 61 172 
552 11 600 339 766 261 622 636 632 479 63 158 202 
553 11 491 276 23 35 506 151 668 570 45 741 707 
554 11 396 182 590 741 568 792 805 286 138 659 45 
555 11 126 429 156 336 458 728 243 578 237 354 192 
556 11 287 585 812 75 103 456 73 693 746 393 448 
557 11 408 616 419 81 640 742 654 486 628 596 389 
558 11 468 528 653 49 295 619 207 369 206 21 168 
559 11 740 263 745 2 481 46 141 428 33 240 256 
560 11 266 530 352 783 786 194 684 212 399 97 217 
561 11 737 322 384 60 517 411 644 692 690 811 787 
562 11 784 145 455 259 639 180 443 794 406 51 426 
563 11 454 698 449 341 573 586 814 523 71 121 143 
564 11 228 610 218 599 701 612 713 389 688 486 616 
565 11 750 675 167 773 412 475 487 197 367 163 473 
566 11 609 230 665 157 193 267 288 440 52 109 387 
567 11 459 247 245 364 579 577 294 326 119 209 781 
568 11 396 554 286 590 182 741 805 276 792 659 138 
569 11 91 227 47 10 444 660 188 172 242 572 760 
570 11 45 707 5 23 792 816 92 741 276 151 118 
571 11 379 611 70 427 587 327 340 229 422 515 428 
572 11 188 660 120 802 760 758 47 280 172 520 124 
573 11 341 586 814 523 84 71 394 409 563 239 449 
574 11 342 80 672 544 715 688 343 699 633 714 548 
575 11 445 273 12 476 128 79 413 439 477 234 132 
576 11 495 363 642 427 587 70 327 428 652 624 705 
577 11 459 694 209 247 567 579 347 531 775 583 453 
578 11 728 458 336 156 320 810 237 126 381 555 526 
579 11 247 294 364 209 567 29 459 705 577 624 331 
580 11 326 245 620 643 459 567 577 119 247 694 364 
581 11 798 116 714 654 778 389 616 699 408 544 557 
582 11 252 289 9 387 355 440 356 769 501 267 223 
583 11 313 209 347 550 775 257 461 577 694 730 579 
584 11 271 68 436 162 281 248 183 647 744 177 450 
585 11 103 75 456 556 287 133 117 746 393 512 260 
586 11 341 573 814 84 523 71 394 409 239 563 723 
587 11 327 427 70 422 611 428 340 379 571 2 576 
588 11 469 526 381 6 782 539 751 231 519 320 810 
589 11 815 717 647 348 177 42 601 105 248 281 442 
590 11 182 396 554 286 805 568 659 138 741 792 319 
591 11 67 268 54 349 392 614 689 771 86 302 662 
592 11 282 223 265 719 403 111 497 656 769 501 355 
593 11 32 148 163 704 722 30 237 773 412 810 458 
594 11 373 236 716 62 311 527 31 433 771 137 441 
595 11 368 490 525 621 625 397 259 406 443 631 754 
596 11 742 640 81 292 419 283 408 628 374 557 486 
597 11 477 431 476 106 439 646 413 575 12 205 615 
598 11 382 535 700 17 538 243 354 72 181 685 732 
599 11 218 701 610 564 228 612 688 713 633 343 161 
600 11 552 632 766 63 158 339 636 261 202 622 479 
601 11 442 761 348 345 435 589 105 464 42 815 508 
602 11 671 113 488 780 618 683 166 755 330 13 292 
603 11 623 637 543 691 13 224 115 77 510 330 789 
604 11 48 238 178 324 146 233 376 434 171 199 123 
605 11 551 189 695 483 200 680 711 61 629 693 39 
606 11 380 316 88 516 687 335 432 478 194 97 107 
607 11 149 812 388 170 556 287 360 18 763 774 75 
608 11 216 249 667 819 301 720 57 123 318 460 818 
609 11 566 157 193 267 440 230 665 173 817 288 547 
610 11 599 218 701 564 228 612 688 713 633 389 161 
611 11 70 379 327 427 587 571 340 422 428 279 229 
612 11 713 701 218 599 161 610 633 272 564 759 228 
613 11 24 493 719 26 223 592 282 769 265 312 403 
614 11 86 349 689 302 527 137 328 549 31 311 662 
615 11 205 206 369 98 813 49 528 295 468 359 653 
616 11 557 389 778 408 486 419 228 654 81 564 640 
617 11 99 663 496 788 4 772 144 731 269 185 735 
618 11 166 683 602 171 488 376 13 543 434 789 671 
619 11 558 806 112 420 468 132 653 528 168 295 21 
620 11 326 580 453 694 459 577 245 531 678 567 74 
621 11 368 595 490 525 625 631 754 462 53 366 397 
622 11 339 255 399 479 664 783 786 261 529 352 552 
623 11 603 637 224 115 691 13 543 77 510 330 779 
624 11 642 705 781 29 363 495 576 364 294 331 652 
625 11 490 525 397 595 368 406 621 259 443 631 53 
626 11 258 232 127 723 155 409 638 417 499 712 177 
627 11 436 68 16 162 584 507 795 306 271 213 681 
628 11 408 742 557 640 596 654 81 419 322 517 616 
629 11 463 695 89 551 483 76 172 189 605 711 61 
630 11 350 509 391 377 251 776 497 542 265 3 44 
631 11 462 754 53 290 20 41 621 82 365 87 595 
632 11 63 158 600 766 552 96 110 636 202 319 261 
633 11 343 688 612 701 599 218 484 161 610 713 346 
634 11 426 472 794 51 784 147 480 145 300 455 125 
635 11 699 544 304 672 342 798 581 714 65 574 116 
636 11 202 261 479 766 319 659 110 805 255 339 590 
637 11 224 623 115 603 77 691 13 510 543 779 330 
638 11 712 127 417 33 325 25 626 785 416 240 418 
639 11 142 28 562 300 784 180 51 794 372 145 259 
640 11 81 742 419 596 557 283 292 408 486 374 628 
641 11 24 176 337 26 493 312 521 613 447 136 109 
642 11 363 624 495 576 705 29 331 652 781 427 70 
643 11 245 651 58 119 580 326 424 567 505 364 459 
644 11 692 734 332 60 737 140 787 747 811 757 275 
645 11 257 461 730 211 550 386 727 256 143 313 114 
646 11 439 413 476 597 477 431 128 234 575 106 79 
647 11 177 248 815 281 589 717 183 499 744 271 258 
648 11 361 329 22 398 375 104 378 293 779 210 533 
649 11 201 135 731 788 269 351 673 195 221 299 617 
650 11 739 196 546 215 204 278 736 165 768 395 357 
651 11 505 643 424 58 580 119 245 756 85 326 793 
652 11 331 386 705 29 495 363 576 642 461 257 624 
653 11 528 558 468 369 49 206 295 205 619 207 12 
654 11 408 557 616 116 628 778 389 81 419 640 742 
655 11 538 685 72 598 117 535 382 354 243 260 17 
656 11 111 403 501 497 102 159 251 355 356 592 3 
657 11 36 767 197 675 93 750 167 565 291 362 760 
658 11 164 203 307 735 661 485 725 185 764 772 706 
659 11 805 138 182 437 590 202 479 261 636 792 554 
660 11 188 572 760 802 47 120 280 758 291 172 124 
661 11 185 735 772 4 164 496 537 307 99 203 663 
662 11 489 686 549 689 302 270 64 108 86 38 328 
663 11 99 496 617 731 772 788 4 735 185 299 661 
664 11 529 255 437 479 138 338 482 816 92 622 659 
665 11 230 288 566 109 609 52 387 440 157 267 447 
666 11 542 44 90 321 395 776 377 3 100 159 630 
667 11 249 818 608 216 819 720 57 301 371 460 129 
668 11 151 284 35 56 385 23 491 219 553 570 400 
669 11 775 347 74 531 136 453 694 583 521 52 678 
670 11 457 315 37 432 335 175 516 219 88 800 385 
671 11 113 780 602 755 488 683 618 166 330 470 253 
672 11 574 342 544 715 699 80 548 344 65 414 343 
673 11 195 808 221 465 135 269 807 498 649 144 351 
674 11 418 25 785 513 279 416 130 191 325 340 712 
675 11 750 167 36 565 93 197 291 124 657 280 475 
676 11 274 768 736 204 546 748 169 196 278 739 650 
677 11 226 765 71 523 814 155 723 232 305 258 409 
678 11 74 453 531 775 694 136 521 669 620 347 176 
679 11 726 534 146 199 233 318 238 407 809 15 123 
680 11 200 711 721 187 702 78 189 220 605 184 751 
681 11 344 414 548 507 310 795 16 715 390 801 682 
682 11 801 433 749 310 716 373 236 346 733 484 594 
683 11 618 13 488 166 543 602 330 171 603 789 623 
684 11 97 241 530 710 107 352 783 358 560 338 118 
685 11 117 260 655 512 17 181 538 598 732 139 72 
686 11 662 489 38 689 270 549 302 64 108 359 98 
687 11 478 194 380 266 217 606 316 560 88 97 530 
688 11 599 701 633 218 610 343 612 228 564 80 389 
689 11 302 549 662 86 489 614 686 349 328 137 270 
690 11 384 737 561 644 734 332 692 60 411 322 787 
691 11 510 77 603 623 543 186 637 738 425 789 7 
692 11 60 644 787 747 811 757 734 134 140 332 154 
693 11 61 39 545 287 448 393 746 254 724 456 139 
694 11 531 577 775 347 453 209 459 74 583 620 669 
695 11 551 629 605 189 463 483 89 76 61 172 200 
696 11 94 21 122 168 296 405 207 430 524 19 697 
697 11 19 296 69 405 537 524 764 4 185 772 307 
698 11 121 454 563 449 536 170 763 388 225 814 71 
699 11 544 342 672 574 714 798 581 116 635 80 715 
700 11 382 535 243 598 320 728 156 354 336 539 17 
701 11 218 599 610 612 564 228 713 688 633 161 343 
702 11 187 184 473 721 367 520 475 487 711 124 758 
703 11 370 264 66 421 547 95 34 285 309 173 169 
704 11 722 32 593 163 148 362 30 540 237 773 412 
705 11 29 331 642 624 652 294 386 363 495 576 364 
706 11 485 725 402 203 299 511 164 153 658 735 303 
707 11 5 45 570 92 816 23 118 482 792 400 56 
708 11 244 500 246 179 452 76 305 89 536 607 388 
709 11 101 55 762 401 504 632 600 63 492 158 552 
710 11 241 358 118 338 684 800 400 107 482 92 97 
711 11 680 187 189 702 758 120 721 184 483 520 200 
712 11 638 25 325 33 785 416 127 418 417 240 674 
713 11 612 272 161 218 701 129 599 610 564 759 743 
714 11 116 778 798 581 389 342 544 654 699 616 574 
715 11 548 80 414 672 574 310 344 681 343 342 682 
716 11 373 62 594 433 236 311 31 351 527 221 135 
717 11 815 589 177 647 42 191 785 130 513 638 127 
718 11 790 474 277 415 152 423 460 87 371 82 301 
719 11 223 592 769 282 403 355 265 111 501 656 497 
720 11 57 819 298 608 667 216 374 249 123 283 818 
721 11 702 187 680 367 751 473 519 782 184 711 487 
722 11 32 704 593 30 540 148 163 237 429 458 555 
723 11 232 409 626 155 258 417 127 638 499 240 84 
724 11 139 393 746 448 512 254 260 181 732 803 753 
725 11 485 706 153 203 511 402 164 658 299 735 303 
726 11 679 15 809 407 147 146 534 233 238 199 518 
727 11 211 730 550 317 645 313 143 257 461 583 522 
728 11 578 156 336 320 458 126 555 700 381 237 810 
729 11 150 466 383 212 297 83 217 770 786 492 266 
730 11 211 727 550 645 257 313 461 143 583 317 386 
731 11 788 663 649 617 299 99 201 269 496 144 772 
732 11 181 17 753 139 803 260 254 512 724 393 448 
733 11 346 484 749 308 541 759 161 402 201 299 351 
734 11 332 644 692 140 275 60 154 737 757 787 747 
735 11 661 164 772 185 4 203 496 99 663 307 537 
736 11 768 196 546 204 739 650 676 278 395 274 215 
737 11 384 644 690 561 734 692 60 332 787 747 811 
738 11 186 7 510 334 425 691 77 8 533 799 293 
739 11 196 650 546 204 395 736 768 215 90 321 278 
740 11 559 263 745 2 481 141 46 256 240 428 33 
741 11 554 396 276 792 182 45 568 590 570 5 138 
742 11 640 596 81 419 292 408 283 557 628 486 374 
743 11 303 759 511 402 153 541 272 161 725 706 485 
744 11 183 248 281 499 177 647 258 155 174 271 626 
745 11 2 263 46 428 559 740 422 327 587 427 141 
746 11 393 724 139 448 512 260 181 254 117 456 732 
747 11 787 811 134 757 60 253 692 755 780 470 113 
748 11 169 285 278 173 204 546 274 676 193 768 547 
749 11 733 346 484 308 433 541 351 682 201 161 649 
750 11 565 675 197 167 291 773 36 475 412 93 124 
751 11 519 782 469 526 588 231 487 721 381 367 475 
752 11 95 774 309 360 66 34 703 370 18 421 264 
753 11 803 254 220 732 78 139 181 448 545 724 17 
754 11 462 631 365 20 290 53 621 366 41 82 87 
755 11 780 113 671 602 488 470 253 134 330 683 131 
756 11 424 85 804 58 410 777 505 11 508 208 515 
757 11 134 747 787 811 154 470 131 451 755 333 253 
758 11 120 520 184 280 187 124 572 711 702 802 188 
759 11 541 743 303 161 402 511 153 272 706 725 346 
760 11 802 660 188 280 291 572 47 120 124 758 167 
761 11 601 345 442 348 435 464 589 105 162 42 815 
762 11 101 709 504 55 401 208 492 297 11 353 404 
763 11 170 388 121 698 149 34 774 360 536 454 225 
764 11 307 537 796 69 185 697 19 50 661 4 296 
765 11 226 677 305 71 174 523 155 814 232 723 258 
766 11 158 636 63 552 202 110 261 600 632 96 319 
767 11 36 93 657 675 291 10 167 760 197 227 750 
768 11 736 546 204 196 739 650 676 278 274 748 395 
769 11 223 719 355 592 403 501 282 9 111 582 656 
770 11 466 438 83 214 502 729 297 150 492 353 217 
771 11 392 236 594 801 373 390 614 527 716 349 86 
772 11 4 496 185 661 99 735 663 537 617 164 203 
773 11 412 148 163 231 487 810 519 565 751 475 782 
774 11 360 18 752 149 763 388 607 73 34 170 75 
775 11 347 531 669 694 74 453 583 577 209 313 678 
776 11 3 100 159 44 377 90 102 542 666 251 656 
777 11 508 804 410 105 85 756 229 435 235 42 442 
778 11 389 116 616 714 654 557 228 564 610 408 581 
779 11 533 425 77 334 115 186 7 224 510 293 691 
780 11 113 755 671 602 488 253 470 683 134 330 618 
781 11 624 515 364 642 119 705 363 495 576 29 294 
782 11 751 519 469 526 588 231 381 487 721 6 810 
783 11 352 530 399 786 684 560 622 255 664 529 338 
784 11 562 145 794 455 51 426 300 639 634 472 259 
785 11 25 418 674 416 513 712 279 325 130 191 33 
786 11 399 352 783 530 212 560 622 383 339 255 266 
787 11 747 811 134 757 60 253 692 755 154 470 780 
788 11 731 617 269 663 99 649 144 496 201 135 299 
789 11 171 543 376 691 13 510 603 623 738 77 683 
790 11 474 718 152 415 277 87 423 82 20 460 290 
791 11 330 43 637 210 623 224 333 470 488 603 115 
792 11 138 816 5 45 437 182 554 741 707 92 570 
793 11 505 504 651 208 756 424 11 58 85 643 804 
794 11 51 300 426 784 634 562 145 472 142 639 455 
795 11 507 306 344 681 16 65 548 414 310 715 390 
796 11 50 764 112 69 307 19 366 697 296 537 185 
797 11 372 806 132 180 420 443 259 619 368 12 595 
798 11 581 116 714 778 654 389 699 544 342 616 408 
799 11 8 514 407 518 809 738 7 186 15 293 125 
800 11 175 358 107 315 710 400 241 37 56 97 385 
801 11 236 390 682 373 771 594 716 392 433 62 310 
802 11 760 280 660 188 291 572 120 124 758 520 167 
803 11 753 254 220 78 732 545 139 448 724 39 181 
804 11 410 777 85 508 756 515 229 105 424 58 235 
805 11 659 182 590 138 396 437 554 286 792 202 261 
806 11 420 797 132 372 619 180 443 368 112 366 558 
807 11 808 465 195 673 221 441 498 262 269 31 135 
808 11 195 673 465 807 221 269 135 498 262 144 190 
809 11 407 15 799 8 518 514 147 726 125 738 679 
810 11 231 578 381 526 469 458 237 728 588 320 336 
811 11 747 787 134 253 757 60 692 755 780 113 671 
812 11 556 287 607 693 75 456 61 585 103 149 393 
813 11 98 359 38 615 205 206 686 369 270 489 662 
814 11 523 71 341 573 586 449 454 677 226 563 84 
815 11 589 717 647 177 42 348 248 281 191 127 130 
816 11 92 482 5 118 792 707 338 437 45 138 529 
817 11 14 267 357 165 215 440 278 289 157 9 252 
818 11 371 249 667 460 129 301 423 277 608 216 718 
819 11 720 57 608 216 667 298 249 374 123 818 199 
DEPOT_SECTION
   1
   -1
EOF
