NAME :  X-n876-kX-w175-c9.cctp
COMMENT : 	Adapted by Maziero, Usberti and Cavellucci from the Uchoa, Pecin, Pessoa, Poggi, Subramanian, and Vidal (2013)
TYPE :  CCTP
DIMENSION :    800
EDGE_WEIGHT_TYPE : 	EUC_2D	
CAPACITY : 	764
VERTICES_WITHIN_COVERAGE :  9
VERTICES_WITH_DEMAND : 	175
NODE_COORD_SECTION
1 0 0
2 205 638
3 893 161
4 191 775
5 444 871
6 225 445
7 226 456
8 301 566
9 140 746
10 196 791
11 356 894
12 876 165
13 56 653
14 845 153
15 139 808
16 418 823
17 94 422
18 928 162
19 341 981
20 209 815
21 172 705
22 374 765
23 291 847
24 890 163
25 250 591
26 970 235
27 251 857
28 260 618
29 162 764
30 906 149
31 247 471
32 191 464
33 587 796
34 198 622
35 878 157
36 346 812
37 435 818
38 61 783
39 362 765
40 612 859
41 194 515
42 17 446
43 903 248
44 224 732
45 225 847
46 397 945
47 215 418
48 226 733
49 972 221
50 142 476
51 168 895
52 200 480
53 119 633
54 336 808
55 499 899
56 777 171
57 476 870
58 792 163
59 288 812
60 198 613
61 336 674
62 137 629
63 325 333
64 504 837
65 230 635
66 152 785
67 280 381
68 157 615
69 919 211
70 292 398
71 222 739
72 828 150
73 208 442
74 197 773
75 877 170
76 143 623
77 99 543
78 389 437
79 161 762
80 252 631
81 57 741
82 186 706
83 167 827
84 198 737
85 150 707
86 205 347
87 38 861
88 986 232
89 348 608
90 209 620
91 45 650
92 123 656
93 189 796
94 745 402
95 223 504
96 371 909
97 173 748
98 300 680
99 519 907
100 912 247
101 486 851
102 351 603
103 361 802
104 345 809
105 300 669
106 184 781
107 95 678
108 341 854
109 850 357
110 277 718
111 398 817
112 595 938
113 251 511
114 256 570
115 139 720
116 439 977
117 152 784
118 239 824
119 204 615
120 203 430
121 201 538
122 305 605
123 257 811
124 210 654
125 896 5
126 469 802
127 608 873
128 456 878
129 298 404
130 364 459
131 193 936
132 225 517
133 878 171
134 889 224
135 246 643
136 903 67
137 188 667
138 74 625
139 891 34
140 166 625
141 352 593
142 852 122
143 738 166
144 226 451
145 289 331
146 902 312
147 290 350
148 949 143
149 853 187
150 331 440
151 388 908
152 379 421
153 113 576
154 443 857
155 228 825
156 223 473
157 236 677
158 276 929
159 935 243
160 948 144
161 420 893
162 296 718
163 265 621
164 750 158
165 163 734
166 138 677
167 706 133
168 494 871
169 431 620
170 785 201
171 59 888
172 200 544
173 62 591
174 248 791
175 450 874
176 66 681
177 716 135
178 902 193
179 271 663
180 143 633
181 264 607
182 125 615
183 903 146
184 192 766
185 920 407
186 207 406
187 368 628
188 258 369
189 496 929
190 198 597
191 883 141
192 253 331
193 928 241
194 217 778
195 827 143
196 758 327
197 9 757
198 164 879
199 584 811
200 880 217
201 208 811
202 891 43
203 712 541
204 222 501
205 561 983
206 203 458
207 841 201
208 399 849
209 405 922
210 413 793
211 122 590
212 134 553
213 246 457
214 506 813
215 286 652
216 851 207
217 274 658
218 298 692
219 280 567
220 186 782
221 171 696
222 590 986
223 271 633
224 308 909
225 941 128
226 119 877
227 125 758
228 413 530
229 102 856
230 440 612
231 503 909
232 200 669
233 311 931
234 270 504
235 846 9
236 857 70
237 198 543
238 67 565
239 240 696
240 34 561
241 886 161
242 205 442
243 209 600
244 253 812
245 251 877
246 907 166
247 410 893
248 475 886
249 846 170
250 799 232
251 307 561
252 281 561
253 356 706
254 685 879
255 221 776
256 766 256
257 139 792
258 188 458
259 462 208
260 990 280
261 425 862
262 132 617
263 317 742
264 264 341
265 324 634
266 469 950
267 27 749
268 219 393
269 351 815
270 921 173
271 449 874
272 256 693
273 669 859
274 903 164
275 159 801
276 323 607
277 891 152
278 440 836
279 210 737
280 191 758
281 900 213
282 828 139
283 181 452
284 359 351
285 178 757
286 44 689
287 186 659
288 314 859
289 658 1
290 453 791
291 425 948
292 173 424
293 149 514
294 214 648
295 277 686
296 516 905
297 278 844
298 461 796
299 78 694
300 144 616
301 41 715
302 213 755
303 205 785
304 157 504
305 166 607
306 66 652
307 400 881
308 242 589
309 385 910
310 153 665
311 67 514
312 228 344
313 579 475
314 614 815
315 735 79
316 4 658
317 427 846
318 19 918
319 327 672
320 956 153
321 224 587
322 392 748
323 886 154
324 249 734
325 812 115
326 414 635
327 608 925
328 397 947
329 217 460
330 214 448
331 164 620
332 230 662
333 935 216
334 201 694
335 94 787
336 461 857
337 171 743
338 35 898
339 856 88
340 264 895
341 292 579
342 316 750
343 557 864
344 192 747
345 790 501
346 859 177
347 202 584
348 418 862
349 154 613
350 278 613
351 116 568
352 367 501
353 355 974
354 270 414
355 199 663
356 753 185
357 611 937
358 389 841
359 493 814
360 467 883
361 196 686
362 979 283
363 671 251
364 299 613
365 175 481
366 246 965
367 78 763
368 292 719
369 303 526
370 452 889
371 255 855
372 412 741
373 179 436
374 420 960
375 899 140
376 365 372
377 378 855
378 567 731
379 826 202
380 250 767
381 513 894
382 881 116
383 370 942
384 104 402
385 31 560
386 417 940
387 798 198
388 495 914
389 894 162
390 154 817
391 94 373
392 528 792
393 234 636
394 461 894
395 167 289
396 56 594
397 140 517
398 234 489
399 318 719
400 994 143
401 77 565
402 224 758
403 464 893
404 281 604
405 443 852
406 961 214
407 183 785
408 186 551
409 158 602
410 978 344
411 230 446
412 271 713
413 286 851
414 571 979
415 287 648
416 344 511
417 38 560
418 243 482
419 198 727
420 162 732
421 11 367
422 875 159
423 172 772
424 204 654
425 844 215
426 953 250
427 343 611
428 373 950
429 535 887
430 456 964
431 131 688
432 125 751
433 429 875
434 230 449
435 207 652
436 188 430
437 186 661
438 72 422
439 464 984
440 79 664
441 765 213
442 284 425
443 450 818
444 110 733
445 84 781
446 178 864
447 863 164
448 993 250
449 161 837
450 930 143
451 189 469
452 217 803
453 229 622
454 459 776
455 950 81
456 201 599
457 236 408
458 222 762
459 198 340
460 119 621
461 844 132
462 362 469
463 376 725
464 68 519
465 914 192
466 316 406
467 313 830
468 169 799
469 447 48
470 231 439
471 926 70
472 884 109
473 857 163
474 378 718
475 598 885
476 484 848
477 360 441
478 214 376
479 998 234
480 274 547
481 410 782
482 348 364
483 141 549
484 299 851
485 300 676
486 175 712
487 881 110
488 406 657
489 961 115
490 437 830
491 355 879
492 639 866
493 246 245
494 347 454
495 976 180
496 199 482
497 208 828
498 241 865
499 335 749
500 85 741
501 250 783
502 872 257
503 517 540
504 578 822
505 240 562
506 269 374
507 511 912
508 412 876
509 151 889
510 248 646
511 388 408
512 892 169
513 410 905
514 905 265
515 208 626
516 366 446
517 520 859
518 882 216
519 866 142
520 201 723
521 207 436
522 931 286
523 315 420
524 465 765
525 178 725
526 959 212
527 286 836
528 839 161
529 207 653
530 880 197
531 100 699
532 413 467
533 587 908
534 900 226
535 409 902
536 108 725
537 173 511
538 192 541
539 439 901
540 359 922
541 201 403
542 494 798
543 567 243
544 405 913
545 186 353
546 592 884
547 241 806
548 93 947
549 253 495
550 201 793
551 865 120
552 870 80
553 269 599
554 881 203
555 173 844
556 326 854
557 840 141
558 153 454
559 302 878
560 347 728
561 182 600
562 94 682
563 476 900
564 127 659
565 250 889
566 822 95
567 328 818
568 562 462
569 894 76
570 237 482
571 824 116
572 266 674
573 336 376
574 301 679
575 193 527
576 105 922
577 449 905
578 456 866
579 192 347
580 432 995
581 183 480
582 192 660
583 187 859
584 581 666
585 144 458
586 310 462
587 309 439
588 129 762
589 182 351
590 193 763
591 69 514
592 978 382
593 360 980
594 253 694
595 121 840
596 254 614
597 255 472
598 229 456
599 187 667
600 242 459
601 295 602
602 247 488
603 248 604
604 62 657
605 229 502
606 141 521
607 906 287
608 84 662
609 18 916
610 255 564
611 310 815
612 345 904
613 215 593
614 464 806
615 161 464
616 392 457
617 608 839
618 417 815
619 409 779
620 211 656
621 438 990
622 941 191
623 357 627
624 207 488
625 298 756
626 217 656
627 139 755
628 163 715
629 68 718
630 770 153
631 927 408
632 185 765
633 135 490
634 462 963
635 90 548
636 464 630
637 179 821
638 794 244
639 415 844
640 183 692
641 911 258
642 220 422
643 22 663
644 115 875
645 395 921
646 476 787
647 258 531
648 59 511
649 160 758
650 243 815
651 100 547
652 350 659
653 202 526
654 834 185
655 179 431
656 831 192
657 48 759
658 420 813
659 17 690
660 76 737
661 135 595
662 670 983
663 339 453
664 283 751
665 143 945
666 18 770
667 284 822
668 469 797
669 188 429
670 866 252
671 368 807
672 135 728
673 946 170
674 223 936
675 262 582
676 466 885
677 171 610
678 781 308
679 204 837
680 240 317
681 812 120
682 150 951
683 208 651
684 991 264
685 572 917
686 262 410
687 158 650
688 179 716
689 124 629
690 31 691
691 306 444
692 186 627
693 435 842
694 247 809
695 591 791
696 152 737
697 382 828
698 292 231
699 180 671
700 282 357
701 184 786
702 179 972
703 991 236
704 861 165
705 178 631
706 168 595
707 361 801
708 445 783
709 420 492
710 232 684
711 836 157
712 208 436
713 202 676
714 366 385
715 191 251
716 320 398
717 440 871
718 258 785
719 234 547
720 912 151
721 250 390
722 936 66
723 68 604
724 346 276
725 178 751
726 213 655
727 531 949
728 185 662
729 495 886
730 277 823
731 271 387
732 228 881
733 816 221
734 893 185
735 238 980
736 215 871
737 119 397
738 91 782
739 238 440
740 139 814
741 332 800
742 305 717
743 27 398
744 194 401
745 305 676
746 466 826
747 256 531
748 153 742
749 262 837
750 923 23
751 442 792
752 846 349
753 193 755
754 857 271
755 224 543
756 627 869
757 972 244
758 209 903
759 266 665
760 275 565
761 128 462
762 487 879
763 168 744
764 837 152
765 172 880
766 496 803
767 215 624
768 992 152
769 218 497
770 960 163
771 954 191
772 249 552
773 156 649
774 237 830
775 229 818
776 261 498
777 350 941
778 419 930
779 887 318
780 57 375
781 432 935
782 226 708
783 178 634
784 200 453
785 155 636
786 304 808
787 265 655
788 522 889
789 199 348
790 268 963
791 966 105
792 315 324
793 197 285
794 398 221
795 214 630
796 857 266
797 244 736
798 230 784
799 177 772
800 205 796
DEMAND_SECTION
2 25
3 94
4 71
5 59
6 35
7 5
8 45
9 40
10 6
11 72
12 23
13 93
14 13
15 83
16 26
17 11
18 6
19 91
20 68
21 7
22 75
23 31
24 33
25 86
26 42
27 43
28 77
29 35
30 74
31 37
32 55
33 49
34 18
35 72
36 69
37 72
38 72
39 65
40 51
41 71
42 69
43 23
44 58
45 28
46 91
47 4
48 2
49 62
50 11
51 94
52 1
53 76
54 56
55 21
56 57
57 24
58 95
59 84
60 54
61 6
62 55
63 10
64 87
65 94
66 55
67 42
68 14
69 70
70 79
71 40
72 32
73 1
74 57
75 21
76 78
77 33
78 82
79 8
80 54
81 11
82 49
83 23
84 83
85 26
86 21
87 86
88 83
89 82
90 14
91 54
92 67
93 93
94 13
95 75
96 72
97 7
98 15
99 71
100 9
101 44
102 84
103 49
104 42
105 71
106 50
107 30
108 85
109 99
110 15
111 11
112 35
113 98
114 99
115 43
116 17
117 47
118 97
119 42
120 64
121 100
122 75
123 20
124 20
125 87
126 78
127 45
128 62
129 28
130 74
131 23
132 57
133 84
134 14
135 5
136 32
137 23
138 25
139 18
140 84
141 17
142 19
143 29
144 98
145 64
146 38
147 20
148 4
149 29
150 14
151 2
152 53
153 20
154 58
155 46
156 15
157 77
158 78
159 38
160 11
161 98
162 12
163 66
164 60
165 81
166 99
167 24
168 58
169 96
170 60
171 49
172 77
173 77
174 21
175 76
176 96
COVERAGE_SECTION
2 9 515 795 294 683 435 529 424 34 124 
3 9 389 24 241 512 277 274 323 246 35 
4 9 74 106 184 220 590 632 407 701 799 
5 9 717 271 175 578 128 154 433 405 370 
6 9 411 144 434 470 7 330 598 739 73 
7 9 598 144 434 329 6 411 330 600 156 
8 9 251 341 219 252 760 480 601 122 369 
9 9 627 748 696 432 227 588 672 649 79 
10 9 550 93 800 303 220 701 407 106 4 
11 9 491 612 96 540 309 151 108 377 307 
12 9 75 133 422 35 241 447 24 323 704 
13 9 604 306 91 440 608 176 138 643 286 
14 9 764 528 711 557 473 72 249 704 195 
15 9 740 257 390 275 66 117 468 83 449 
16 9 618 658 37 490 111 639 317 693 278 
17 7 384 438 737 391 761 780 585 
18 9 270 450 720 673 246 274 30 160 148 
19 9 353 593 777 428 383 233 540 328 46 
20 9 201 497 452 800 775 155 550 679 10 
21 9 486 221 628 688 82 640 525 85 420 
22 9 39 322 619 707 103 463 481 499 671 
23 9 413 484 527 297 288 667 467 730 749 
24 9 3 241 389 512 323 277 35 274 12 
25 9 308 603 675 181 553 114 596 321 610 
26 9 757 49 88 703 406 426 526 448 479 
27 9 371 498 245 749 45 297 774 565 732 
28 9 163 596 181 80 603 223 350 553 404 
29 9 79 649 423 285 799 97 725 763 117 
30 9 183 720 375 274 277 246 3 389 24 
31 9 597 418 600 213 570 602 398 598 156 
32 9 451 258 206 784 283 52 581 496 365 
33 8 695 199 504 314 617 392 40 378 
34 9 60 119 90 515 692 2 767 795 705 
35 9 422 12 241 323 24 75 133 277 3 
36 9 104 269 54 103 741 567 707 671 611 
37 9 490 443 658 16 618 278 693 751 317 
38 7 445 367 657 738 335 81 666 
39 9 22 499 322 707 103 560 463 671 741 
40 9 127 756 617 492 475 546 314 504 343 
41 9 575 653 537 121 538 237 172 624 769 
42 9 743 438 648 421 17 780 311 591 464 
43 9 100 641 514 534 193 134 159 502 281 
44 9 48 71 279 797 782 302 324 520 84 
45 9 774 155 679 498 497 736 118 27 775 
46 9 328 386 209 645 428 374 383 778 291 
47 9 642 186 120 712 521 541 457 73 268 
48 9 44 71 279 797 324 402 782 302 520 
49 9 406 26 526 88 757 703 479 426 771 
50 9 633 585 761 615 558 304 365 293 397 
51 9 198 765 509 446 583 758 131 555 226 
52 9 496 624 451 581 32 206 156 258 365 
53 9 689 460 62 182 262 92 180 76 564 
54 9 104 741 36 567 269 103 707 611 467 
55 9 231 729 381 388 296 507 99 563 762 
56 9 58 630 356 164 170 387 143 441 72 
57 9 762 248 360 168 676 336 578 101 128 
58 9 56 630 387 72 170 195 164 282 711 
59 9 667 730 786 611 527 123 467 297 23 
60 9 119 34 90 456 190 515 243 692 767 
61 9 319 652 745 574 98 105 485 253 218 
62 9 180 76 262 689 300 53 182 785 460 
63 9 792 145 284 147 482 573 700 376 724 
64 9 101 476 214 359 517 168 766 542 746 
65 9 393 453 795 135 767 294 510 80 515 
66 9 117 257 275 468 29 423 79 15 649 
67 9 731 506 70 700 188 129 721 147 354 
68 9 349 331 305 140 300 409 677 76 785 
69 7 333 281 465 534 178 622 193 
70 9 129 67 731 466 354 442 716 523 686 
71 9 44 48 279 302 402 797 458 84 520 
72 9 195 764 282 711 557 528 14 461 249 
73 9 242 521 712 330 120 784 6 206 144 
74 9 4 184 590 220 303 632 106 280 10 
75 9 133 12 422 35 241 24 447 512 704 
76 9 300 62 180 262 349 68 785 182 689 
77 9 651 635 351 401 153 212 238 464 483 
78 9 152 616 516 477 511 130 532 462 494 
79 9 29 649 423 97 285 763 799 725 337 
80 9 135 28 163 510 596 223 393 65 453 
81 8 660 657 629 500 367 267 301 38 
82 9 688 486 21 640 221 334 525 361 520 
83 9 449 637 390 555 275 468 740 15 93 
84 9 419 279 344 520 753 280 302 525 71 
85 9 628 115 21 221 486 672 431 420 165 
86 7 789 459 579 545 312 589 478 
87 9 171 338 609 318 229 644 38 226 595 
88 9 703 479 26 49 757 448 406 684 526 
89 9 102 427 141 623 276 187 265 122 364 
90 9 515 119 767 34 795 60 2 243 453 
91 9 13 604 306 643 176 440 138 286 608 
92 9 564 53 166 689 62 180 310 431 773 
93 9 10 701 550 407 220 106 800 303 468 
94 7 196 678 345 109 752 203 256 
95 9 204 605 769 132 398 624 570 113 602 
96 9 309 151 540 11 612 645 383 491 544 
97 9 337 725 763 285 649 165 79 29 344 
98 9 574 485 745 105 218 295 319 215 179 
99 9 296 507 381 231 788 55 388 429 189 
100 9 43 641 193 514 159 534 134 281 69 
101 9 476 57 168 64 336 762 746 578 517 
102 9 89 141 427 623 276 187 265 122 364 
103 9 707 671 269 104 36 54 741 697 39 
104 9 36 269 54 741 103 707 567 671 611 
105 9 485 745 574 98 215 218 415 319 217 
106 9 220 407 701 4 799 74 423 10 93 
107 9 562 608 440 531 299 176 92 431 564 
108 9 556 288 491 377 467 567 269 36 484 
109 8 752 779 146 678 185 754 607 796 
110 9 412 368 162 742 295 324 218 272 594 
111 9 618 697 16 658 358 210 208 639 671 
112 9 357 327 533 685 222 414 475 546 205 
113 9 549 776 234 647 747 602 605 132 398 
114 9 610 675 505 772 760 25 219 308 252 
115 9 672 85 696 628 9 420 748 165 536 
116 9 621 580 430 374 439 634 291 266 386 
117 9 66 257 275 29 423 468 79 15 649 
118 9 774 650 155 775 694 244 547 123 749 
119 9 60 90 34 515 767 243 456 795 190 
120 9 521 712 242 73 436 669 47 642 330 
121 9 172 237 538 653 575 408 41 755 132 
122 9 364 601 276 404 350 341 265 553 427 
123 9 244 694 650 547 118 174 730 718 749 
124 9 620 529 726 435 683 424 294 626 355 
125 8 139 750 202 235 136 569 471 722 
126 9 668 614 298 646 290 746 443 542 359 
127 9 40 475 546 756 492 617 533 327 343 
128 9 175 271 360 370 578 676 5 394 403 
129 8 70 466 523 716 442 67 354 731 
130 9 462 516 477 494 663 616 78 150 152 
131 9 674 758 702 682 51 665 366 765 509 
132 9 95 204 605 769 653 755 113 398 41 
133 9 75 12 422 241 24 35 512 447 3 
134 8 200 518 534 281 554 43 530 69 
135 9 510 80 393 65 787 332 223 453 28 
136 8 569 471 202 722 139 552 236 472 
137 9 599 437 728 287 582 699 232 355 713 
138 9 723 306 13 604 173 396 91 608 440 
139 9 202 125 750 136 569 236 471 235 552 
140 9 331 68 705 783 677 785 349 305 692 
141 9 102 89 427 276 623 187 122 265 251 
142 9 461 551 557 519 282 571 382 487 14 
143 9 164 356 630 177 56 167 58 441 170 
144 9 434 7 6 411 598 330 329 470 739 
145 8 147 264 700 792 63 192 506 188 
146 9 779 607 522 514 641 754 502 43 796 
147 8 700 145 264 506 67 792 188 63 
148 9 160 320 225 450 770 673 18 489 720 
149 9 346 207 249 654 216 656 704 473 447 
150 8 663 494 587 691 523 477 586 516 
151 9 309 645 96 544 209 513 535 247 307 
152 9 511 78 477 516 616 714 130 494 376 
153 9 351 211 661 212 651 77 635 401 483 
154 9 405 5 717 578 693 175 271 336 261 
155 9 775 774 118 650 497 20 45 547 201 
156 9 329 7 570 598 398 144 418 624 31 
157 9 710 332 239 594 272 626 572 726 759 
158 8 233 790 340 224 366 565 674 559 
159 9 193 426 100 333 641 43 26 69 514 
160 9 148 320 225 450 770 673 18 489 720 
161 9 247 535 513 508 433 539 307 544 717 
162 9 368 742 110 399 412 218 263 664 295 
163 9 28 223 596 181 350 80 553 404 603 
164 9 143 630 356 56 177 58 167 170 441 
165 9 420 696 763 337 748 97 525 628 725 
166 8 431 310 564 92 85 773 687 221 
167 8 177 143 164 315 630 356 56 58 
168 9 762 729 57 101 248 476 55 517 360 
169 7 230 326 636 488 187 623 102 
170 9 387 441 56 250 356 733 58 379 638 
171 9 338 87 318 609 229 576 644 226 548 
172 8 237 121 538 408 575 653 755 41 
173 9 396 723 238 401 138 417 240 385 635 
174 9 501 718 547 694 798 123 244 380 650 
175 9 271 5 128 578 717 370 154 360 676 
176 9 299 440 286 604 608 562 107 306 13 
177 8 167 143 164 630 315 356 56 58 
178 7 465 734 281 530 554 69 512 
179 9 759 217 787 572 215 415 295 510 105 
180 9 62 76 785 300 262 689 773 68 349 
181 9 553 28 596 163 350 603 404 25 675 
182 9 262 460 689 62 53 300 76 661 180 
183 9 30 375 720 277 3 274 389 323 246 
184 9 590 632 280 4 74 753 799 106 220 
185 9 631 592 109 410 752 779 146 522 607 
186 8 541 47 744 268 642 120 457 521 
187 9 623 89 102 427 652 141 265 326 488 
188 7 506 721 731 67 700 264 147 
189 6 388 231 507 55 296 99 
190 8 456 243 347 60 561 613 119 34 
191 9 323 277 375 35 519 241 422 183 3 
192 8 264 680 312 145 188 700 147 506 
193 9 159 100 641 43 333 426 69 534 514 
194 9 255 303 798 458 74 402 550 800 302 
195 9 282 72 557 764 711 461 14 528 571 
196 6 678 256 94 638 752 109 
197 9 666 267 657 81 301 38 659 367 660 
198 9 765 51 509 446 583 555 449 226 644 
199 9 504 33 695 314 617 40 343 392 127 
200 8 518 134 554 281 530 534 216 178 
201 9 20 452 800 497 550 775 10 93 155 
202 8 139 136 569 125 750 236 552 471 
203 8 345 94 313 568 584 503 196 109 
204 9 95 769 605 132 398 624 570 156 418 
205 7 414 222 727 112 685 357 327 
206 9 784 32 329 258 330 242 73 451 52 
207 8 216 656 425 379 654 149 346 249 
208 9 358 639 377 348 697 317 261 508 16 
209 9 544 645 778 513 535 151 386 309 46 
210 8 481 619 658 618 111 751 16 37 
211 8 661 153 351 182 262 460 300 409 
212 7 483 351 153 606 651 77 397 
213 7 600 31 597 598 434 411 739 
214 9 359 766 542 64 392 126 646 668 476 
215 9 415 217 179 787 105 223 759 485 572 
216 8 425 207 149 379 656 654 554 200 
217 9 179 787 759 215 415 572 223 105 295 
218 9 98 574 485 745 295 105 162 742 368 
219 9 760 252 341 8 480 675 114 610 251 
220 9 106 407 701 4 10 799 74 93 184 
221 9 21 640 486 82 628 688 85 361 699 
222 9 414 205 112 357 327 727 685 533 662 
223 9 163 28 80 350 415 787 215 217 596 
224 8 233 559 612 158 340 11 288 540 
225 9 148 160 450 489 320 791 18 720 770 
226 9 644 229 509 595 198 576 51 765 449 
227 5 588 432 627 9 444 
228 9 709 352 532 416 616 462 130 230 141 
229 9 644 595 226 171 740 509 15 449 87 
230 7 169 636 326 488 187 623 228 
231 9 388 507 55 296 99 381 189 729 563 
232 9 355 713 137 582 599 424 437 287 361 
233 8 224 158 777 612 540 559 790 11 
234 6 776 549 113 602 647 747 
235 5 125 139 202 236 552 
236 6 552 339 569 202 566 136 
237 8 172 121 538 408 575 653 755 41 
238 9 401 173 417 635 396 240 385 651 77 
239 9 594 710 272 782 157 572 332 412 295 
240 9 385 417 238 396 173 401 464 723 648 
241 9 24 3 323 389 35 277 512 12 422 
242 9 73 521 712 330 120 784 206 6 436 
243 9 456 613 190 119 60 347 90 321 34 
244 9 123 694 650 547 118 174 774 775 730 
245 9 565 498 27 340 371 732 736 45 749 
246 8 274 389 3 512 270 720 24 30 
247 9 535 161 513 307 508 544 433 151 209 
248 9 360 676 403 563 762 57 394 729 128 
249 9 528 473 346 704 711 14 149 447 654 
250 8 638 733 170 387 441 379 256 425 
251 9 8 341 252 219 760 369 480 601 122 
252 9 219 760 480 8 341 251 610 114 675 
253 9 560 474 463 61 399 319 652 499 742 
254 9 273 492 756 40 127 475 617 327 546 
255 8 194 798 458 303 402 302 74 550 
256 7 638 250 441 678 170 733 387 
257 8 66 117 15 275 740 390 468 588 
258 9 32 283 451 784 206 242 581 373 52 
259 8 794 543 724 469 698 284 63 792 
260 9 362 684 448 757 703 479 88 426 26 
261 9 348 433 317 717 154 508 5 405 639 
262 9 182 300 62 76 460 689 180 53 349 
263 9 342 499 399 625 742 162 560 368 664 
264 8 192 700 145 147 188 506 680 312 
265 9 276 427 364 623 89 122 652 319 415 
266 5 634 430 189 439 116 
267 9 197 657 666 81 301 38 660 629 367 
268 8 186 478 541 457 47 744 642 721 
269 9 36 104 103 54 707 671 567 741 697 
270 8 18 246 274 465 720 673 622 30 
271 9 175 5 128 717 578 370 154 360 433 
272 9 594 239 572 295 412 157 710 759 110 
273 9 254 492 756 40 127 617 314 475 546 
274 9 246 389 3 512 24 30 720 241 277 
275 9 468 66 390 117 15 257 740 83 637 
276 9 122 427 89 364 265 102 601 141 623 
277 9 323 3 241 389 24 183 35 191 375 
278 9 490 693 317 405 37 154 443 16 639 
279 9 71 84 44 48 419 520 302 344 402 
280 9 753 590 184 632 344 285 725 74 4 
281 8 534 134 518 69 178 200 554 465 
282 9 195 72 557 764 461 711 14 571 528 
283 9 258 32 373 451 784 655 206 436 615 
284 9 482 376 573 714 63 792 716 511 147 
285 9 725 97 632 280 753 799 337 423 590 
286 9 690 176 301 659 299 643 604 13 629 
287 7 437 728 582 137 599 699 355 
288 8 556 484 559 23 108 413 467 527 
289 3 315 167 177 
290 9 298 708 751 454 668 126 614 646 443 
291 9 386 374 781 778 46 328 116 209 430 
292 7 655 373 436 669 283 120 744 
293 9 397 606 304 537 633 483 50 212 365 
294 9 124 683 726 435 529 620 626 424 2 
295 9 572 218 272 98 179 759 485 574 594 
296 9 99 507 381 231 788 55 388 429 729 
297 9 413 527 23 749 730 484 667 371 27 
298 9 668 290 126 614 646 751 454 708 443 
299 9 176 562 107 531 629 440 608 286 604 
300 9 76 349 262 68 62 180 182 331 409 
301 9 286 690 629 81 659 267 660 176 299 
302 9 402 458 71 279 753 255 280 344 590 
303 9 550 10 800 74 194 4 255 93 220 
304 9 293 537 397 606 633 365 50 581 41 
305 8 677 409 68 706 331 349 561 140 
306 9 604 13 440 91 608 138 176 107 562 
307 9 508 247 161 535 348 513 151 433 261 
308 9 25 603 321 675 114 505 613 181 596 
309 9 151 96 645 544 209 513 535 540 247 
310 6 687 773 166 564 699 785 
311 9 591 464 648 635 77 651 238 401 417 
312 7 86 192 789 459 680 478 264 
313 7 568 503 203 709 532 228 94 
314 9 617 199 33 695 504 40 756 492 127 
315 5 177 167 164 630 325 
316 9 643 659 91 690 286 13 604 306 176 
317 9 693 639 261 278 405 348 154 490 16 
318 9 609 338 171 87 548 576 229 644 226 
319 9 61 745 652 105 485 574 98 218 265 
320 9 770 148 160 673 450 18 225 495 768 
321 9 613 308 243 347 25 456 190 603 505 
322 8 372 22 463 474 39 619 481 560 
323 9 277 241 35 3 24 389 422 191 12 
324 6 797 48 44 71 412 110 
325 8 681 571 566 282 195 461 72 557 
326 8 169 488 230 187 636 623 652 89 
327 9 357 112 533 685 475 546 127 756 222 
328 9 46 386 428 209 374 645 383 291 778 
329 9 7 330 144 598 156 206 6 434 784 
330 9 73 6 242 144 329 712 7 521 206 
331 9 140 68 349 677 305 705 785 409 300 
332 9 626 157 726 620 294 124 710 510 135 
333 9 69 526 193 406 622 159 771 465 281 
334 9 361 640 713 82 232 520 782 137 221 
335 4 738 445 367 38 
336 9 578 154 405 57 175 271 5 128 476 
337 9 763 97 725 165 420 285 748 525 649 
338 9 609 171 318 87 576 548 229 644 226 
339 7 552 236 487 551 142 472 566 
340 8 565 245 158 498 732 27 371 559 
341 9 8 219 252 760 251 601 404 122 553 
342 8 263 499 625 399 664 742 162 560 
343 9 429 517 546 788 475 504 127 381 533 
344 9 753 280 84 725 590 285 97 184 632 
345 8 203 94 109 185 752 631 196 678 
346 9 149 704 447 473 249 75 133 12 422 
347 7 190 456 613 243 321 561 60 
348 9 261 508 433 317 639 208 717 154 307 
349 9 68 300 331 409 305 76 140 677 262 
350 9 404 163 181 553 28 601 223 364 596 
351 8 153 211 212 651 77 483 635 661 
352 7 416 462 130 494 616 228 709 
353 9 593 19 428 777 383 328 46 540 233 
354 5 686 442 70 731 129 
355 9 232 582 424 137 437 529 599 713 124 
356 9 143 164 56 441 170 630 58 387 177 
357 9 327 112 533 685 222 475 546 414 127 
358 9 208 697 377 111 639 16 348 317 618 
359 9 766 214 542 64 126 668 614 746 646 
360 9 676 248 403 128 394 57 370 175 563 
361 9 334 713 640 232 137 599 82 699 355 
362 9 260 684 448 757 426 522 26 703 88 
363 7 256 441 543 356 143 196 164 
364 9 122 601 404 350 276 265 553 223 163 
365 9 581 451 615 32 496 52 258 304 283 
366 9 735 790 674 158 131 702 340 758 233 
367 8 445 500 738 38 660 335 81 657 
368 9 162 742 110 412 399 218 664 263 295 
369 6 251 480 8 234 252 416 
370 9 394 128 403 175 271 676 360 577 539 
371 9 27 498 749 245 297 45 413 774 565 
372 6 322 619 463 474 481 22 
373 8 655 436 669 292 283 258 120 242 
374 9 291 386 116 328 46 781 778 621 430 
375 9 183 30 277 191 720 323 3 389 274 
376 9 714 482 284 573 511 152 716 63 466 
377 9 358 208 697 491 307 108 639 508 348 
378 6 695 584 33 392 199 504 
379 8 656 207 654 733 425 216 387 149 
380 6 501 718 174 798 402 458 
381 9 788 296 99 55 231 507 729 429 388 
382 9 487 472 551 191 142 375 519 183 277 
383 9 428 777 540 46 328 96 645 309 353 
384 6 737 17 391 438 780 761 
385 9 240 417 238 396 173 401 464 648 723 
386 9 778 291 781 374 46 328 209 645 544 
387 9 170 379 733 56 250 656 58 441 654 
388 7 231 189 55 507 296 563 99 
389 9 3 24 512 241 274 277 323 246 35 
390 9 740 83 15 275 449 468 637 257 66 
391 6 384 737 780 17 438 743 
392 8 214 766 542 359 64 646 504 33 
393 9 65 135 453 510 80 795 767 294 332 
394 9 403 370 676 360 248 563 577 128 175 
395 9 793 715 459 579 589 545 789 86 680 
396 9 173 723 238 138 401 417 240 385 91 
397 8 606 293 304 633 483 537 212 50 
398 9 570 418 602 605 204 769 95 156 549 
399 9 742 162 263 368 560 342 218 499 253 
400 9 768 320 770 495 489 148 160 791 225 
401 9 238 635 651 173 77 396 153 351 417 
402 8 458 302 255 71 194 48 279 44 
403 9 394 676 360 248 370 563 128 577 175 
404 9 350 553 601 181 364 163 122 28 341 
405 9 154 693 278 317 5 336 578 717 261 
406 9 526 49 26 771 333 622 88 757 426 
407 9 701 106 220 4 93 10 799 423 74 
408 6 538 237 172 121 575 653 
409 7 305 349 706 68 677 331 300 
410 9 592 362 260 522 684 146 631 185 607 
411 8 434 6 144 470 598 739 7 330 
412 9 110 368 162 272 594 295 324 218 742 
413 9 23 297 484 527 749 288 667 730 371 
414 8 205 222 112 727 357 685 327 533 
415 9 215 217 179 223 787 105 759 485 572 
416 4 352 369 462 130 
417 9 240 385 238 396 173 401 464 635 648 
418 9 570 602 398 31 549 597 156 600 605 
419 9 520 84 279 525 344 688 82 44 71 
420 9 165 696 748 763 337 525 628 97 688 
421 8 743 780 42 438 391 384 17 737 
422 9 35 12 75 241 133 323 447 704 24 
423 9 799 29 79 106 632 285 220 407 649 
424 9 529 435 683 124 620 726 355 294 582 
425 8 216 207 379 656 149 733 654 200 
426 9 159 757 26 193 49 406 88 333 526 
427 9 89 102 141 276 623 187 265 122 364 
428 9 383 328 46 777 353 540 593 645 96 
429 9 788 381 99 296 343 517 507 55 231 
430 8 634 266 116 439 621 291 374 781 
431 9 166 85 564 310 92 115 531 107 562 
432 7 227 588 627 9 444 672 748 
433 9 717 261 5 348 508 161 271 175 154 
434 9 411 144 6 598 7 470 739 330 600 
435 9 529 683 124 424 620 726 294 626 2 
436 9 669 655 373 120 292 521 242 712 73 
437 8 728 287 137 582 599 699 355 232 
438 8 17 384 780 743 737 391 42 761 
439 7 634 430 116 621 266 580 374 
440 9 608 306 604 107 176 562 13 299 91 
441 9 170 356 387 250 638 256 56 733 143 
442 5 354 129 686 70 587 
443 9 37 490 614 746 278 126 298 290 751 
444 7 536 432 672 500 227 115 9 
445 5 738 335 367 38 500 
446 9 583 765 198 555 449 51 509 679 736 
447 9 704 473 12 422 346 75 35 133 249 
448 9 684 703 479 88 757 26 260 49 362 
449 9 83 555 390 637 446 740 583 15 275 
450 9 160 18 148 225 720 30 183 320 270 
451 9 32 258 581 52 496 206 365 283 784 
452 9 201 20 800 550 775 303 798 10 547 
453 9 65 767 393 795 90 515 80 119 596 
454 9 524 290 708 298 646 668 751 126 614 
455 9 722 471 791 489 225 136 569 148 160 
456 9 190 243 60 347 613 119 561 90 34 
457 7 642 47 268 721 686 186 470 
458 8 402 302 255 194 71 798 74 279 
459 8 789 579 86 545 589 312 478 680 
460 9 182 689 53 262 62 76 300 180 211 
461 9 557 142 282 195 14 764 72 519 551 
462 9 130 494 516 477 663 352 616 78 150 
463 8 474 253 322 560 372 22 39 499 
464 9 311 591 648 635 77 651 238 401 417 
465 7 178 69 270 734 281 246 622 
466 9 716 523 129 70 587 573 150 442 691 
467 9 611 567 786 484 556 23 527 288 667 
468 9 275 93 407 701 66 106 117 390 220 
469 7 259 794 289 543 698 724 167 
470 8 411 739 6 434 144 598 7 330 
471 9 722 136 455 569 202 750 139 791 472 
472 8 487 382 551 191 552 375 569 142 
473 9 704 447 249 346 14 422 528 12 75 
474 8 463 253 322 560 372 22 39 499 
475 9 546 127 533 40 756 327 685 492 343 
476 9 101 57 64 168 336 746 762 578 359 
477 9 516 130 494 663 152 462 78 150 616 
478 7 268 86 541 186 744 789 312 
479 9 703 88 448 26 757 49 684 406 526 
480 9 252 760 219 647 747 610 772 114 8 
481 8 619 210 658 618 751 708 111 322 
482 9 284 573 376 714 63 716 792 466 511 
483 6 212 606 351 397 293 153 
484 9 23 413 288 527 297 467 556 559 667 
485 9 574 98 745 105 218 295 319 215 415 
486 9 688 21 628 82 525 221 640 420 85 
487 8 472 382 551 142 191 552 339 375 
488 6 326 169 187 230 652 623 
489 9 791 225 148 160 455 320 450 400 768 
490 9 278 37 693 443 317 16 405 658 618 
491 9 11 612 108 377 96 556 309 540 151 
492 9 756 40 273 127 617 475 254 546 314 
493 9 698 715 793 680 192 395 145 264 312 
494 8 663 130 477 150 462 516 586 587 
495 9 770 771 673 768 320 526 406 622 49 
496 9 52 624 451 581 32 206 365 769 156 
497 9 679 20 201 155 775 45 452 774 637 
498 9 27 245 371 732 45 565 736 749 774 
499 9 263 342 560 39 399 625 22 742 253 
500 6 660 367 444 81 536 629 
501 8 174 718 380 798 547 694 123 244 
502 8 670 796 754 43 514 134 641 100 
503 8 313 568 228 636 230 709 169 532 
504 9 199 33 617 695 314 343 40 392 127 
505 9 772 610 719 114 755 308 321 675 25 
506 8 188 67 731 700 721 147 70 264 
507 9 99 231 296 388 55 381 189 788 729 
508 9 307 348 247 433 161 261 535 717 513 
509 9 198 51 765 226 446 644 583 555 449 
510 9 135 80 393 787 65 332 223 759 179 
511 9 152 78 714 376 477 516 616 130 482 
512 9 24 389 3 241 274 133 75 246 12 
513 9 535 544 247 161 209 151 645 309 307 
514 9 641 43 100 607 193 522 502 159 534 
515 9 90 767 795 34 2 119 60 453 692 
516 9 477 130 494 462 78 152 616 663 150 
517 9 64 168 788 429 101 381 343 729 476 
518 8 200 134 554 281 530 534 178 216 
519 9 191 35 422 447 551 323 473 14 142 
520 9 419 84 279 82 525 688 44 71 344 
521 9 712 73 242 120 330 784 642 6 47 
522 9 607 514 641 146 426 100 159 193 43 
523 8 466 587 129 716 150 691 442 70 
524 9 454 646 708 290 298 668 751 126 614 
525 9 688 486 165 420 628 337 419 21 82 
526 9 406 49 771 333 26 622 88 757 495 
527 9 297 23 667 413 730 484 59 749 467 
528 9 711 764 14 249 72 473 557 195 704 
529 9 435 683 124 424 620 726 294 626 355 
530 8 554 734 518 200 178 133 281 75 
531 8 562 107 299 536 431 444 629 176 
532 9 616 709 78 130 462 516 152 352 477 
533 9 685 475 546 327 112 357 127 343 40 
534 8 134 281 518 43 200 69 100 554 
535 9 513 247 544 161 209 151 307 645 309 
536 7 444 531 672 500 115 432 660 
537 9 304 41 293 575 365 581 653 397 606 
538 8 237 121 172 408 575 653 41 755 
539 9 577 370 161 394 403 433 128 175 271 
540 9 96 777 383 612 11 309 428 151 645 
541 7 186 744 47 268 120 642 669 
542 9 766 359 214 646 126 668 614 298 392 
543 6 363 259 794 167 177 143 
544 9 209 513 535 645 151 309 247 778 161 
545 6 589 579 789 459 86 478 
546 9 475 127 533 40 756 685 343 327 617 
547 9 694 650 244 123 174 775 118 155 452 
548 9 576 665 682 171 226 644 338 318 609 
549 9 602 776 113 418 234 398 570 597 31 
550 9 10 800 303 93 701 201 220 452 74 
551 9 142 382 487 472 519 461 191 339 557 
552 7 236 339 569 472 487 136 382 
553 9 181 404 350 675 25 28 596 163 603 
554 8 530 518 200 281 134 734 178 216 
555 9 449 83 446 583 637 679 390 198 765 
556 9 288 108 467 484 559 23 567 491 413 
557 9 461 764 282 14 195 72 711 528 142 
558 9 585 615 50 761 283 373 258 365 655 
559 8 288 484 413 224 23 556 297 340 
560 9 253 499 463 399 263 474 342 39 742 
561 7 677 706 190 305 456 60 409 
562 9 107 531 299 608 440 176 431 92 564 
563 8 248 403 394 676 360 55 388 729 
564 9 92 166 53 310 431 689 180 773 62 
565 9 245 340 732 498 27 371 736 758 158 
566 6 571 325 681 339 142 236 
567 9 54 611 741 36 104 467 269 786 556 
568 8 313 503 709 532 228 203 616 78 
569 8 136 552 202 471 472 487 236 339 
570 9 418 398 602 31 156 549 597 605 204 
571 8 325 681 566 282 461 195 142 557 
572 9 759 179 295 217 787 272 594 157 215 
573 9 482 716 376 714 284 466 63 129 70 
574 9 98 485 745 105 218 295 319 215 179 
575 9 653 41 121 538 237 172 408 537 132 
576 9 548 665 226 644 682 171 509 229 51 
577 8 539 370 394 403 676 563 128 360 
578 9 175 336 271 128 5 154 717 405 57 
579 7 789 545 459 589 86 312 478 
580 9 621 116 439 374 430 634 291 386 266 
581 9 365 451 496 52 32 258 624 615 283 
582 9 287 437 728 137 355 599 232 424 699 
583 9 446 555 765 679 198 736 449 497 83 
584 4 378 636 695 33 
585 9 558 761 50 615 633 283 365 373 258 
586 4 691 587 150 663 
587 5 691 523 150 586 442 
588 6 227 432 627 9 649 748 
589 6 545 579 789 459 86 478 
590 9 184 280 632 753 74 4 285 344 799 
591 9 311 464 648 635 77 651 238 401 417 
592 9 410 631 185 362 146 260 522 779 607 
593 9 353 19 428 383 777 328 46 540 374 
594 9 272 239 710 157 572 295 412 782 759 
595 9 229 740 644 15 226 390 449 83 257 
596 9 28 181 603 163 80 553 25 350 223 
597 8 31 418 213 600 602 570 549 398 
598 9 7 144 434 411 6 329 600 213 330 
599 9 137 728 437 287 699 582 232 355 713 
600 8 213 31 598 7 434 144 411 597 
601 9 122 364 404 350 341 553 276 181 8 
602 9 418 549 570 398 31 776 597 113 605 
603 9 596 25 181 308 28 553 163 453 675 
604 9 306 13 91 440 608 176 138 286 107 
605 9 95 204 769 398 132 570 602 113 418 
606 8 397 293 304 483 633 212 537 50 
607 9 514 146 522 641 779 43 100 502 193 
608 9 440 107 306 562 604 176 13 299 138 
609 9 318 338 171 87 548 576 229 644 226 
610 9 114 772 505 675 760 219 480 252 25 
611 9 786 467 567 59 54 667 741 527 730 
612 8 11 540 96 491 224 777 309 151 
613 9 243 321 456 347 190 119 60 308 90 
614 9 126 298 668 443 290 746 646 751 359 
615 9 558 585 50 365 283 581 258 451 32 
616 9 78 532 130 516 462 477 152 494 709 
617 9 40 314 127 504 756 199 492 475 33 
618 9 658 16 37 111 210 490 639 278 693 
619 8 481 210 322 751 658 708 618 22 
620 9 124 726 529 435 626 683 424 294 355 
621 9 580 116 439 430 374 634 291 266 386 
622 9 771 673 333 270 465 526 69 406 18 
623 9 187 89 427 102 652 141 265 276 61 
624 9 496 52 769 204 156 95 581 451 605 
625 7 664 342 263 368 162 499 742 
626 9 726 620 124 294 529 683 435 424 332 
627 9 9 588 227 432 748 649 696 79 29 
628 9 486 21 85 688 420 525 165 221 82 
629 8 660 81 299 301 500 176 531 286 
630 9 56 164 58 143 356 170 387 681 177 
631 9 185 592 410 109 779 146 752 522 607 
632 9 184 590 280 285 799 4 753 74 423 
633 9 50 304 397 293 761 606 585 615 558 
634 7 430 266 439 116 621 291 781 
635 9 77 651 401 238 351 153 464 591 311 
636 4 230 169 326 488 
637 9 83 449 468 555 390 93 275 497 679 
638 7 250 256 733 441 170 387 379 
639 9 317 208 348 693 16 261 278 358 490 
640 9 221 82 361 21 334 699 486 688 137 
641 9 514 100 43 193 159 607 522 534 502 
642 9 47 712 120 521 470 186 457 73 6 
643 9 316 91 659 690 286 13 604 306 176 
644 9 226 229 595 509 576 198 51 171 765 
645 9 209 544 151 309 513 46 535 328 778 
646 9 668 126 298 454 542 614 290 524 766 
647 9 747 113 480 772 719 234 610 776 132 
648 9 311 591 464 635 77 417 238 651 240 
649 9 79 29 97 763 748 285 423 337 725 
650 9 694 547 118 244 775 123 774 155 174 
651 9 77 635 351 401 153 212 238 483 464 
652 9 61 319 623 187 265 253 745 427 89 
653 9 575 121 41 237 172 538 132 755 95 
654 9 656 207 149 249 379 528 346 216 711 
655 8 373 292 436 669 283 120 242 258 
656 9 654 379 207 149 216 425 249 346 528 
657 9 81 267 38 367 666 660 197 500 445 
658 9 618 16 37 210 111 490 278 443 751 
659 9 690 286 643 301 316 91 176 13 604 
660 7 500 81 629 367 444 536 657 
661 9 211 182 262 300 409 349 76 153 68 
662 9 357 222 327 112 414 254 205 533 685 
663 8 494 150 477 130 462 516 586 587 
664 6 625 342 368 110 162 263 
665 9 682 576 702 548 131 51 509 198 765 
666 9 197 267 657 38 81 301 367 445 660 
667 9 730 59 527 297 786 23 611 749 123 
668 9 126 298 614 646 290 454 542 751 443 
669 8 436 655 373 120 292 521 242 712 
670 7 502 796 754 134 43 200 518 
671 9 103 707 269 36 104 697 54 111 741 
672 9 115 9 696 748 432 444 85 420 536 
673 9 770 18 320 622 771 270 160 148 450 
674 9 131 758 366 735 790 158 565 732 702 
675 9 114 25 553 610 308 760 219 181 603 
676 9 360 403 248 394 128 370 57 563 175 
677 8 305 331 68 409 561 706 140 349 
678 6 196 256 638 752 250 109 
679 9 497 20 45 201 155 583 637 775 555 
680 8 192 312 264 86 459 145 789 793 
681 8 325 571 282 195 566 72 461 557 
682 9 665 702 131 576 548 51 509 198 765 
683 9 435 529 124 424 620 726 294 626 2 
684 9 448 260 362 703 757 479 88 26 426 
685 9 533 112 327 546 475 357 429 727 99 
686 6 354 721 731 457 442 70 
687 6 773 785 310 180 140 783 
688 9 486 525 82 21 628 221 419 420 520 
689 9 53 460 62 182 262 180 76 300 92 
690 9 286 659 301 643 176 91 316 13 604 
691 5 587 586 150 523 442 
692 9 705 783 34 60 140 2 119 515 331 
693 9 278 317 490 405 154 639 261 37 16 
694 9 244 547 650 123 118 174 775 774 155 
695 8 33 199 314 504 617 392 378 40 
696 9 748 165 420 9 763 672 337 115 627 
697 9 358 111 671 208 377 103 269 707 16 
698 9 493 724 792 145 680 715 794 63 192 
699 7 599 137 728 437 287 582 232 
700 8 147 506 67 264 145 188 731 192 
701 9 407 220 106 93 4 10 799 74 423 
702 9 682 131 665 674 735 366 758 51 509 
703 9 88 479 448 26 757 49 684 406 426 
704 9 447 473 346 12 422 249 75 133 35 
705 7 783 692 140 331 34 677 785 
706 6 305 409 561 677 68 349 
707 9 103 671 269 104 36 54 741 697 39 
708 8 751 290 454 298 524 668 614 126 
709 9 532 228 616 352 462 78 130 516 416 
710 9 157 239 332 594 782 272 713 626 334 
711 9 528 764 14 72 249 557 195 282 473 
712 9 521 73 242 120 330 642 6 47 784 
713 9 232 361 355 137 599 334 582 424 437 
714 9 376 482 573 511 284 152 716 466 477 
715 9 793 395 493 680 459 579 86 789 312 
716 9 466 129 523 573 70 587 67 150 482 
717 9 5 271 175 433 154 128 261 578 405 
718 8 501 174 380 123 694 244 547 798 
719 9 755 505 772 610 747 647 132 114 121 
720 9 30 183 246 274 375 18 450 3 277 
721 7 731 188 457 686 506 67 268 
722 9 471 455 136 569 750 791 202 139 489 
723 9 173 396 138 238 401 306 13 91 153 
724 9 792 63 698 284 794 145 482 147 376 
725 9 97 285 337 763 280 344 632 753 590 
726 9 620 124 626 529 683 294 435 424 355 
727 6 189 507 99 205 296 231 
728 7 437 287 599 137 582 699 355 
729 9 762 55 168 248 381 231 563 57 788 
730 9 667 59 527 297 749 123 244 23 413 
731 9 67 506 721 188 70 686 354 129 700 
732 9 736 498 245 565 758 27 45 371 340 
733 8 250 379 387 425 207 638 656 170 
734 7 178 512 530 133 24 75 465 
735 9 366 790 674 702 131 158 758 233 340 
736 9 732 45 498 583 758 245 679 446 27 
737 5 384 17 391 438 292 
738 4 335 445 367 38 
739 7 470 411 434 6 144 598 213 
740 9 15 390 257 275 83 66 449 595 117 
741 9 54 104 36 567 269 611 103 707 786 
742 9 162 368 399 218 110 263 412 342 98 
743 8 421 780 42 438 17 391 384 737 
744 6 541 186 268 47 669 120 
745 9 485 574 98 105 218 319 295 61 215 
746 9 443 614 126 278 476 490 668 298 359 
747 9 647 113 772 480 719 234 610 776 132 
748 9 696 165 420 9 763 649 337 627 97 
749 9 297 371 730 27 527 118 123 774 244 
750 9 125 139 202 722 471 136 569 455 235 
751 8 708 290 298 454 614 37 443 668 
752 8 109 779 146 678 754 796 607 196 
753 9 280 344 590 184 632 285 725 74 84 
754 6 796 502 670 514 43 607 
755 9 719 121 172 505 132 237 772 653 538 
756 9 492 40 127 475 617 546 273 314 533 
757 9 26 88 426 703 448 49 479 684 406 
758 9 732 736 674 131 51 565 765 245 583 
759 9 179 572 787 217 215 295 510 415 135 
760 9 219 252 480 114 610 675 341 8 772 
761 9 585 50 558 633 615 304 365 17 283 
762 9 168 729 57 248 360 676 55 563 403 
763 9 337 97 165 725 420 748 285 649 696 
764 9 711 14 72 528 557 195 282 249 461 
765 9 198 51 446 509 583 555 449 736 758 
766 9 542 359 214 646 126 668 614 392 64 
767 9 795 90 515 119 453 2 34 65 60 
768 9 400 495 770 320 148 160 489 673 771 
769 9 204 95 605 624 398 132 496 570 52 
770 9 320 673 160 148 495 771 18 622 768 
771 9 622 526 673 406 495 770 333 49 270 
772 9 505 610 719 114 747 647 480 755 760 
773 6 687 785 310 180 140 783 
774 9 118 155 775 650 45 694 244 547 749 
775 9 155 118 650 774 547 452 20 694 201 
776 8 549 234 113 602 418 597 398 570 
777 9 383 540 428 353 612 96 233 593 19 
778 9 386 781 209 291 544 645 46 513 328 
779 9 146 607 752 109 522 514 754 796 502 
780 8 391 743 421 438 384 17 737 42 
781 9 778 291 386 374 209 577 539 544 46 
782 9 239 44 48 710 334 520 594 71 157 
783 7 705 692 140 331 34 785 677 
784 9 206 242 258 32 73 330 329 521 283 
785 9 180 773 687 140 76 331 62 68 300 
786 9 611 59 467 667 567 741 730 54 527 
787 9 217 179 759 510 572 215 135 223 415 
788 9 381 429 296 99 55 507 729 231 517 
789 7 86 579 459 545 589 312 478 
790 9 366 735 158 674 233 224 340 19 565 
791 9 489 455 225 148 160 400 320 722 450 
792 9 63 145 147 700 284 482 264 573 724 
793 9 395 715 680 459 579 86 493 789 312 
794 8 259 724 698 792 63 284 482 493 
795 9 767 515 90 2 65 453 34 119 294 
796 6 754 502 670 514 43 134 
797 6 324 48 44 71 402 380 
798 8 255 194 174 501 452 458 303 547 
799 9 423 106 632 220 4 407 285 184 701 
800 9 550 10 303 452 201 93 20 194 701 
DEPOT_SECTION
   1
   -1
EOF
