NAME :  X-n819-kX-w327-c9.cctp
COMMENT : 	Adapted by Maziero, Usberti and Cavellucci from the Uchoa, Pecin, Pessoa, Poggi, Subramanian, and Vidal (2013)
TYPE :  CCTP
DIMENSION :    818
EDGE_WEIGHT_TYPE : 	EUC_2D	
CAPACITY : 	358
VERTICES_WITHIN_COVERAGE :  9
VERTICES_WITH_DEMAND : 	327
NODE_COORD_SECTION
1 500 500
2 174 325
3 49 34
4 543 815
5 42 920
6 545 80
7 681 950
8 664 944
9 61 68
10 609 259
11 116 500
12 482 911
13 708 930
14 93 57
15 642 940
16 487 619
17 511 63
18 330 52
19 529 831
20 586 862
21 503 839
22 713 994
23 28 939
24 9 111
25 203 347
26 31 115
27 414 352
28 521 982
29 121 304
30 600 26
31 506 772
32 624 39
33 205 328
34 218 104
35 22 959
36 657 188
37 72 978
38 434 815
39 487 107
40 22 987
41 599 870
42 201 402
43 726 961
44 51 7
45 35 922
46 182 331
47 577 233
48 672 906
49 485 852
50 543 849
51 574 991
52 120 166
53 592 877
54 422 762
55 26 695
56 52 953
57 673 848
58 66 393
59 165 162
60 824 928
61 462 135
62 520 759
63 25 807
64 483 808
65 600 549
66 196 76
67 420 719
68 348 480
69 531 837
70 157 347
71 273 259
72 526 18
73 373 29
74 39 211
75 398 49
76 451 211
77 693 949
78 518 106
79 451 981
80 629 687
81 731 830
82 599 866
83 202 772
84 217 285
85 102 404
86 481 771
87 601 864
88 123 963
89 467 217
90 62 8
91 532 256
92 57 914
93 640 193
94 502 823
95 197 59
96 4 824
97 110 938
98 439 838
99 543 808
100 51 34
101 94 672
102 55 46
103 420 46
104 666 997
105 186 414
106 398 883
107 103 942
108 482 816
109 62 137
110 11 840
111 37 54
112 537 858
113 745 914
114 183 279
115 703 953
116 762 726
117 485 54
118 64 920
119 74 352
120 560 178
121 283 179
122 496 834
123 660 886
124 589 160
125 650 963
126 565 36
127 241 338
128 446 971
129 638 817
130 193 372
131 752 955
132 511 904
133 411 5
134 780 925
135 536 781
136 53 168
137 495 777
138 42 892
139 488 80
140 793 984
141 201 317
142 531 985
143 181 240
144 530 802
145 576 942
146 654 903
147 634 953
148 612 71
149 334 119
150 155 811
151 35 956
152 593 840
153 588 819
154 771 968
155 273 325
156 561 46
157 113 88
158 23 813
159 49 38
160 162 152
161 611 778
162 297 479
163 627 78
164 559 818
165 79 48
166 711 905
167 612 162
168 509 839
169 153 45
170 301 160
171 693 913
172 527 213
173 144 73
174 347 325
175 95 965
176 29 145
177 268 374
178 674 900
179 418 225
180 532 930
181 501 68
182 24 888
183 310 365
184 572 153
185 546 820
186 683 948
187 561 150
188 571 205
189 513 166
190 523 805
191 193 375
192 553 9
193 131 86
194 154 914
195 528 786
196 104 10
197 672 129
198 908 170
199 654 893
200 514 130
201 547 783
202 33 856
203 563 814
204 117 19
205 459 856
206 467 859
207 494 844
208 106 523
209 89 268
210 726 969
211 155 240
212 137 860
213 497 414
214 294 802
215 85 39
216 649 864
217 168 885
218 658 764
219 52 978
220 521 99
221 529 779
222 317 909
223 32 72
224 704 952
225 197 150
226 307 273
227 602 256
228 680 775
229 169 378
230 111 139
231 578 87
232 258 317
233 657 898
234 438 983
235 179 381
236 510 735
237 586 48
238 663 907
239 189 269
240 210 315
241 82 925
242 503 313
243 541 34
244 369 228
245 44 321
246 415 220
247 83 294
248 297 381
249 646 844
250 241 942
251 25 39
252 67 86
253 771 900
254 500 94
255 69 874
256 176 285
257 140 267
258 267 333
259 561 920
260 490 62
261 48 858
262 521 801
263 181 316
264 179 85
265 17 56
266 142 901
267 95 82
268 411 740
269 533 794
270 474 811
271 325 412
272 626 805
273 480 939
274 158 4
275 777 982
276 7 927
277 611 848
278 115 40
279 185 356
280 585 173
281 300 382
282 21 63
283 707 856
284 45 961
285 165 62
286 8 875
287 435 96
288 72 127
289 68 71
290 590 866
291 607 175
292 732 873
293 678 960
294 105 300
295 488 850
296 524 833
297 179 767
298 688 857
299 559 798
300 556 998
301 626 855
302 474 784
303 599 803
304 639 513
305 348 284
306 535 534
307 552 830
308 565 774
309 193 52
310 556 666
311 509 765
312 41 119
313 118 246
314 170 171
315 79 975
316 131 959
317 139 193
318 630 881
319 14 853
320 553 62
321 65 0
322 822 866
323 342 897
324 669 895
325 204 332
326 24 307
327 163 344
328 493 780
329 687 988
330 723 938
331 133 299
332 838 996
333 747 957
334 685 953
335 124 990
336 565 47
337 34 141
338 69 911
339 77 850
340 173 354
341 237 260
342 689 665
343 624 724
344 564 607
345 221 496
346 585 761
347 72 233
348 238 451
349 451 753
350 10 27
351 539 773
352 104 891
353 240 717
354 540 26
355 48 70
356 58 59
357 78 51
358 76 933
359 429 830
360 304 71
361 702 1000
362 695 79
363 142 327
364 90 319
365 572 857
366 552 866
367 581 134
368 565 898
369 473 856
370 183 84
371 625 834
372 529 922
373 518 746
374 694 842
375 715 979
376 690 911
377 29 16
378 671 971
379 157 358
380 171 949
381 560 81
382 534 40
383 137 848
384 941 947
385 50 965
386 137 291
387 62 100
388 315 146
389 712 752
390 499 688
391 12 29
392 477 720
393 481 82
394 193 265
395 72 4
396 12 890
397 588 910
398 675 981
399 95 872
400 61 941
401 0 670
402 582 798
403 36 58
404 257 667
405 525 819
406 579 919
407 653 935
408 762 807
409 241 306
410 129 408
411 941 800
412 603 95
413 421 948
414 561 653
415 596 837
416 199 342
417 229 317
418 198 350
419 727 827
420 534 892
421 196 105
422 169 341
423 618 853
424 65 415
425 687 953
426 597 972
427 158 345
428 168 332
429 569 28
430 499 805
431 428 894
432 121 992
433 539 750
434 688 899
435 172 491
436 369 479
437 49 891
438 256 770
439 415 937
440 87 86
441 505 783
442 208 462
443 556 917
444 507 272
445 473 946
446 129 174
447 44 120
448 484 88
449 275 224
450 386 351
451 761 965
452 418 252
453 33 233
454 270 216
455 583 939
456 454 75
457 90 999
458 572 51
459 58 291
460 624 849
461 138 271
462 580 870
463 487 213
464 174 502
465 523 792
466 196 806
467 752 26
468 489 858
469 563 88
470 749 944
471 568 369
472 612 959
473 580 142
474 601 848
475 587 132
476 429 931
477 425 906
478 165 918
479 56 867
480 645 972
481 200 307
482 63 913
483 518 183
484 592 757
485 573 812
486 703 818
487 727 924
488 465 800
489 574 904
490 11 954
491 178 743
492 24 106
493 319 914
494 144 326
495 545 810
496 29 49
497 523 798
498 279 346
499 381 237
500 45 58
501 287 764
502 376 828
503 61 589
504 24 440
505 4 968
506 519 601
507 159 419
508 6 15
509 689 943
510 589 806
511 488 64
512 193 365
513 660 952
514 126 365
515 135 1000
516 846 808
517 652 954
518 571 107
519 576 158
520 42 159
521 176 182
522 266 261
523 527 817
524 573 905
525 564 87
526 497 765
527 483 865
528 65 894
529 110 896
530 50 230
531 791 119
532 689 955
533 638 891
534 534 35
535 295 209
536 540 822
537 517 26
538 538 79
539 599 3
540 593 782
541 45 0
542 703 930
543 707 633
544 490 107
545 113 17
546 163 88
547 583 628
548 474 789
549 130 250
550 500 169
551 68 825
552 9 943
553 17 896
554 565 35
555 413 80
556 743 800
557 494 869
558 183 312
559 127 898
560 894 879
561 559 953
562 235 214
563 675 777
564 628 127
565 112 118
566 66 309
567 1 892
568 566 275
569 35 927
570 152 359
571 566 201
572 237 261
573 664 667
574 467 937
575 144 327
576 62 273
577 567 59
578 92 296
579 4 319
580 797 701
581 63 83
582 99 246
583 340 435
584 431 52
585 234 263
586 161 343
587 556 90
588 246 413
589 18 884
590 422 731
591 24 65
592 626 53
593 509 746
594 569 898
595 743 851
596 416 906
597 520 46
598 660 760
599 63 807
600 221 463
601 732 909
602 704 940
603 671 909
604 499 159
605 160 967
606 361 128
607 649 861
608 116 104
609 667 764
610 161 352
611 637 772
612 8 93
613 471 759
614 456 852
615 728 780
616 541 805
617 713 907
618 515 873
619 11 275
620 567 890
621 81 862
622 705 942
623 118 327
624 579 904
625 254 330
626 402 539
627 783 822
628 487 201
629 14 19
630 581 876
631 39 795
632 628 739
633 604 984
634 781 525
635 39 852
636 706 947
637 229 339
638 533 973
639 738 836
640 0 139
641 130 325
642 26 364
643 853 961
644 151 260
645 412 937
646 273 392
647 695 995
648 544 786
649 96 23
650 1 405
651 142 302
652 484 875
653 775 773
654 499 18
655 39 52
656 698 178
657 564 826
658 37 878
659 576 208
660 550 819
661 461 796
662 546 805
663 65 886
664 93 132
665 48 0
666 648 844
667 35 957
668 70 204
669 91 1000
670 741 913
671 659 627
672 529 786
673 197 355
674 643 157
675 151 1
676 297 284
677 7 211
678 635 908
679 533 136
680 548 625
681 556 714
682 715 919
683 102 917
684 491 40
685 452 801
686 165 926
687 659 731
688 460 779
689 963 952
690 694 940
691 823 947
692 462 123
693 53 251
694 481 179
695 506 826
696 531 827
697 258 186
698 722 621
699 537 51
700 655 762
701 565 141
702 188 88
703 655 42
704 124 310
705 573 805
706 44 925
707 381 213
708 65 691
709 82 929
710 540 156
711 219 340
712 638 784
713 742 699
714 611 651
715 522 748
716 236 388
717 605 842
718 28 75
719 671 852
720 555 130
721 637 21
722 255 311
723 486 81
724 577 814
725 630 923
726 147 226
727 560 55
728 168 823
729 145 242
730 547 796
731 506 74
732 581 763
733 840 991
734 553 816
735 114 0
736 902 947
737 680 942
738 94 13
739 183 310
740 16 909
741 745 841
742 601 802
743 307 361
744 174 323
745 480 80
746 792 924
747 144 43
748 575 751
749 642 135
750 568 107
751 251 48
752 509 90
753 574 870
754 750 919
755 86 444
756 780 938
757 564 172
758 599 791
759 594 200
760 222 478
761 102 646
762 278 137
763 543 833
764 316 283
765 40 828
766 676 214
767 119 4
768 38 79
769 236 811
770 487 724
771 546 814
772 607 95
773 300 72
774 63 228
775 46 24
776 145 435
777 733 741
778 692 956
779 748 914
780 107 344
781 565 104
782 99 888
783 570 963
784 207 354
785 111 873
786 794 926
787 542 797
788 692 925
789 601 845
790 726 947
791 36 904
792 0 507
793 577 986
794 529 574
795 545 845
796 525 912
797 795 692
798 663 944
799 82 952
800 521 709
801 589 192
802 506 93
803 126 419
804 31 881
805 525 897
806 518 786
807 525 786
808 649 937
809 579 74
810 794 915
811 402 111
812 433 838
813 261 258
814 248 400
815 51 910
816 96 62
817 635 837
818 666 855
DEMAND_SECTION
2 89
3 59
4 53
5 85
6 95
7 66
8 70
9 84
10 68
11 96
12 87
13 77
14 65
15 88
16 75
17 84
18 92
19 75
20 77
21 55
22 64
23 60
24 71
25 80
26 79
27 61
28 100
29 62
30 92
31 60
32 55
33 52
34 65
35 73
36 81
37 97
38 75
39 76
40 87
41 99
42 78
43 50
44 70
45 89
46 98
47 84
48 59
49 63
50 62
51 88
52 61
53 77
54 70
55 76
56 77
57 59
58 53
59 54
60 74
61 81
62 59
63 79
64 78
65 95
66 51
67 69
68 73
69 78
70 59
71 86
72 63
73 97
74 51
75 77
76 99
77 76
78 68
79 77
80 65
81 87
82 62
83 76
84 86
85 92
86 62
87 96
88 80
89 56
90 86
91 86
92 95
93 73
94 74
95 73
96 87
97 92
98 88
99 81
100 81
101 74
102 62
103 55
104 76
105 98
106 78
107 59
108 74
109 83
110 92
111 75
112 71
113 75
114 81
115 70
116 52
117 94
118 54
119 78
120 58
121 93
122 64
123 89
124 63
125 82
126 98
127 51
128 58
129 63
130 61
131 91
132 56
133 81
134 97
135 91
136 51
137 73
138 95
139 79
140 100
141 55
142 81
143 85
144 52
145 99
146 57
147 54
148 62
149 78
150 60
151 81
152 89
153 87
154 80
155 96
156 83
157 53
158 95
159 70
160 69
161 81
162 62
163 83
164 50
165 93
166 77
167 50
168 67
169 92
170 94
171 69
172 76
173 88
174 52
175 64
176 87
177 77
178 80
179 61
180 66
181 91
182 94
183 62
184 96
185 60
186 70
187 90
188 53
189 84
190 80
191 88
192 96
193 63
194 79
195 88
196 65
197 54
198 68
199 93
200 99
201 75
202 61
203 63
204 53
205 77
206 68
207 72
208 100
209 81
210 89
211 73
212 67
213 77
214 70
215 80
216 58
217 84
218 75
219 54
220 77
221 67
222 67
223 62
224 64
225 82
226 51
227 90
228 52
229 63
230 83
231 75
232 72
233 94
234 88
235 93
236 86
237 66
238 93
239 65
240 68
241 81
242 72
243 74
244 65
245 82
246 52
247 91
248 50
249 76
250 84
251 70
252 54
253 100
254 70
255 50
256 52
257 56
258 68
259 72
260 63
261 64
262 86
263 54
264 65
265 66
266 61
267 92
268 72
269 52
270 91
271 51
272 69
273 97
274 69
275 95
276 63
277 51
278 54
279 53
280 51
281 59
282 84
283 73
284 89
285 76
286 53
287 62
288 85
289 56
290 67
291 66
292 99
293 50
294 92
295 90
296 54
297 64
298 73
299 93
300 66
301 81
302 75
303 90
304 78
305 100
306 69
307 70
308 62
309 80
310 92
311 76
312 86
313 52
314 65
315 93
316 81
317 92
318 81
319 53
320 90
321 54
322 90
323 55
324 61
325 70
326 63
327 89
328 66
COVERAGE_SECTION
2 9 744 428 46 263 558 422 739 327 586 
3 9 100 159 775 102 655 111 500 251 496 
4 9 771 495 185 99 536 660 616 662 734 
5 9 706 45 569 815 92 791 118 482 23 
6 9 538 381 587 320 469 525 727 577 699 
7 9 186 334 425 737 532 293 509 77 778 
8 9 798 513 407 517 737 808 7 186 293 
9 9 289 356 355 581 252 500 102 357 768 
10 9 227 47 568 659 759 188 801 571 93 
11 9 208 435 464 755 776 803 507 410 85 
12 9 273 132 574 445 652 796 557 805 527 
13 9 542 602 622 682 330 636 690 788 487 
14 9 816 357 165 215 267 278 289 440 9 
15 9 808 407 147 517 725 798 8 513 125 
16 9 506 680 794 390 344 414 310 547 800 
17 9 181 731 597 260 511 752 117 139 699 
18 9 360 773 73 149 75 751 606 555 103 
19 9 696 296 69 405 523 536 763 185 4 
20 9 290 462 82 753 41 87 365 630 53 
21 9 168 122 207 695 94 295 49 296 468 
22 9 361 375 647 329 210 43 398 115 224 
23 9 569 45 151 552 667 35 706 490 5 
24 9 492 612 26 640 312 447 176 337 718 
25 9 416 418 784 673 325 711 33 279 512 
26 9 312 492 447 24 337 176 612 387 768 
27 9 450 174 305 242 452 213 183 271 743 
28 9 142 638 300 561 180 783 51 793 273 
29 9 704 331 294 386 651 623 641 578 363 
30 9 539 237 32 429 126 554 592 721 458 
31 9 311 441 526 137 328 806 62 221 807 
32 9 592 721 30 703 148 163 237 539 458 
33 9 325 141 240 416 711 25 481 46 418 
34 9 421 702 66 370 264 95 225 546 309 
35 9 490 151 667 505 23 552 284 40 385 
36 9 93 766 674 656 167 291 749 197 759 
37 9 315 219 175 385 457 799 669 56 284 
38 9 359 685 812 98 661 488 270 614 688 
39 9 544 254 448 802 393 723 139 745 752 
40 9 505 35 219 667 151 284 490 385 56 
41 9 82 87 53 290 20 462 630 474 277 
42 9 105 191 235 130 512 716 229 507 588 
43 9 210 790 333 375 330 115 224 636 131 
44 9 665 541 90 321 775 395 377 3 100 
45 9 569 5 706 23 791 815 92 740 276 
46 9 2 744 428 263 422 558 416 739 325 
47 9 659 188 227 571 759 10 568 801 91 
48 9 603 178 238 324 233 434 146 376 171 
49 9 295 468 207 369 527 206 557 122 21 
50 9 795 112 763 69 366 307 19 296 696 
51 9 793 300 783 426 633 561 142 638 145 
52 9 446 230 317 664 160 59 565 314 521 
53 9 41 290 630 82 462 20 87 753 365 
54 9 268 349 590 688 67 613 685 661 38 
55 9 401 708 101 761 631 63 503 158 599 
56 9 284 385 400 151 667 219 23 706 799 
57 9 719 818 298 374 666 249 607 216 283 
58 9 424 85 119 642 755 504 780 410 803 
59 9 160 314 521 225 446 317 52 230 421 
60 9 691 786 746 810 134 643 756 253 322 
61 9 692 39 544 604 287 694 550 200 448 
62 9 715 311 373 593 31 433 221 351 526 
63 9 158 631 765 96 110 599 319 551 635 
64 9 108 270 430 488 548 94 661 302 122 
65 9 304 306 344 794 547 680 506 671 714 
66 9 702 370 95 264 309 421 285 546 34 
67 9 590 268 54 349 392 613 770 688 86 
68 9 436 583 162 271 626 281 248 348 646 
69 9 19 296 696 763 795 50 536 405 523 
70 9 427 586 610 327 379 422 570 340 428 
71 9 522 813 449 676 341 572 226 585 454 
72 9 537 354 534 243 382 654 192 597 699 
73 9 75 133 18 103 584 555 360 773 811 
74 9 530 453 774 668 677 347 693 136 520 
75 9 103 73 584 555 133 287 456 811 18 
76 9 89 179 463 246 628 694 452 550 707 
77 9 425 509 532 778 334 690 186 115 224 
78 9 220 752 802 254 200 544 39 538 679 
79 9 128 234 445 413 574 273 476 439 645 
80 9 343 573 714 632 687 342 671 547 310 
81 9 419 639 741 595 486 556 283 374 408 
82 9 87 41 290 53 20 474 462 630 789 
83 9 297 466 491 769 438 150 728 353 501 
84 9 481 585 240 394 572 239 341 409 417 
85 9 410 803 58 424 755 514 776 119 507 
86 9 137 302 328 613 526 548 688 31 441 
87 9 82 41 290 20 53 474 277 789 423 
88 9 316 335 97 175 107 432 605 515 799 
89 9 76 463 628 694 179 246 550 172 452 
90 9 321 44 395 665 541 775 100 3 738 
91 9 444 568 172 47 463 188 242 571 659 
92 9 482 815 118 338 5 706 528 45 791 
93 9 36 674 291 167 766 759 801 749 280 
94 9 695 122 21 168 430 108 207 405 64 
95 9 309 66 370 702 264 285 546 169 421 
96 9 110 158 63 319 765 202 631 635 286 
97 9 107 683 88 709 316 175 241 799 358 
98 9 812 359 614 38 205 206 369 685 270 
99 9 495 616 662 4 771 787 185 660 730 
100 9 3 159 775 102 655 111 500 251 356 
101 9 761 708 55 503 401 491 297 631 599 
102 9 159 3 100 356 500 655 111 403 9 
103 9 584 75 555 133 456 73 287 117 811 
104 9 398 329 378 647 480 361 125 293 513 
105 9 42 507 235 191 229 130 776 512 442 
106 9 596 431 477 645 439 476 812 323 502 
107 9 97 799 175 683 709 241 358 88 316 
108 9 64 270 430 94 122 488 695 548 661 
109 9 288 447 312 337 520 664 136 176 387 
110 9 319 96 202 158 635 765 286 63 261 
111 9 655 403 496 500 591 282 223 251 355 
112 9 50 795 366 69 763 618 19 296 307 
113 9 779 670 754 601 487 253 470 682 330 
114 9 256 239 394 739 481 558 84 263 644 
115 9 224 636 77 622 778 602 532 425 690 
116 9 777 713 580 797 653 389 615 556 408 
117 9 260 511 684 181 139 745 723 17 393 
118 9 482 92 338 815 358 241 709 400 706 
119 9 780 364 58 245 566 642 623 514 85 
120 9 757 571 280 519 184 187 188 710 801 
121 9 170 697 535 454 762 388 449 562 149 
122 9 21 207 94 695 168 295 49 108 468 
123 9 199 233 324 146 178 238 48 533 216 
124 9 519 280 184 473 167 291 367 475 757 
125 9 517 480 513 147 378 798 8 15 808 
126 9 554 429 156 336 458 727 577 237 243 
127 9 637 625 711 417 258 232 722 409 155 
128 9 79 234 413 445 574 476 439 273 645 
129 9 272 817 371 249 666 712 460 301 742 
130 9 191 512 235 673 279 418 784 229 25 
131 9 333 470 451 154 43 790 210 756 330 
132 9 796 805 372 420 12 618 180 557 652 
133 9 103 73 75 584 555 456 684 117 654 
134 9 746 756 786 810 253 754 779 470 113 
135 9 221 195 351 648 672 201 807 269 465 
136 9 520 109 176 337 668 74 288 447 312 
137 9 328 31 441 526 86 311 302 548 806 
138 9 437 791 658 804 182 815 528 663 553 
139 9 723 393 745 448 511 181 254 260 731 
140 9 275 154 451 332 691 733 756 131 333 
141 9 240 481 33 325 558 739 263 46 416 
142 9 28 638 300 51 561 783 793 180 145 
143 9 211 394 239 644 729 726 114 256 257 
144 9 190 497 262 269 616 465 787 99 523 
145 9 455 561 783 406 259 443 397 426 524 
146 9 233 199 238 324 48 123 603 178 533 
147 9 15 517 125 480 808 472 407 513 725 
148 9 163 592 772 412 809 32 237 231 458 
149 9 606 388 170 360 773 762 18 811 121 
150 9 728 383 466 297 212 83 491 217 785 
151 9 667 284 35 56 385 23 490 219 552 
152 9 415 789 474 717 277 153 20 87 290 
153 9 724 510 485 303 415 705 742 152 402 
154 9 451 275 131 333 140 756 470 134 210 
155 9 258 232 625 498 722 127 409 417 637 
156 9 336 727 126 458 554 577 320 429 243 
157 9 608 193 267 440 565 816 173 14 252 
158 9 63 96 765 631 110 599 319 635 202 
159 9 3 100 102 775 655 111 500 356 496 
160 9 59 314 521 225 446 52 317 230 421 
161 9 540 758 742 611 303 484 712 272 346 
162 9 68 583 348 436 271 760 345 600 588 
163 9 148 592 772 412 32 703 809 564 231 
164 9 203 734 657 660 185 307 771 485 4 
165 9 357 215 14 816 102 356 289 9 649 
166 9 617 682 171 601 376 434 13 487 542 
167 9 291 124 280 674 519 473 564 801 475 
168 9 21 695 122 207 296 94 19 69 295 
169 9 747 285 173 278 274 309 204 546 675 
170 9 388 121 762 535 697 149 454 606 449 
171 9 376 788 434 166 542 617 48 603 13 
172 9 483 463 571 628 91 188 120 189 659 
173 9 193 285 546 169 747 157 264 370 608 
174 9 305 450 764 183 743 676 226 498 27 
175 9 799 315 107 37 88 97 457 669 316 
176 9 337 520 312 447 26 640 136 109 24 
177 9 646 248 498 281 814 716 258 743 183 
178 9 48 324 603 238 434 233 376 123 146 
179 9 246 452 76 499 707 244 89 463 628 
180 9 372 796 443 259 132 805 561 420 638 
181 9 731 17 260 511 139 723 117 752 393 
182 9 589 804 553 396 658 138 791 286 740 
183 9 743 281 248 498 177 646 271 155 174 
184 9 519 187 473 701 124 367 757 280 475 
185 9 660 4 536 771 734 495 99 307 164 
186 9 7 334 425 737 509 532 77 778 293 
187 9 701 184 519 473 720 710 757 367 120 
188 9 571 659 801 759 47 120 757 280 172 
189 9 550 604 483 710 694 200 679 628 120 
190 9 262 497 144 465 523 405 269 616 807 
191 9 130 512 235 673 279 229 418 784 42 
192 9 354 429 72 243 554 126 534 382 156 
193 9 157 173 608 546 267 565 285 816 440 
194 9 478 686 266 559 217 380 529 97 316 
195 9 672 807 221 465 135 269 806 497 144 
196 9 738 545 735 649 204 767 278 395 215 
197 9 749 674 564 362 656 36 163 167 93 
198 9 531 656 467 362 766 197 36 674 749 
199 9 233 123 146 324 533 238 178 48 603 
200 9 679 78 220 544 604 39 189 710 802 
201 9 648 135 351 730 787 221 269 672 195 
202 9 635 261 319 658 479 804 110 765 286 
203 9 164 485 734 657 705 660 724 299 771 
204 9 545 767 196 735 278 649 738 747 215 
205 9 614 206 369 49 527 98 295 468 652 
206 9 369 205 614 527 49 468 295 652 557 
207 9 295 21 122 49 468 168 94 695 369 
208 9 11 464 435 503 755 776 803 792 424 
209 9 582 247 576 578 294 313 347 459 693 
210 9 43 375 790 333 22 115 224 131 636 
211 9 729 726 644 143 549 257 461 313 239 
212 9 383 785 559 217 266 399 352 529 782 
213 9 471 242 27 306 450 444 436 568 626 
214 9 501 438 769 502 83 466 353 323 222 
215 9 165 357 649 14 816 738 278 102 100 
216 9 607 818 249 666 123 301 318 719 57 
217 9 266 194 478 212 686 559 383 785 529 
218 9 598 700 609 563 611 228 712 687 632 
219 9 385 284 37 56 315 667 151 40 35 
220 9 78 752 802 254 538 731 6 200 544 
221 9 135 195 672 807 351 806 465 269 648 
222 9 493 323 250 106 596 645 502 439 477 
223 9 718 768 591 282 403 355 111 500 655 
224 9 115 636 622 77 602 778 532 690 425 
225 9 59 314 160 521 421 34 702 264 370 
226 9 764 676 71 305 522 813 449 155 722 
227 9 10 47 568 659 759 188 801 571 91 
228 9 563 609 218 598 700 389 611 712 615 
229 9 235 379 191 340 130 570 279 512 610 
230 9 664 565 52 608 446 288 109 157 160 
231 9 809 525 469 381 518 781 587 750 412 
232 9 722 625 155 258 409 127 417 498 637 
233 9 146 199 238 123 324 48 178 603 533 
234 9 79 128 413 439 445 476 645 574 273 
235 9 229 191 130 512 279 340 42 379 673 
236 9 593 373 715 770 62 800 311 433 526 
237 9 458 336 577 126 156 554 30 429 727 
238 9 603 48 146 233 178 324 199 123 434 
239 9 394 114 256 143 84 644 481 739 558 
240 9 141 481 33 325 417 558 711 739 263 
241 9 709 358 118 338 482 683 400 92 107 
242 9 444 91 568 471 27 213 463 89 172 
243 9 534 354 382 699 72 156 126 554 597 
244 9 499 707 246 179 452 305 535 764 226 
245 9 326 566 459 579 119 364 247 642 576 
246 9 179 452 707 76 499 244 89 463 628 
247 9 578 294 566 459 364 209 576 29 704 
248 9 281 183 743 646 177 498 271 814 258 
249 9 666 817 607 216 301 371 460 818 719 
250 9 380 686 478 222 493 605 194 217 266 
251 9 496 391 111 265 350 655 403 377 629 
252 9 581 289 387 9 440 355 267 356 768 
253 9 134 779 810 754 113 746 670 786 756 
254 9 802 752 544 448 39 139 723 731 78 
255 9 663 479 621 528 339 261 399 437 138 
256 9 114 239 394 739 558 263 481 644 651 
257 9 461 644 549 386 729 313 211 331 651 
258 9 155 625 232 498 722 127 409 637 177 
259 9 443 406 524 489 368 594 624 145 397 
260 9 511 117 181 139 723 731 17 745 393 
261 9 635 479 202 658 255 804 339 765 437 
262 9 190 497 144 465 269 806 807 195 523 
263 9 558 739 744 2 46 141 428 481 33 
264 9 370 702 546 66 421 285 95 309 173 
265 9 282 591 496 251 403 111 223 655 718 
266 9 559 194 478 217 529 686 352 212 785 
267 9 440 157 816 14 252 289 608 581 357 
268 9 590 67 54 349 613 688 392 685 661 
269 9 144 195 672 787 465 497 807 135 262 
270 9 64 108 488 661 548 685 430 302 94 
271 9 583 281 248 183 743 646 177 68 162 
272 9 129 712 742 303 371 758 161 817 611 
273 9 445 574 12 128 132 79 372 476 796 
274 9 675 767 169 747 204 735 545 196 278 
275 9 154 140 451 131 333 756 470 210 43 
276 9 552 740 23 490 45 569 553 35 5 
277 9 717 423 474 789 460 301 87 415 152 
278 9 204 545 649 14 747 816 215 196 738 
279 9 340 512 673 418 130 25 416 191 422 
280 9 124 519 801 757 291 184 120 759 167 
281 9 248 183 743 646 177 271 498 814 258 
282 9 591 265 223 718 403 496 111 655 768 
283 9 298 374 292 57 81 419 595 719 639 
284 9 385 56 151 667 219 35 400 23 37 
285 9 169 173 546 264 370 747 309 95 66 
286 9 589 396 567 182 319 553 804 658 202 
287 9 555 456 811 692 584 61 393 745 448 
288 9 109 664 387 447 312 337 230 252 565 
289 9 9 581 252 356 355 357 440 165 500 
290 9 20 82 41 53 87 462 630 753 365 
291 9 167 280 124 801 759 519 93 674 184 
292 9 595 283 741 601 639 166 617 670 81 
293 9 7 334 425 532 186 378 778 737 77 
294 9 578 29 704 247 364 331 623 386 641 
295 9 49 207 468 369 527 122 21 557 206 
296 9 19 69 696 405 168 523 536 695 763 
297 9 83 491 466 150 728 769 438 353 383 
298 9 374 57 719 283 818 607 123 216 324 
299 9 730 662 203 705 787 495 99 201 616 
300 9 51 793 142 638 28 783 561 426 633 
301 9 460 423 277 817 371 249 607 216 666 
302 9 548 86 688 488 661 328 137 613 64 
303 9 742 510 758 402 153 540 724 705 272 
304 9 65 306 671 344 794 547 698 543 714 
305 9 764 174 226 676 499 244 450 452 707 
306 9 794 65 506 344 680 16 304 547 414 
307 9 763 660 185 657 164 536 734 4 771 
308 9 732 201 346 648 299 748 351 730 402 
309 9 95 66 285 370 264 702 169 546 747 
310 9 414 680 547 681 800 714 344 390 506 
311 9 31 526 62 137 441 593 373 715 328 
312 9 447 26 492 337 109 387 176 288 24 
313 9 549 582 729 257 461 726 209 644 211 
314 9 59 521 160 225 317 446 52 726 230 
315 9 37 175 799 457 219 669 385 56 284 
316 9 88 97 605 335 107 432 175 380 515 
317 9 446 52 726 314 521 59 160 729 211 
318 9 533 216 301 199 678 607 123 423 233 
319 9 110 202 286 635 96 589 804 261 658 
320 9 727 577 156 336 699 6 381 458 538 
321 9 395 90 44 665 541 775 738 100 3 
322 9 810 627 253 60 516 746 786 134 560 
323 9 222 493 106 596 502 645 439 477 431 
324 9 178 48 233 123 238 603 199 146 434 
325 9 33 416 25 141 711 240 418 46 784 
326 9 579 245 619 459 566 576 642 247 693 
327 9 586 427 70 422 610 428 340 379 570 
328 9 137 441 31 86 526 302 548 311 430 
329 9 647 398 361 104 378 22 293 375 778 
330 9 790 487 13 622 602 636 682 542 43 
331 9 386 651 29 704 641 294 461 363 494 
332 9 733 643 140 691 275 60 154 736 756 
333 9 131 470 451 43 790 210 154 330 754 
334 9 425 532 7 186 778 77 293 509 737 
335 9 432 515 88 316 669 457 175 605 315 
336 9 156 458 727 126 554 577 320 429 237 
337 9 176 520 312 447 26 109 136 640 492 
338 9 482 118 92 528 815 241 709 358 663 
339 9 621 255 479 551 399 261 635 663 785 
340 9 279 610 327 422 379 586 70 427 570 
341 9 572 585 813 522 84 71 394 409 562 
342 9 573 543 671 698 713 80 687 714 343 
343 9 632 687 80 484 700 611 598 218 346 
344 9 680 547 506 414 794 310 714 65 16 
345 9 760 600 442 464 348 435 162 588 105 
346 9 732 484 748 540 308 161 758 402 201 
347 9 774 530 693 668 582 209 453 74 576 
348 9 600 760 442 588 345 814 42 716 105 
349 9 613 688 54 86 590 302 268 392 548 
350 9 391 629 508 251 377 496 265 775 111 
351 9 135 221 201 648 672 195 807 269 433 
352 9 782 529 785 399 559 683 621 255 266 
353 9 404 438 501 83 491 297 769 466 214 
354 9 243 534 382 72 192 537 699 126 554 
355 9 500 9 768 356 223 403 111 289 581 
356 9 9 102 500 355 289 655 111 357 403 
357 9 165 215 14 816 289 356 9 102 100 
358 9 709 241 400 118 799 338 482 92 107 
359 9 812 98 38 614 685 205 488 661 206 
360 9 773 18 149 751 762 388 73 606 170 
361 9 647 22 329 375 398 104 210 378 778 
362 9 703 197 163 592 749 467 32 564 721 
363 9 494 575 641 427 623 70 586 651 704 
364 9 578 294 247 566 623 780 29 704 119 
365 9 753 20 462 290 630 366 152 53 82 
366 9 112 50 365 753 795 462 620 630 420 
367 8 475 473 701 184 519 187 720 124 
368 9 594 620 489 524 624 443 259 406 397 
369 9 206 49 527 205 295 468 614 652 207 
370 9 264 702 66 546 421 285 95 309 34 
371 9 817 460 277 423 129 301 717 249 666 
372 9 180 796 132 805 443 420 259 368 561 
373 9 715 593 62 236 311 433 526 31 351 
374 9 298 283 57 719 486 818 419 81 639 
375 9 22 210 43 361 647 115 224 329 636 
376 9 171 434 788 48 178 603 166 542 617 
377 9 629 775 391 350 251 508 541 44 665 
378 9 398 293 125 513 7 329 334 425 532 
379 9 570 610 70 427 327 340 586 422 229 
380 9 605 686 478 194 316 88 266 97 335 
381 9 525 469 587 6 231 320 809 538 577 
382 9 534 243 699 354 597 537 72 156 320 
383 9 212 785 728 150 217 399 559 266 352 
384 9 689 736 560 643 733 332 691 60 322 
385 9 284 56 219 151 667 37 400 35 315 
386 9 331 651 461 29 704 257 294 644 641 
387 9 252 581 447 312 288 440 289 9 768 
388 9 170 149 762 121 606 535 697 360 773 
389 9 777 615 228 563 609 598 218 116 556 
390 9 800 770 392 236 593 310 373 681 715 
391 9 350 629 508 251 377 496 265 775 111 
392 9 770 236 390 613 593 349 800 373 526 
393 9 745 723 139 448 511 254 260 181 39 
394 9 239 114 256 143 84 585 644 481 341 
395 9 321 90 44 665 738 541 649 196 775 
396 9 553 589 567 182 286 740 804 658 791 
397 9 624 406 489 524 594 368 259 455 620 
398 9 378 329 104 293 647 334 425 532 778 
399 9 782 785 621 352 255 339 529 663 528 
400 9 56 358 118 706 709 799 241 284 385 
401 9 55 708 101 503 761 631 63 158 599 
402 9 510 705 485 724 303 758 540 742 153 
403 9 111 655 500 496 591 223 282 355 265 
404 9 353 501 438 491 83 297 214 769 466 
405 9 523 696 19 190 296 536 4 144 262 
406 9 397 524 624 489 259 455 145 443 594 
407 9 808 15 798 8 513 517 147 725 125 
408 9 556 627 653 639 741 81 419 615 595 
409 9 722 417 232 625 84 127 240 637 155 
410 9 803 85 776 507 514 229 570 755 105 
411 9 560 516 322 384 736 689 627 653 60 
412 8 772 148 231 163 809 518 750 781 
413 9 439 645 476 128 234 477 596 79 574 
414 9 310 680 547 344 714 681 506 800 390 
415 9 152 789 717 474 277 153 20 87 423 
416 9 25 418 325 673 784 33 46 279 711 
417 9 409 240 637 127 711 33 722 141 625 
418 9 673 25 416 784 279 512 325 33 130 
419 9 81 639 741 486 595 556 283 374 408 
420 9 805 796 132 618 372 366 368 443 620 
421 9 702 34 370 264 66 546 225 95 285 
422 9 327 586 428 427 70 340 610 46 2 
423 9 460 301 277 717 474 789 87 371 82 
424 9 58 755 85 504 803 119 410 642 650 
425 9 334 532 186 778 7 77 509 293 737 
426 9 633 472 793 783 51 455 145 147 561 
427 9 70 586 327 610 422 379 570 428 340 
428 9 2 422 744 327 586 46 427 70 263 
429 9 554 126 336 156 458 192 237 727 243 
430 9 64 94 108 262 695 441 190 497 270 
431 9 477 596 106 476 439 645 205 614 206 
432 9 335 515 88 669 457 316 175 315 605 
433 9 715 62 373 351 593 135 221 236 201 
434 9 376 178 171 48 324 603 166 238 617 
435 9 464 442 345 760 600 11 776 208 507 
436 9 68 583 626 162 271 281 248 183 450 
437 9 138 528 663 658 791 815 804 92 182 
438 9 501 769 214 83 353 466 297 491 404 
439 9 645 413 476 596 477 431 128 234 574 
440 9 267 252 289 581 157 816 387 14 9 
441 9 31 137 328 806 311 465 526 807 195 
442 9 600 760 348 345 435 464 105 42 588 
443 9 259 368 524 489 406 594 624 180 372 
444 9 91 242 568 172 463 89 628 47 76 
445 9 273 574 12 128 79 476 234 413 132 
446 9 52 317 59 230 160 314 521 664 726 
447 9 312 26 337 492 109 387 176 288 24 
448 9 393 723 139 745 254 39 544 802 511 
449 9 454 535 71 813 522 562 697 121 341 
450 9 27 174 183 305 743 271 281 248 583 
451 9 154 131 333 275 470 756 43 210 140 
452 9 179 246 499 76 707 244 89 305 463 
453 9 530 74 693 774 677 347 619 668 576 
454 9 449 535 697 562 121 71 813 522 341 
455 9 145 406 783 561 259 397 443 472 524 
456 9 745 287 393 448 584 723 139 511 117 
457 9 669 315 37 432 175 335 219 515 799 
458 9 336 577 156 727 237 126 554 320 429 
459 9 576 566 247 245 578 326 209 693 364 
460 9 301 423 277 371 817 717 249 474 789 
461 9 257 644 386 549 331 729 651 313 211 
462 9 630 753 20 290 53 365 41 82 87 
463 9 628 89 694 76 172 483 550 189 604 
464 9 435 345 442 760 11 600 208 776 348 
465 9 497 807 195 672 806 262 269 144 190 
466 9 728 83 769 150 297 491 438 383 212 
467 9 362 703 531 721 32 592 197 163 148 
468 9 49 295 527 557 207 369 652 206 21 
469 9 525 587 381 231 781 6 750 518 809 
470 9 131 333 790 451 754 330 43 113 487 
471 9 213 242 568 444 10 227 91 47 27 
472 9 426 147 633 455 480 15 125 145 517 
473 8 367 475 184 701 519 124 187 720 
474 9 789 717 277 152 415 87 82 423 20 
475 8 367 473 701 184 124 519 518 750 
476 9 439 645 413 477 596 431 574 128 445 
477 9 596 431 476 439 645 106 413 574 12 
478 9 686 194 266 380 217 559 605 316 97 
479 9 261 255 663 658 635 202 437 621 339 
480 9 125 517 147 513 378 398 15 104 798 
481 9 141 240 739 558 263 33 325 84 46 
482 9 92 338 118 815 528 5 241 706 358 
483 9 189 550 172 604 710 628 694 120 463 
484 9 346 732 748 540 161 308 758 632 402 
485 9 724 705 203 164 153 402 510 657 299 
486 9 374 419 81 283 639 57 298 556 615 
487 9 682 330 601 670 13 113 617 779 790 
488 9 661 685 270 548 302 64 688 108 86 
489 9 524 624 594 368 397 406 620 259 443 
490 9 552 35 505 23 151 667 276 40 284 
491 9 297 83 466 353 150 728 438 769 101 
492 9 26 24 312 612 447 768 718 223 337 
493 9 222 323 250 106 645 596 439 502 477 
494 9 575 363 641 427 586 651 70 428 327 
495 9 99 771 4 662 616 185 660 734 536 
496 9 111 655 251 403 265 282 591 500 159 
497 9 262 465 190 144 269 807 195 672 806 
498 9 258 155 177 625 743 183 232 127 248 
499 9 244 707 246 179 452 305 76 764 226 
500 9 655 111 403 355 356 102 496 9 223 
501 9 438 214 353 769 83 466 404 297 502 
502 9 359 812 38 106 98 323 54 685 431 
503 9 761 208 101 401 708 792 11 55 464 
504 9 650 424 755 58 792 642 85 119 803 
505 9 490 35 552 40 151 667 23 276 284 
506 9 794 16 680 344 414 306 547 310 390 
507 9 776 105 410 803 229 235 42 191 130 
508 9 629 350 391 377 251 496 775 265 541 
509 9 690 77 186 737 425 7 334 532 778 
510 9 303 402 153 742 724 705 485 758 540 
511 9 260 117 181 139 723 745 393 731 17 
512 9 130 191 673 279 418 784 25 235 340 
513 9 517 8 798 125 407 808 293 7 15 
514 9 570 780 379 70 610 427 623 641 363 
515 9 335 432 88 316 605 669 457 175 315 
516 9 322 627 653 408 560 411 556 741 595 
517 9 513 125 798 8 15 808 147 407 480 
518 8 750 781 231 469 525 587 381 720 
519 9 184 124 473 187 280 757 701 367 120 
520 9 136 176 337 109 447 312 288 26 640 
521 9 314 59 160 225 317 446 726 52 143 
522 9 813 71 341 572 585 449 676 226 454 
523 9 405 696 190 19 536 144 4 296 262 
524 9 489 624 594 368 406 397 620 259 443 
525 9 469 381 587 231 781 6 750 809 518 
526 9 31 137 311 328 86 441 593 62 613 
527 9 468 652 557 49 369 295 206 207 205 
528 9 663 437 338 482 255 815 92 138 118 
529 9 352 782 559 683 785 399 266 241 97 
530 9 774 453 693 74 347 668 576 677 582 
531 9 467 362 656 197 198 766 749 36 674 
532 9 425 778 334 77 7 186 293 509 115 
533 9 318 199 678 146 233 123 216 238 324 
534 9 382 243 354 699 597 72 537 156 126 
535 9 449 454 121 697 170 71 522 562 813 
536 9 185 4 660 696 771 763 495 19 99 
537 9 72 534 597 654 382 354 243 684 699 
538 9 6 587 381 320 220 469 525 699 17 
539 9 30 429 721 32 192 126 237 554 458 
540 9 758 161 402 303 346 732 742 510 484 
541 9 665 44 90 321 377 775 395 3 100 
542 9 13 602 622 788 690 682 636 509 171 
543 9 698 342 671 573 713 80 714 797 116 
544 9 39 254 448 802 752 723 139 393 78 
545 9 204 196 767 735 649 738 278 215 747 
546 9 264 370 173 702 285 193 66 421 169 
547 9 344 414 680 714 310 506 80 671 794 
548 9 302 488 661 688 86 64 328 270 137 
549 9 313 729 257 461 644 211 726 582 386 
550 9 604 189 694 483 628 200 710 463 679 
551 9 599 339 765 261 621 635 631 479 63 
552 9 490 276 23 35 505 151 667 569 45 
553 9 396 182 589 740 567 791 804 286 138 
554 9 126 429 156 336 458 727 243 577 237 
555 9 287 584 811 75 103 456 73 692 745 
556 9 408 615 419 81 639 741 653 486 627 
557 9 468 527 652 49 295 618 207 369 206 
558 9 739 263 744 2 481 46 141 428 33 
559 9 266 529 352 782 785 194 683 212 399 
560 9 736 322 384 60 516 411 643 691 689 
561 9 783 145 455 259 638 180 443 793 406 
562 9 454 697 449 341 572 585 813 522 71 
563 9 228 609 218 598 700 611 712 389 687 
564 8 749 674 167 772 412 475 197 367 
565 9 608 230 664 157 193 267 288 440 52 
566 9 459 247 245 364 578 576 294 326 119 
567 9 396 553 286 589 182 740 804 276 791 
568 9 91 227 47 10 444 659 188 172 242 
569 9 45 706 5 23 791 815 92 740 276 
570 9 379 610 70 427 586 327 340 229 422 
571 9 188 659 120 801 759 757 47 280 172 
572 9 341 585 813 522 84 71 394 409 562 
573 9 342 80 671 543 714 687 343 698 632 
574 9 445 273 12 476 128 79 413 439 477 
575 9 494 363 641 427 586 70 327 428 651 
576 9 459 693 209 247 566 578 347 530 774 
577 9 727 458 336 156 320 809 237 126 381 
578 9 247 294 364 209 566 29 459 704 576 
579 9 326 245 619 642 459 566 576 119 247 
580 9 797 116 713 653 777 389 615 698 408 
581 9 252 289 9 387 355 440 356 768 500 
582 9 313 209 347 549 774 257 461 576 693 
583 9 271 68 436 162 281 248 183 646 743 
584 9 103 75 456 555 287 133 117 745 393 
585 9 341 572 813 84 522 71 394 409 239 
586 9 327 427 70 422 610 428 340 379 570 
587 9 469 525 381 6 781 538 750 231 518 
588 9 814 716 646 348 177 42 600 105 248 
589 9 182 396 553 286 804 567 658 138 740 
590 9 67 268 54 349 392 613 688 770 86 
591 9 282 223 265 718 403 111 496 655 768 
592 9 32 148 163 703 721 30 237 772 412 
593 9 373 236 715 62 311 526 31 433 770 
594 9 368 489 524 620 624 397 259 406 443 
595 9 741 639 81 292 419 283 408 627 374 
596 9 477 431 476 106 439 645 413 574 12 
597 9 382 534 699 17 537 243 354 72 181 
598 9 218 700 609 563 228 611 687 712 632 
599 9 551 631 765 63 158 339 635 261 202 
600 9 442 760 348 345 435 588 105 464 42 
601 9 670 113 487 779 617 682 166 754 330 
602 9 622 636 542 690 13 224 115 77 509 
603 9 48 238 178 324 146 233 376 434 171 
604 9 550 189 694 483 200 679 710 61 628 
605 9 380 316 88 515 686 335 432 478 194 
606 9 149 811 388 170 555 287 360 18 762 
607 9 216 249 666 818 301 719 57 123 318 
608 9 565 157 193 267 440 230 664 173 816 
609 9 598 218 700 563 228 611 687 712 632 
610 9 70 379 327 427 586 570 340 422 428 
611 9 712 700 218 598 161 609 632 272 563 
612 9 24 492 718 26 223 591 282 768 265 
613 9 86 349 688 302 526 137 328 548 31 
614 9 205 206 369 98 812 49 527 295 468 
615 9 556 389 777 408 486 419 228 653 81 
616 9 99 662 495 787 4 771 144 730 269 
617 9 166 682 601 171 487 376 13 542 434 
618 9 557 805 112 420 468 132 652 527 168 
619 9 326 579 453 693 459 576 245 530 677 
620 9 368 594 489 524 624 630 753 462 53 
621 9 339 255 399 479 663 782 785 261 528 
622 9 602 636 224 115 690 13 542 77 509 
623 9 641 704 780 29 363 494 575 364 294 
624 9 489 524 397 594 368 406 620 259 443 
625 9 258 232 127 722 155 409 637 417 498 
626 9 436 68 16 162 583 506 794 306 271 
627 9 408 741 556 639 595 653 81 419 322 
628 9 463 694 89 550 483 76 172 189 604 
629 9 350 508 391 377 251 775 496 541 265 
630 9 462 753 53 290 20 41 620 82 365 
631 9 63 158 599 765 551 96 110 635 202 
632 9 343 687 611 700 598 218 484 161 609 
633 9 426 472 793 51 783 147 480 145 300 
634 9 698 543 304 671 342 797 580 713 65 
635 9 202 261 479 765 319 658 110 804 255 
636 9 224 622 115 602 77 690 13 509 542 
637 9 711 127 417 33 325 25 625 784 416 
638 9 142 28 561 300 783 180 51 793 372 
639 9 81 741 419 595 556 283 292 408 486 
640 9 24 176 337 26 492 312 520 612 447 
641 9 363 623 494 575 704 29 331 651 780 
642 9 245 650 58 119 579 326 424 566 504 
643 9 691 733 332 60 736 140 786 746 810 
644 9 257 461 729 211 549 386 726 256 143 
645 9 439 413 476 596 477 431 128 234 574 
646 9 177 248 814 281 588 716 183 498 743 
647 9 361 329 22 398 375 104 378 293 778 
648 9 201 135 730 787 269 351 672 195 221 
649 9 738 196 545 215 204 278 735 165 767 
650 9 504 642 424 58 579 119 245 755 85 
651 9 331 386 704 29 494 363 575 641 461 
652 9 527 557 468 369 49 206 295 205 618 
653 9 408 556 615 116 627 777 389 81 419 
654 9 537 684 72 597 117 534 382 354 243 
655 9 111 403 500 496 102 159 251 355 356 
656 9 36 766 197 674 93 749 167 564 291 
657 9 164 203 307 734 660 485 724 185 763 
658 9 804 138 182 437 589 202 479 261 635 
659 9 188 571 759 801 47 120 280 757 291 
660 9 185 734 771 4 164 495 536 307 99 
661 9 488 685 548 688 302 270 64 108 86 
662 9 99 495 616 730 771 787 4 734 185 
663 9 528 255 437 479 138 338 482 815 92 
664 9 230 288 565 109 608 52 387 440 157 
665 9 541 44 90 321 395 775 377 3 100 
666 9 249 817 607 216 818 719 57 301 371 
667 9 151 284 35 56 385 23 490 219 552 
668 9 774 347 74 530 136 453 693 582 520 
669 9 457 315 37 432 335 175 515 219 88 
670 9 113 779 601 754 487 682 617 166 330 
671 9 573 342 543 714 698 80 547 344 65 
672 9 195 807 221 465 135 269 806 497 648 
673 9 418 25 784 512 279 416 130 191 325 
674 9 749 167 36 564 93 197 291 124 656 
675 9 274 767 735 204 545 747 169 196 278 
676 9 226 764 71 522 813 155 722 232 305 
677 9 74 453 530 774 693 136 520 668 619 
678 9 725 533 146 199 233 318 238 407 808 
679 9 200 710 720 187 701 78 189 220 604 
680 9 344 414 547 506 310 794 16 714 390 
681 9 800 433 748 310 715 373 236 346 732 
682 9 617 13 487 166 542 601 330 171 602 
683 9 97 241 529 709 107 352 782 358 559 
684 9 117 260 654 511 17 181 537 597 731 
685 9 661 488 38 688 270 548 302 64 108 
686 9 478 194 380 266 217 605 316 559 88 
687 9 598 700 632 218 609 343 611 228 563 
688 9 302 548 661 86 488 613 685 349 328 
689 9 384 736 560 643 733 332 691 60 411 
690 9 509 77 602 622 542 186 636 737 425 
691 9 60 643 786 746 810 756 733 134 140 
692 9 61 39 544 287 448 393 745 254 723 
693 9 530 576 774 347 453 209 459 74 582 
694 9 550 628 604 189 463 483 89 76 61 
695 9 94 21 122 168 296 405 207 430 523 
696 9 19 296 69 405 536 523 763 4 185 
697 9 121 454 562 449 535 170 762 388 225 
698 9 543 342 671 573 713 797 580 116 634 
699 9 382 534 243 597 320 727 156 354 336 
700 9 218 598 609 611 563 228 712 687 632 
701 8 187 184 473 720 367 519 475 710 
702 9 370 264 66 421 546 95 34 285 309 
703 9 721 32 592 163 148 362 30 539 237 
704 9 29 331 641 623 651 294 386 363 494 
705 9 485 724 402 203 299 510 164 153 657 
706 9 5 45 569 92 815 23 118 482 791 
707 9 244 499 246 179 452 76 305 89 535 
708 9 101 55 761 401 503 631 599 63 491 
709 9 241 358 118 338 683 799 400 107 482 
710 9 679 187 189 701 757 120 720 184 483 
711 9 637 25 325 33 784 416 127 418 417 
712 9 611 272 161 218 700 129 598 609 563 
713 9 116 777 797 580 389 342 543 653 698 
714 9 547 80 414 671 573 310 344 680 343 
715 9 373 62 593 433 236 311 31 351 526 
716 9 814 588 177 646 42 191 784 130 512 
717 9 789 474 277 415 152 423 460 87 371 
718 9 223 591 768 282 403 355 265 111 500 
719 9 57 818 298 607 666 216 374 249 123 
720 9 701 187 679 367 750 473 518 781 184 
721 9 32 703 592 30 539 148 163 237 429 
722 9 232 409 625 155 258 417 127 637 498 
723 9 139 393 745 448 511 254 260 181 731 
724 9 485 705 153 203 510 402 164 657 299 
725 9 678 15 808 407 147 146 533 233 238 
726 9 211 729 549 317 644 313 143 257 461 
727 9 577 156 336 320 458 126 554 699 381 
728 9 150 466 383 212 297 83 217 769 785 
729 9 211 726 549 644 257 313 461 143 582 
730 9 787 662 648 616 299 99 201 269 495 
731 9 181 17 752 139 802 260 254 511 723 
732 9 346 484 748 308 540 758 161 402 201 
733 9 332 643 691 140 275 60 154 736 756 
734 9 660 164 771 185 4 203 495 99 662 
735 9 767 196 545 204 738 649 675 278 395 
736 9 384 643 689 560 733 691 60 332 786 
737 9 186 7 509 334 425 690 77 8 532 
738 9 196 649 545 204 395 735 767 215 90 
739 9 558 263 744 2 481 141 46 256 240 
740 9 553 396 276 791 182 45 567 589 569 
741 9 639 595 81 419 292 408 283 556 627 
742 9 303 758 510 402 153 540 272 161 724 
743 9 183 248 281 498 177 646 258 155 174 
744 9 2 263 46 428 558 739 422 327 586 
745 9 393 723 139 448 511 260 181 254 117 
746 9 786 810 134 756 60 253 691 754 779 
747 9 169 285 278 173 204 545 274 675 193 
748 9 732 346 484 308 433 540 351 681 201 
749 9 564 674 197 167 291 772 36 475 412 
750 8 518 781 469 525 587 231 720 381 
751 9 95 773 309 360 66 34 702 370 18 
752 9 802 254 220 731 78 139 181 448 544 
753 9 462 630 365 20 290 53 620 366 41 
754 9 779 113 670 601 487 470 253 134 330 
755 9 424 85 803 58 410 776 504 11 507 
756 9 134 746 786 810 154 470 131 451 754 
757 9 120 519 184 280 187 124 571 710 701 
758 9 540 742 303 161 402 510 153 272 705 
759 9 801 659 188 280 291 571 47 120 124 
760 9 600 345 442 348 435 464 588 105 162 
761 9 101 708 503 55 401 208 491 297 11 
762 9 170 388 121 697 149 34 773 360 535 
763 9 307 536 795 69 185 696 19 50 660 
764 9 226 676 305 71 174 522 155 813 232 
765 9 158 635 63 551 202 110 261 599 631 
766 9 36 93 656 674 291 10 167 759 197 
767 9 735 545 204 196 738 649 675 278 274 
768 9 223 718 355 591 403 500 282 9 111 
769 9 466 438 83 214 501 728 297 150 491 
770 9 392 236 593 800 373 390 613 526 715 
771 9 4 495 185 660 99 734 662 536 616 
772 8 412 148 163 231 809 518 564 750 
773 9 360 18 751 149 762 388 606 73 34 
774 9 347 530 668 693 74 453 582 576 209 
775 9 3 100 159 44 377 90 102 541 665 
776 9 507 803 410 105 85 755 229 435 235 
777 9 389 116 615 713 653 556 228 563 609 
778 9 532 425 77 334 115 186 7 224 509 
779 9 113 754 670 601 487 253 470 682 134 
780 9 623 514 364 641 119 704 363 494 575 
781 8 750 518 469 525 587 231 381 720 
782 9 352 529 399 785 683 559 621 255 663 
783 9 561 145 793 455 51 426 300 638 633 
784 9 25 418 673 416 512 711 279 325 130 
785 9 399 352 782 529 212 559 621 383 339 
786 9 746 810 134 756 60 253 691 754 154 
787 9 730 616 269 662 99 648 144 495 201 
788 9 171 542 376 690 13 509 602 622 737 
789 9 474 717 152 415 277 87 423 82 20 
790 9 330 43 636 210 622 224 333 470 487 
791 9 138 815 5 45 437 182 553 740 706 
792 9 504 503 650 208 755 424 11 58 85 
793 9 51 300 426 783 633 561 145 472 142 
794 9 506 306 344 680 16 65 547 414 310 
795 9 50 763 112 69 307 19 366 696 296 
796 9 372 805 132 180 420 443 259 618 368 
797 9 580 116 713 777 653 389 698 543 342 
798 9 8 513 407 517 808 737 7 186 15 
799 9 175 358 107 315 709 400 241 37 56 
800 9 236 390 681 373 770 593 715 392 433 
801 9 759 280 659 188 291 571 120 124 757 
802 9 752 254 220 78 731 544 139 448 723 
803 9 410 776 85 507 755 514 229 105 424 
804 9 658 182 589 138 396 437 553 286 791 
805 9 420 796 132 372 618 180 443 368 112 
806 9 807 465 195 672 221 441 497 262 269 
807 9 195 672 465 806 221 269 135 497 262 
808 9 407 15 798 8 517 513 147 725 125 
809 9 231 577 381 525 469 458 237 727 587 
810 9 746 786 134 253 756 60 691 754 779 
811 9 555 287 606 692 75 456 61 584 103 
812 9 98 359 38 614 205 206 685 369 270 
813 9 522 71 341 572 585 449 454 676 226 
814 9 588 716 646 177 42 348 248 281 191 
815 9 92 482 5 118 791 706 338 437 45 
816 9 14 267 357 165 215 440 278 289 157 
817 9 371 249 666 460 129 301 423 277 607 
818 9 719 57 607 216 666 298 249 374 123 
DEPOT_SECTION
   1
   -1
EOF
