NAME :  X-n819-kX-w81-c11.cctp
COMMENT : 	Adapted by Maziero, Usberti and Cavellucci from the Uchoa, Pecin, Pessoa, Poggi, Subramanian, and Vidal (2013)
TYPE :  CCTP
DIMENSION :    581
EDGE_WEIGHT_TYPE : 	EUC_2D	
CAPACITY : 	358
VERTICES_WITHIN_COVERAGE :  11
VERTICES_WITH_DEMAND : 	81
NODE_COORD_SECTION
1 500 500
2 174 325
3 49 34
4 543 815
5 42 920
6 545 80
7 681 950
8 664 944
9 61 68
10 609 259
11 116 500
12 482 911
13 708 930
14 93 57
15 642 940
16 487 619
17 511 63
18 330 52
19 529 831
20 586 862
21 503 839
22 713 994
23 28 939
24 9 111
25 203 347
26 31 115
27 414 352
28 521 982
29 121 304
30 600 26
31 506 772
32 624 39
33 205 328
34 218 104
35 22 959
36 657 188
37 72 978
38 434 815
39 487 107
40 22 987
41 599 870
42 201 402
43 726 961
44 51 7
45 35 922
46 182 331
47 577 233
48 672 906
49 485 852
50 543 849
51 574 991
52 120 166
53 592 877
54 422 762
55 26 695
56 52 953
57 673 848
58 66 393
59 165 162
60 824 928
61 462 135
62 520 759
63 25 807
64 483 808
65 600 549
66 196 76
67 420 719
68 348 480
69 531 837
70 157 347
71 273 259
72 526 18
73 373 29
74 39 211
75 398 49
76 451 211
77 693 949
78 518 106
79 451 981
80 629 687
81 731 830
82 599 866
83 102 404
84 481 771
85 601 864
86 467 217
87 62 8
88 532 256
89 57 914
90 640 193
91 502 823
92 197 59
93 4 824
94 439 838
95 543 808
96 51 34
97 94 672
98 55 46
99 420 46
100 666 997
101 186 414
102 482 816
103 62 137
104 11 840
105 537 858
106 703 953
107 485 54
108 64 920
109 74 352
110 283 179
111 496 834
112 660 886
113 650 963
114 241 338
115 446 971
116 193 372
117 752 955
118 511 904
119 411 5
120 53 168
121 495 777
122 201 317
123 531 985
124 654 903
125 634 953
126 612 71
127 334 119
128 35 956
129 593 840
130 771 968
131 113 88
132 23 813
133 49 38
134 162 152
135 297 479
136 627 78
137 559 818
138 79 48
139 711 905
140 509 839
141 693 913
142 527 213
143 347 325
144 95 965
145 29 145
146 674 900
147 418 225
148 501 68
149 546 820
150 683 948
151 571 205
152 193 375
153 553 9
154 672 129
155 908 170
156 654 893
157 514 130
158 459 856
159 467 859
160 494 844
161 106 523
162 726 969
163 497 414
164 85 39
165 649 864
166 52 978
167 521 99
168 704 952
169 197 150
170 307 273
171 602 256
172 169 378
173 111 139
174 657 898
175 438 983
176 179 381
177 510 735
178 586 48
179 663 907
180 210 315
181 503 313
182 541 34
183 369 228
184 415 220
185 83 294
186 646 844
187 67 86
188 500 94
189 140 267
190 490 62
191 181 316
192 179 85
193 95 82
194 411 740
195 474 811
196 325 412
197 480 939
198 777 982
199 7 927
200 611 848
201 115 40
202 185 356
203 707 856
204 45 961
205 165 62
206 435 96
207 72 127
208 68 71
209 590 866
210 732 873
211 678 960
212 105 300
213 488 850
214 524 833
215 688 857
216 556 998
217 474 784
218 639 513
219 348 284
220 535 534
221 552 830
222 193 52
223 556 666
224 509 765
225 41 119
226 170 171
227 79 975
228 139 193
229 630 881
230 553 62
231 65 0
232 822 866
233 669 895
234 204 332
235 163 344
236 493 780
237 687 988
238 723 938
239 133 299
240 838 996
241 747 957
242 685 953
243 124 990
244 34 141
245 69 911
246 173 354
247 237 260
248 689 665
249 624 724
250 564 607
251 221 496
252 72 233
253 238 451
254 451 753
255 539 773
256 540 26
257 48 70
258 58 59
259 78 51
260 76 933
261 429 830
262 304 71
263 702 1000
264 695 79
265 142 327
266 90 319
267 572 857
268 552 866
269 473 856
270 183 84
271 518 746
272 694 842
273 715 979
274 690 911
275 29 16
276 671 971
277 157 358
278 560 81
279 534 40
280 941 947
281 50 965
282 137 291
283 62 100
284 499 688
285 481 82
286 72 4
287 588 910
288 61 941
289 0 670
290 525 819
291 653 935
292 762 807
293 941 800
294 421 948
295 561 653
296 596 837
297 199 342
298 229 317
299 198 350
300 727 827
301 196 105
302 169 341
303 618 853
304 65 415
305 687 953
306 597 972
307 158 345
308 168 332
309 569 28
310 499 805
311 121 992
312 539 750
313 688 899
314 172 491
315 369 479
316 415 937
317 87 86
318 505 783
319 208 462
320 507 272
321 473 946
322 129 174
323 44 120
324 484 88
325 275 224
326 386 351
327 761 965
328 418 252
329 33 233
330 270 216
331 90 999
332 138 271
333 580 870
334 487 213
335 174 502
336 752 26
337 489 858
338 563 88
339 749 944
340 568 369
341 612 959
342 601 848
343 425 906
344 645 972
345 200 307
346 63 913
347 703 818
348 727 924
349 465 800
350 574 904
351 11 954
352 24 106
353 144 326
354 545 810
355 29 49
356 381 237
357 45 58
358 376 828
359 61 589
360 24 440
361 4 968
362 519 601
363 159 419
364 6 15
365 689 943
366 488 64
367 193 365
368 660 952
369 126 365
370 846 808
371 652 954
372 42 159
373 176 182
374 266 261
375 527 817
376 573 905
377 564 87
378 497 765
379 483 865
380 50 230
381 791 119
382 689 955
383 534 35
384 295 209
385 540 822
386 517 26
387 538 79
388 599 3
389 45 0
390 703 930
391 707 633
392 490 107
393 163 88
394 583 628
395 474 789
396 500 169
397 68 825
398 9 943
399 17 896
400 413 80
401 743 800
402 494 869
403 183 312
404 894 879
405 559 953
406 235 214
407 112 118
408 566 275
409 35 927
410 152 359
411 566 201
412 237 261
413 664 667
414 467 937
415 144 327
416 92 296
417 63 83
418 340 435
419 431 52
420 234 263
421 161 343
422 556 90
423 246 413
424 422 731
425 626 53
426 509 746
427 743 851
428 416 906
429 520 46
430 63 807
431 221 463
432 732 909
433 704 940
434 671 909
435 499 159
436 361 128
437 649 861
438 161 352
439 8 93
440 471 759
441 456 852
442 728 780
443 541 805
444 713 907
445 515 873
446 11 275
447 567 890
448 705 942
449 118 327
450 579 904
451 402 539
452 783 822
453 487 201
454 14 19
455 581 876
456 39 795
457 604 984
458 781 525
459 706 947
460 229 339
461 533 973
462 738 836
463 0 139
464 130 325
465 26 364
466 853 961
467 412 937
468 695 995
469 1 405
470 142 302
471 484 875
472 775 773
473 499 18
474 39 52
475 698 178
476 576 208
477 550 819
478 461 796
479 546 805
480 93 132
481 48 0
482 648 844
483 35 957
484 70 204
485 91 1000
486 659 627
487 197 355
488 643 157
489 297 284
490 7 211
491 635 908
492 533 136
493 548 625
494 715 919
495 491 40
496 452 801
497 659 731
498 963 952
499 694 940
500 823 947
501 462 123
502 53 251
503 481 179
504 506 826
505 531 827
506 258 186
507 722 621
508 537 51
509 188 88
510 655 42
511 124 310
512 44 925
513 381 213
514 65 691
515 219 340
516 611 651
517 522 748
518 236 388
519 605 842
520 671 852
521 637 21
522 630 923
523 506 74
524 840 991
525 553 816
526 902 947
527 680 942
528 183 310
529 16 909
530 745 841
531 174 323
532 792 924
533 642 135
534 251 48
535 509 90
536 574 870
537 86 444
538 594 200
539 222 478
540 102 646
541 278 137
542 543 833
543 316 283
544 40 828
545 676 214
546 38 79
547 546 814
548 300 72
549 63 228
550 46 24
551 145 435
552 692 956
553 107 344
554 565 104
555 570 963
556 207 354
557 794 926
558 692 925
559 601 845
560 726 947
561 36 904
562 0 507
563 577 986
564 529 574
565 545 845
566 525 912
567 663 944
568 82 952
569 521 709
570 506 93
571 126 419
572 518 786
573 649 937
574 794 915
575 402 111
576 433 838
577 261 258
578 248 400
579 51 910
580 96 62
581 666 855
DEMAND_SECTION
2 89
3 59
4 53
5 85
6 95
7 66
8 70
9 84
10 68
11 96
12 87
13 77
14 65
15 88
16 75
17 84
18 92
19 75
20 77
21 55
22 64
23 60
24 71
25 80
26 79
27 61
28 100
29 62
30 92
31 60
32 55
33 52
34 65
35 73
36 81
37 97
38 75
39 76
40 87
41 99
42 78
43 50
44 70
45 89
46 98
47 84
48 59
49 63
50 62
51 88
52 61
53 77
54 70
55 76
56 77
57 59
58 53
59 54
60 74
61 81
62 59
63 79
64 78
65 95
66 51
67 69
68 73
69 78
70 59
71 86
72 63
73 97
74 51
75 77
76 99
77 76
78 68
79 77
80 65
81 87
82 62
COVERAGE_SECTION
2 11 531 308 46 191 403 302 528 235 421 307 70 
3 9 96 133 550 98 474 357 355 44 258 
4 11 547 354 149 95 385 477 443 479 525 137 375 
5 10 512 45 409 579 89 561 108 346 23 245 
6 9 387 278 422 230 338 377 508 167 554 
7 11 150 242 305 527 382 211 365 77 552 499 8 
8 11 567 368 291 371 527 573 7 150 211 15 242 
9 10 208 258 257 417 187 357 98 259 546 138 
10 10 171 47 408 476 538 151 411 90 88 545 
11 10 161 314 335 537 551 571 363 83 304 319 
12 9 197 118 414 321 471 566 402 379 445 
13 11 390 433 448 494 238 459 499 558 348 168 141 
14 10 580 259 138 164 193 201 208 317 9 258 
15 11 573 291 125 371 522 567 8 368 113 344 491 
16 10 362 493 564 284 250 295 223 394 569 220 
17 10 148 523 429 190 366 535 107 508 495 570 
18 11 262 548 73 127 75 534 436 400 99 575 119 
19 11 505 214 69 290 375 385 542 149 4 565 140 
20 11 209 333 82 536 41 85 267 455 53 342 129 
21 11 140 111 160 504 91 213 49 214 337 19 69 
22 10 263 273 468 237 162 43 106 168 552 382 
23 11 409 45 128 398 483 35 512 351 5 199 56 
24 9 352 439 26 463 225 323 145 244 546 
25 11 297 299 556 487 234 515 33 202 367 46 116 
26 11 225 352 323 24 244 145 439 283 546 103 463 
27 8 326 143 219 181 328 163 196 418 
28 9 123 461 216 405 555 51 563 197 321 
29 11 511 239 212 282 470 449 464 416 265 353 415 
30 6 388 178 32 309 425 521 
31 8 224 318 378 121 236 572 62 84 
32 9 425 521 30 510 126 136 178 388 309 
33 11 234 122 180 297 515 25 345 46 299 298 460 
34 11 301 509 66 270 192 92 169 393 222 534 205 
35 11 351 128 483 361 23 398 204 40 281 56 199 
36 7 90 545 488 475 533 154 538 
37 11 227 166 144 281 331 568 485 56 204 288 128 
38 10 261 496 576 94 478 349 195 441 102 158 
39 8 392 188 324 570 285 535 501 78 
40 11 361 35 166 483 128 204 351 281 56 398 23 
41 11 82 85 53 209 20 333 455 342 200 303 536 
42 11 101 152 176 116 367 518 172 363 423 487 578 
43 11 162 560 241 273 238 106 168 459 117 448 339 
44 11 481 389 87 231 550 286 275 3 96 133 98 
45 11 409 5 512 23 561 579 89 529 199 108 346 
46 11 2 531 308 191 302 403 297 528 234 33 235 
47 9 476 151 171 411 538 10 408 88 142 
48 11 434 146 179 233 174 313 124 274 141 156 112 
49 11 213 337 160 269 379 159 402 111 21 471 158 
50 11 565 105 542 69 268 221 19 214 505 385 149 
51 9 563 216 555 306 457 405 123 461 341 
52 10 322 173 228 480 134 59 407 226 373 207 
53 11 41 209 455 82 333 20 85 536 267 447 342 
54 10 194 254 424 67 440 496 478 38 217 349 
55 11 289 514 97 540 456 63 359 132 430 93 544 
56 11 204 281 288 128 483 166 23 512 568 35 260 
57 10 520 581 215 272 482 186 437 165 203 112 
58 10 304 83 109 465 537 360 553 571 369 469 
59 10 134 226 373 169 322 228 52 173 301 407 
60 7 500 557 532 574 466 232 524 
61 11 501 39 392 435 206 503 396 157 324 188 285 
62 9 517 224 271 426 31 312 255 378 177 
63 7 132 456 544 93 104 430 397 
64 11 102 195 310 349 395 91 478 217 111 504 236 
65 11 218 220 250 564 394 493 362 486 516 295 223 
66 9 509 270 92 192 222 301 205 393 34 
67 8 424 194 54 254 440 84 217 284 
68 7 315 418 135 196 451 253 423 
69 11 19 214 505 542 565 50 385 290 375 105 140 
70 11 307 421 438 235 277 302 410 246 308 415 265 
71 11 374 577 325 489 247 412 170 420 330 543 384 
72 10 386 256 383 182 279 473 153 429 508 495 
73 10 75 119 18 99 419 400 262 548 575 206 
74 10 380 329 549 484 490 252 502 120 372 145 
75 10 99 73 419 400 119 206 575 18 107 436 
76 10 86 147 334 184 453 503 328 396 513 435 
77 11 305 365 382 552 242 499 150 106 168 7 459 
78 11 167 535 570 188 157 392 39 387 492 523 6 
79 10 115 175 321 294 414 197 316 467 28 12 
80 9 249 413 516 497 248 486 394 223 295 
81 11 300 462 530 427 347 401 203 272 292 210 442 
82 11 85 41 209 53 20 342 333 455 559 200 303 
83 10 571 58 304 537 369 551 109 363 553 410 
84 10 121 217 236 440 378 395 31 318 224 478 
85 11 82 41 209 20 53 342 200 559 303 333 519 
86 10 76 334 453 503 147 184 396 142 328 435 
87 10 231 44 286 481 389 550 96 3 133 275 
88 11 320 408 142 47 334 151 181 411 476 171 453 
89 9 346 579 108 245 5 512 45 561 409 
90 6 36 488 545 538 533 475 
91 11 504 111 21 140 310 102 160 290 64 214 375 
92 9 222 66 270 509 192 205 393 301 34 
93 6 104 132 63 544 456 430 
94 11 576 261 441 38 158 159 269 496 195 349 478 
95 8 354 443 479 4 547 149 477 525 
96 9 3 133 550 98 474 357 258 44 355 
97 8 540 514 55 359 289 456 430 161 
98 9 133 3 96 258 357 474 9 138 259 
99 9 419 75 400 119 73 206 107 575 366 
100 10 237 276 468 344 263 113 211 368 371 22 
101 10 42 363 176 152 172 116 551 367 319 518 
102 11 64 195 310 91 111 349 504 395 478 160 21 
103 11 207 323 225 244 372 480 120 145 283 26 173 
104 4 93 132 544 63 
105 11 50 565 268 69 542 445 19 214 221 505 140 
106 11 168 459 77 448 552 433 382 305 499 365 242 
107 8 190 366 495 148 17 285 523 324 
108 8 346 89 245 579 260 288 512 5 
109 9 553 266 58 465 449 369 83 185 416 
110 9 506 384 330 541 325 406 127 71 577 
111 11 21 160 91 504 140 213 49 102 337 214 64 
112 10 156 174 233 124 146 179 48 165 434 437 
113 11 371 344 368 125 276 567 8 15 573 211 291 
114 5 460 515 298 33 234 
115 10 79 175 294 321 414 316 197 467 343 12 
116 11 152 367 176 487 202 299 556 172 25 246 42 
117 9 241 339 327 130 43 560 162 238 198 
118 6 566 12 445 402 471 197 
119 10 99 73 75 419 400 495 107 473 18 206 
120 11 372 103 145 244 484 74 207 323 225 480 26 
121 11 236 31 318 378 84 224 217 395 572 310 440 
122 11 180 345 33 234 403 528 191 46 297 2 298 
123 8 28 461 216 51 405 555 563 306 
124 10 174 156 179 233 48 112 434 146 491 522 
125 11 15 371 113 344 573 341 291 368 522 567 8 
126 5 136 425 32 178 30 
127 9 436 262 548 541 18 575 110 400 75 
128 11 483 204 35 56 281 23 351 166 398 409 288 
129 10 296 559 342 519 200 20 85 209 82 267 
130 8 327 198 117 241 339 162 43 557 
131 8 193 317 407 580 14 187 201 208 
132 7 63 93 544 456 104 430 397 
133 8 3 96 98 550 474 357 258 355 
134 11 59 226 373 169 322 52 228 173 301 407 393 
135 10 68 418 253 315 196 539 251 431 423 319 
136 6 126 425 32 510 178 521 
137 8 525 477 149 221 547 4 354 479 
138 10 259 164 14 580 98 258 208 9 96 133 
139 10 444 494 141 432 274 313 13 348 390 558 
140 11 21 504 111 160 214 91 19 69 213 505 290 
141 11 274 558 313 139 390 444 48 434 13 146 494 
142 8 334 411 453 88 151 476 396 47 
143 6 219 326 543 489 170 27 
144 7 568 227 37 331 485 260 311 
145 11 244 372 225 323 26 463 120 103 24 352 207 
146 11 48 233 434 179 313 174 274 112 124 156 141 
147 11 184 328 76 356 513 183 86 334 453 503 219 
148 8 523 17 190 366 107 535 285 570 
149 11 477 4 385 547 525 354 95 221 137 542 479 
150 11 7 242 305 527 365 382 77 552 211 499 8 
151 5 411 476 538 47 142 
152 11 116 367 176 487 202 172 299 556 42 246 25 
153 7 256 309 72 182 383 279 386 
154 7 533 488 264 475 36 136 90 
155 10 381 475 336 264 545 154 36 488 533 90 
156 10 174 112 124 233 179 146 48 434 491 229 
157 9 492 78 167 392 435 39 570 188 535 
158 11 441 159 269 49 379 94 213 337 471 576 160 
159 11 269 158 441 379 49 337 213 471 402 160 94 
160 11 213 21 111 49 337 140 91 504 269 379 402 
161 10 11 335 314 359 537 551 571 562 304 360 
162 11 43 273 560 241 22 106 168 117 459 238 339 
163 11 340 181 27 220 326 320 315 408 451 418 88 
164 8 138 259 14 580 201 98 96 258 
165 9 437 581 186 482 112 229 520 57 156 
166 11 281 204 37 56 227 483 128 40 35 288 568 
167 11 78 535 570 188 387 523 6 157 392 39 422 
168 11 106 459 448 77 433 552 382 499 305 365 242 
169 11 59 226 134 373 301 34 509 192 270 393 506 
170 9 543 489 71 219 374 577 325 384 143 
171 9 10 47 408 476 538 151 411 88 90 
172 11 176 277 152 246 116 410 202 367 438 70 235 
173 9 480 407 52 322 207 103 131 134 317 
174 10 124 156 179 112 233 48 146 434 491 313 
175 10 79 115 294 316 321 467 414 197 343 428 
176 11 172 152 116 367 202 246 42 277 487 101 438 
177 9 426 271 517 62 569 224 312 378 31 
178 3 30 309 126 
179 11 434 48 124 174 146 233 156 112 313 274 491 
180 10 122 345 33 234 298 403 515 528 191 297 
181 11 320 88 408 340 27 163 334 86 142 328 47 
182 7 383 256 279 508 72 429 386 
183 11 356 513 184 147 328 219 384 543 170 76 489 
184 11 147 328 513 76 356 183 86 334 453 503 219 
185 6 416 212 266 29 511 449 
186 6 482 437 165 581 520 57 
187 11 417 208 283 9 317 257 193 258 546 357 259 
188 9 570 535 392 324 39 523 78 167 285 
189 5 332 282 239 470 29 
190 8 366 107 148 523 17 285 495 324 
191 11 403 528 531 2 46 122 308 345 33 234 302 
192 9 270 509 393 66 301 205 92 222 34 
193 9 317 131 580 14 187 208 417 259 9 
194 9 424 67 54 254 440 496 478 84 217 
195 10 64 102 349 478 395 496 310 217 91 111 
196 5 418 68 135 578 423 
197 8 321 414 12 115 118 79 566 28 
198 8 130 327 117 241 339 162 43 500 
199 9 398 529 23 351 45 409 399 35 5 
200 8 519 303 342 559 85 296 129 82 
201 4 14 580 164 138 
202 11 246 367 487 299 116 25 297 152 302 556 438 
203 11 215 272 210 57 81 300 427 520 462 347 530 
204 11 281 56 128 483 166 35 288 23 37 40 351 
205 7 393 192 270 222 92 66 509 
206 9 400 575 501 419 61 285 324 99 39 
207 11 103 480 283 323 225 244 173 187 407 26 317 
208 11 9 417 187 258 257 259 317 138 357 98 14 
209 11 20 82 41 53 85 333 455 536 267 342 559 
210 8 427 203 530 432 462 139 444 81 
211 11 7 242 305 382 150 276 552 527 77 365 368 
212 10 416 29 511 185 266 239 449 282 464 470 
213 11 49 160 337 269 379 111 21 402 159 140 471 
214 11 19 69 505 290 140 375 385 504 542 21 91 
215 11 272 57 520 203 581 437 112 165 233 313 347 
216 9 51 563 123 461 28 555 405 306 457 
217 10 395 84 349 478 236 121 440 64 195 496 
218 11 65 220 486 250 564 394 507 391 516 458 493 
219 10 543 143 170 489 356 183 326 328 513 71 
220 11 564 65 362 250 493 16 218 394 295 163 451 
221 9 542 477 149 137 385 525 4 547 565 
222 8 92 66 205 270 192 509 393 301 
223 10 295 493 394 569 516 250 284 362 80 16 
224 10 31 378 62 121 318 426 271 517 236 572 
225 11 323 26 352 244 103 283 145 207 24 372 546 
226 8 59 373 134 169 228 322 52 173 
227 10 37 144 568 331 166 485 281 56 204 288 
228 6 322 52 226 373 59 134 
229 9 165 156 491 437 112 303 174 41 124 
230 6 508 6 278 387 377 338 
231 9 286 87 44 481 389 550 96 3 275 
232 9 574 452 60 370 532 557 404 427 500 
233 11 146 48 174 112 179 434 156 124 313 274 141 
234 11 33 297 25 122 515 180 299 46 556 487 345 
235 11 421 307 70 302 438 308 246 277 410 2 46 
236 11 121 318 31 84 378 217 395 224 310 572 64 
237 10 468 263 100 276 22 211 273 552 382 242 
238 11 560 348 13 448 433 459 494 390 43 168 106 
239 11 282 470 29 511 464 212 332 265 353 415 449 
240 9 524 466 500 198 60 130 526 327 557 
241 9 117 339 327 43 560 162 130 238 198 
242 11 305 382 7 150 552 77 211 365 527 499 106 
243 6 311 485 331 144 227 37 
244 11 145 372 225 323 26 103 120 463 352 24 207 
245 6 346 108 89 579 260 5 
246 11 202 438 235 302 277 421 70 307 410 308 367 
247 7 412 420 577 374 71 406 325 
248 8 413 391 486 507 80 497 516 249 
249 2 497 80 
250 11 493 394 362 295 564 223 516 65 16 220 486 
251 11 539 431 319 335 253 314 135 423 101 42 551 
252 6 549 380 502 484 329 74 
253 10 431 539 319 423 251 578 42 518 101 135 
254 9 440 54 84 424 217 194 395 478 67 
255 2 312 62 
256 8 182 383 279 72 153 386 508 429 
257 7 357 9 546 258 208 417 474 
258 9 9 98 357 257 208 474 259 133 138 
259 10 138 164 14 580 208 258 9 98 96 133 
260 7 288 108 568 245 346 89 56 
261 11 576 94 38 441 496 158 349 478 159 195 269 
262 9 548 18 127 534 541 73 436 34 75 
263 10 468 22 237 273 100 162 276 552 43 106 
264 9 510 154 136 425 533 336 32 521 126 
265 11 353 415 464 307 449 70 421 470 511 308 235 
266 9 416 212 185 449 553 29 511 109 464 
267 11 536 20 333 209 455 268 129 53 82 41 50 
268 10 105 50 267 536 565 333 447 455 20 542 
269 11 159 49 379 158 213 337 441 471 160 402 111 
270 9 192 509 66 393 301 205 92 222 34 
271 10 517 426 62 177 224 312 378 31 255 569 
272 11 215 203 57 520 347 581 300 81 462 482 186 
273 11 22 162 43 263 468 106 168 237 459 552 560 
274 11 141 313 558 48 146 434 139 390 444 13 233 
275 8 454 550 364 389 44 481 3 96 
276 10 211 113 368 7 237 242 305 382 371 100 
277 11 410 438 70 307 235 246 421 302 172 202 308 
278 7 377 338 422 6 230 387 554 
279 8 383 182 508 256 429 386 72 230 
280 11 498 526 404 466 524 240 500 60 232 293 557 
281 11 204 56 166 128 483 37 288 35 227 23 568 
282 10 239 470 332 29 511 189 212 464 265 353 
283 11 187 417 323 225 207 317 208 9 546 257 26 
284 8 569 177 426 223 271 517 16 295 
285 8 324 366 188 190 148 39 523 392 
286 8 231 87 44 481 389 550 96 164 
287 5 450 350 376 447 53 
288 9 56 260 108 512 568 204 281 89 5 
289 11 55 514 97 359 540 456 63 132 430 93 544 
290 8 375 505 19 214 385 4 69 504 
291 11 573 15 567 8 368 371 125 522 113 527 179 
292 11 401 452 472 462 530 81 300 442 427 347 210 
293 10 404 370 232 280 526 498 452 472 60 292 
294 9 316 467 115 175 343 428 79 414 321 
295 10 223 493 394 250 516 362 569 284 80 16 
296 9 129 559 519 342 200 20 85 303 82 
297 11 25 299 234 487 556 33 46 202 515 367 122 
298 7 180 460 114 515 33 122 234 
299 11 487 25 297 556 202 367 234 33 116 515 46 
300 11 81 462 530 347 427 401 203 272 292 210 442 
301 11 509 34 270 192 66 393 169 92 205 222 134 
302 11 235 421 308 307 70 246 438 46 2 531 277 
303 7 200 519 342 559 85 82 41 
304 10 58 537 83 360 571 109 465 469 369 551 
305 11 242 382 150 552 7 77 365 211 527 499 106 
306 9 457 341 563 555 51 125 405 344 216 
307 11 70 421 235 438 302 277 410 308 246 415 265 
308 11 2 302 531 235 421 46 307 70 191 438 246 
309 5 153 178 182 256 30 
310 7 64 91 102 504 318 195 236 
311 6 243 485 331 144 227 37 
312 7 517 62 271 255 426 177 224 
313 11 274 146 141 48 233 434 139 179 444 558 112 
314 11 335 319 251 539 431 11 551 161 363 253 101 
315 6 68 418 451 135 196 326 
316 8 467 294 428 343 115 175 414 79 
317 10 193 187 208 417 131 580 283 14 9 259 
318 7 31 121 236 572 224 378 310 
319 11 431 539 253 251 314 335 101 42 423 363 551 
320 10 88 181 408 142 334 86 453 47 76 328 
321 10 197 414 12 115 79 175 294 118 316 28 
322 10 52 228 59 173 134 226 373 480 407 484 
323 11 225 26 244 352 103 283 145 207 24 372 187 
324 8 285 188 39 392 570 366 535 148 
325 11 330 384 71 577 374 406 506 110 247 412 420 
326 7 27 143 219 196 418 543 328 
327 8 130 117 241 198 339 43 162 560 
328 11 147 184 356 76 513 183 86 219 334 453 320 
329 8 380 74 502 549 490 252 446 484 
330 11 325 384 506 406 110 71 577 374 247 412 420 
331 9 485 227 37 311 144 243 166 568 281 
332 5 189 282 239 470 29 
333 11 455 536 20 209 53 267 41 82 85 447 268 
334 9 453 86 503 76 142 396 435 88 320 
335 11 314 251 319 539 11 431 161 551 253 363 101 
336 11 264 510 381 521 32 425 154 136 126 30 388 
337 11 49 213 379 402 160 269 471 159 21 111 140 
338 7 377 422 278 554 6 387 230 
339 7 117 241 560 327 238 43 348 
340 11 163 181 408 320 10 171 88 47 27 142 218 
341 9 306 125 457 344 15 113 371 522 555 
342 11 559 519 200 129 296 85 82 303 20 209 41 
343 8 428 316 467 294 414 12 158 321 
344 10 113 371 125 368 276 15 100 567 8 211 
345 10 122 180 528 403 191 33 234 46 298 531 
346 7 89 245 108 579 5 512 260 
347 11 272 300 81 203 462 57 215 401 442 520 530 
348 7 494 238 432 13 444 560 139 
349 10 478 496 195 395 217 64 102 84 38 236 
350 6 376 450 287 447 455 53 
351 11 398 35 361 23 128 483 199 40 204 409 45 
352 9 26 24 225 439 323 546 244 283 145 
353 11 415 265 464 307 421 470 70 308 235 449 511 
354 9 95 547 4 479 443 149 477 525 385 
355 4 474 357 133 3 
356 11 183 513 184 147 328 219 76 543 170 86 384 
357 7 474 257 258 98 355 9 133 
358 7 261 576 38 94 54 496 441 
359 11 540 161 97 289 514 562 11 55 335 537 314 
360 10 469 304 537 58 562 465 83 109 571 11 
361 11 351 35 398 40 128 483 23 199 204 281 166 
362 11 564 16 493 250 295 220 394 223 284 65 516 
363 10 551 101 571 172 176 42 152 116 83 410 
364 7 454 275 355 550 389 481 44 
365 11 499 77 150 527 305 7 242 382 552 433 448 
366 8 190 107 148 285 523 17 324 495 
367 11 116 152 487 202 299 556 25 176 246 297 172 
368 11 371 8 567 113 291 573 211 7 15 276 527 
369 11 410 553 277 70 438 307 449 464 265 421 415 
370 11 232 452 472 292 404 293 401 530 427 462 81 
371 11 368 113 567 8 15 573 125 291 344 276 211 
372 11 120 145 244 103 323 225 207 26 463 74 484 
373 8 226 59 134 169 228 322 52 406 
374 9 577 71 247 412 420 325 489 170 330 
375 8 290 505 19 385 4 214 95 443 
376 6 350 450 287 447 455 53 
377 7 338 278 422 554 6 230 387 
378 11 31 121 224 236 84 318 426 62 440 271 217 
379 11 337 471 402 49 269 213 159 160 158 441 21 
380 8 549 329 502 74 252 484 490 446 
381 10 336 264 475 154 155 545 533 36 488 510 
382 11 305 552 242 77 7 150 211 365 106 168 499 
383 8 279 182 256 508 429 72 386 153 
384 9 325 330 110 506 71 374 406 577 170 
385 11 149 4 477 505 547 542 354 19 95 221 375 
386 11 72 383 429 473 279 256 182 495 508 17 153 
387 11 6 422 278 230 167 338 377 508 17 535 523 
388 6 30 309 521 32 153 178 
389 11 481 44 87 231 275 550 286 3 96 454 133 
390 11 13 433 448 558 499 494 459 365 141 77 168 
391 7 507 248 486 413 80 516 497 
392 8 39 188 324 570 535 285 78 167 
393 8 192 270 509 205 66 301 92 222 
394 11 250 295 493 516 223 362 80 486 564 65 413 
395 10 217 349 478 84 64 236 195 121 496 102 
396 8 435 503 453 157 334 492 61 142 
397 5 430 544 456 63 132 
398 11 351 199 23 35 361 128 483 409 45 529 512 
399 3 529 561 45 
400 9 206 419 575 75 99 73 501 285 324 
401 10 292 442 300 81 462 530 472 347 452 427 
402 11 337 379 471 49 213 445 160 269 159 21 140 
403 10 528 191 531 2 345 46 122 308 33 180 
404 11 526 232 280 60 370 293 466 500 498 574 557 
405 5 555 461 563 51 306 
406 10 330 506 325 247 412 420 577 374 71 110 
407 9 173 480 131 193 207 317 52 103 283 
408 11 88 171 47 10 320 476 151 142 181 411 538 
409 11 45 512 5 23 561 579 89 529 199 128 108 
410 11 277 438 70 307 421 235 246 172 302 369 308 
411 5 151 476 538 47 142 
412 7 247 420 577 374 71 406 325 
413 9 248 80 486 391 516 497 249 507 394 
414 10 321 197 12 115 79 294 316 343 175 118 
415 11 353 265 464 307 421 70 235 308 470 449 511 
416 7 185 212 266 29 511 449 239 
417 10 187 208 9 283 257 317 258 546 357 193 
418 5 196 68 315 135 326 
419 9 99 75 400 206 119 107 285 366 190 
420 6 247 412 577 374 71 406 
421 11 235 307 70 302 438 308 246 277 410 2 415 
422 7 338 377 278 6 554 387 230 
423 7 578 518 253 42 431 101 319 
424 8 67 194 54 254 440 84 217 478 
425 7 32 126 136 510 521 30 178 
426 10 271 177 517 62 224 378 31 312 121 318 
427 11 530 462 81 210 300 203 292 452 272 401 347 
428 8 343 316 467 294 414 12 158 441 
429 11 279 383 508 17 386 182 256 72 148 495 523 
430 5 397 456 544 63 132 
431 11 319 539 253 251 314 423 101 335 42 578 363 
432 7 348 444 494 139 238 13 210 
433 11 448 459 390 499 13 168 106 77 365 238 558 
434 11 48 179 146 233 124 174 274 313 141 156 112 
435 8 396 503 157 492 61 453 501 39 
436 9 127 575 400 206 262 18 541 548 75 
437 8 165 186 482 581 520 57 112 229 
438 11 70 277 235 307 421 410 246 302 308 202 172 
439 5 24 352 26 546 225 
440 10 84 254 217 378 121 236 395 31 224 478 
441 11 158 159 269 94 576 49 379 213 337 261 471 
442 7 401 292 347 300 472 81 462 
443 7 95 479 354 4 547 149 525 
444 10 139 494 432 141 348 274 13 390 313 558 
445 9 402 105 337 118 471 379 140 213 21 
446 5 329 502 380 490 74 
447 9 350 376 450 455 536 333 53 268 287 
448 11 433 459 168 106 499 13 390 77 365 238 552 
449 11 464 511 553 29 265 353 415 266 212 239 470 
450 6 350 376 287 447 455 53 
451 11 315 68 16 135 418 362 564 220 196 163 493 
452 11 292 530 401 462 427 472 81 300 232 370 442 
453 8 334 503 86 396 76 142 435 61 
454 7 364 275 550 355 389 3 44 
455 10 333 536 53 209 20 41 447 82 267 85 
456 7 63 132 430 544 397 93 104 
457 9 306 341 563 51 555 125 344 216 113 
458 7 507 391 218 486 248 65 413 
459 11 168 448 106 433 77 499 13 365 390 552 238 
460 10 515 114 298 33 234 25 556 297 180 299 
461 7 123 28 405 216 555 51 563 
462 11 81 530 300 427 401 203 210 292 347 272 452 
463 11 24 145 244 26 352 225 372 439 323 120 103 
464 11 265 449 353 415 511 29 239 470 553 307 70 
465 6 469 58 109 304 360 266 
466 9 500 524 240 60 526 557 532 574 198 
467 8 316 294 428 343 115 175 414 79 
468 10 263 237 22 273 100 276 211 552 162 382 
469 8 360 465 304 58 109 537 83 562 
470 11 239 282 511 29 353 265 415 464 332 189 449 
471 11 379 402 337 269 49 159 213 158 445 160 12 
472 8 292 401 442 452 81 300 462 530 
473 11 386 495 72 429 107 383 279 256 182 190 17 
474 7 357 355 98 133 257 258 3 
475 8 36 545 154 488 90 533 264 538 
476 5 151 411 538 47 142 
477 10 149 525 547 4 137 354 385 221 95 479 
478 10 349 496 395 217 195 64 102 84 38 236 
479 8 95 354 443 547 4 525 149 477 
480 10 173 207 407 103 52 283 317 131 193 323 
481 11 389 44 87 231 286 550 275 3 96 133 454 
482 6 186 437 165 581 520 57 
483 11 128 204 35 56 281 23 351 166 398 409 288 
484 10 549 252 74 380 120 329 502 372 52 490 
485 9 331 227 37 311 243 144 166 568 281 
486 11 413 248 391 516 507 80 394 250 65 295 249 
487 11 299 25 556 367 202 297 116 152 234 246 515 
488 5 533 36 90 154 475 
489 6 170 543 71 374 577 219 
490 11 74 329 380 549 502 120 372 484 446 252 145 
491 10 522 124 156 174 229 179 291 573 15 112 
492 4 157 78 167 435 
493 10 250 295 394 362 223 564 16 516 284 569 
494 11 444 13 348 139 390 432 238 141 433 558 448 
495 10 107 190 473 366 17 148 386 429 523 72 
496 10 478 349 38 195 395 217 64 102 261 94 
497 2 249 80 
498 11 280 526 404 466 524 240 500 60 293 232 557 
499 11 365 77 433 448 390 150 459 527 305 558 7 
500 8 60 466 557 532 574 524 240 130 
501 7 61 39 392 206 324 285 188 
502 7 380 549 252 329 74 446 484 
503 9 396 453 435 334 86 76 61 142 157 
504 11 91 21 111 140 214 290 160 310 375 19 505 
505 11 19 214 69 290 385 375 542 4 149 547 221 
506 9 110 330 406 325 384 541 169 577 71 
507 7 391 248 486 413 458 80 516 
508 8 279 383 182 429 230 256 387 17 
509 9 270 192 66 301 393 92 34 205 222 
510 9 521 32 425 136 126 264 30 388 178 
511 11 29 239 464 449 470 212 282 265 353 415 266 
512 11 5 45 409 89 579 23 108 346 561 288 56 
513 10 183 356 184 147 328 76 219 86 384 436 
514 10 97 55 540 289 359 456 430 63 132 397 
515 11 460 25 234 33 556 297 114 299 298 180 487 
516 10 394 80 295 486 413 223 250 493 249 248 
517 9 271 62 426 312 177 224 31 255 378 
518 9 578 423 42 152 556 116 367 460 114 
519 8 559 342 200 296 129 303 85 82 
520 10 57 581 215 437 482 165 272 186 112 203 
521 9 32 510 425 30 388 126 136 178 309 
522 10 491 15 573 291 125 124 174 179 156 371 
523 9 148 17 535 570 190 188 366 285 324 
524 9 240 466 500 198 60 130 526 557 532 
525 10 477 137 547 149 4 354 95 479 221 385 
526 11 280 466 498 404 524 500 60 240 557 532 574 
527 11 150 7 365 242 305 499 77 8 382 567 211 
528 10 403 191 531 2 345 122 46 180 308 33 
529 6 399 199 561 45 409 5 
530 11 462 427 81 300 210 292 203 401 452 347 272 
531 11 2 191 46 308 403 528 302 235 421 307 122 
532 5 557 574 60 500 339 
533 4 488 154 36 90 
534 11 92 548 222 262 66 34 509 270 18 301 192 
535 9 570 188 167 523 78 148 324 392 17 
536 11 333 455 267 20 209 53 447 268 41 82 85 
537 10 304 83 571 58 551 360 11 363 161 369 
538 4 476 151 411 47 
539 11 431 251 319 253 314 335 423 101 135 42 578 
540 7 97 514 359 55 289 161 11 
541 9 110 506 127 34 548 262 384 330 169 
542 11 221 385 565 69 149 505 19 50 477 4 214 
543 7 170 489 219 71 143 374 577 
544 7 132 63 397 104 430 456 93 
545 9 36 90 475 488 10 538 154 171 533 
546 5 257 357 9 417 474 
547 10 4 354 149 477 95 525 479 385 443 137 
548 9 262 18 534 127 541 436 73 34 75 
549 7 252 380 484 502 74 329 490 
550 10 3 96 133 44 275 87 98 389 481 474 
551 10 363 571 101 83 537 172 314 176 42 319 
552 11 382 305 77 242 106 150 7 168 365 211 499 
553 11 449 369 266 464 109 511 265 353 415 29 212 
554 5 338 377 422 278 6 
555 8 405 563 51 306 216 461 457 341 
556 11 25 299 487 297 367 515 202 234 116 152 33 
557 6 532 574 60 500 130 339 
558 11 141 390 274 499 13 365 433 448 527 77 494 
559 10 342 519 129 296 200 85 303 82 20 209 
560 11 238 43 459 162 448 168 241 339 348 433 106 
561 8 579 5 45 399 529 512 89 409 
562 11 360 359 469 161 537 304 11 58 83 465 571 
563 9 51 216 306 555 457 405 341 123 461 
564 11 362 220 250 493 16 65 394 295 223 516 284 
565 11 50 542 105 69 221 19 268 505 214 385 149 
566 3 118 445 12 
567 11 8 368 291 371 573 527 7 150 15 211 113 
568 7 144 260 227 288 37 56 281 
569 8 177 284 271 426 517 312 62 223 
570 9 535 188 167 78 523 392 324 39 148 
571 10 551 83 363 537 369 172 101 304 58 176 
572 2 318 31 
573 11 291 15 567 8 371 368 125 522 113 527 491 
574 4 532 557 60 500 
575 10 400 206 436 501 75 61 419 99 127 285 
576 11 94 261 38 441 158 159 496 269 195 349 478 
577 10 374 71 247 412 420 325 330 489 170 406 
578 7 423 518 42 253 152 114 116 
579 8 89 346 5 108 561 512 245 45 
580 11 14 193 259 138 164 317 201 208 131 9 187 
581 10 520 57 437 165 482 215 186 272 112 156 
DEPOT_SECTION
   1
   -1
EOF
