NAME :  X-n801-kX-w320-c7.cctp
COMMENT : 	Adapted by Maziero, Usberti and Cavellucci from the Uchoa, Pecin, Pessoa, Poggi, Subramanian, and Vidal (2013)
TYPE :  CCTP
DIMENSION :    790
EDGE_WEIGHT_TYPE : 	EUC_2D	
CAPACITY : 	20
VERTICES_WITHIN_COVERAGE :  7
VERTICES_WITH_DEMAND : 	320
NODE_COORD_SECTION
1 0 0
2 674 825
3 549 534
4 43 315
5 542 420
6 45 580
7 180 450
8 369 618
9 287 721
10 36 426
11 680 338
12 42 81
13 942 119
14 247 68
15 432 549
16 514 857
17 554 976
18 103 728
19 271 73
20 310 859
21 874 538
22 358 642
23 989 42
24 538 271
25 854 443
26 596 563
27 827 228
28 380 40
29 152 224
30 726 258
31 981 544
32 600 381
33 629 799
34 488 12
35 100 542
36 37 272
37 847 980
38 949 124
39 787 917
40 111 958
41 571 968
42 2 409
43 95 2
44 318 447
45 271 856
46 873 697
47 34 274
48 733 17
49 620 125
50 611 334
51 66 848
52 507 711
53 993 152
54 596 683
55 605 980
56 372 833
57 968 699
58 36 620
59 518 566
60 138 457
61 828 421
62 467 39
63 626 645
64 192 923
65 56 363
66 252 349
67 202 896
68 999 331
69 843 462
70 83 975
71 475 135
72 601 55
73 578 43
74 480 854
75 124 825
76 121 228
77 355 326
78 291 944
79 784 563
80 260 251
81 472 918
82 193 715
83 539 592
84 794 290
85 930 315
86 190 654
87 429 292
88 79 779
89 931 409
90 114 765
91 948 685
92 550 915
93 383 979
94 127 64
95 541 935
96 218 159
97 396 194
98 216 85
99 106 843
100 174 744
101 782 117
102 699 379
103 497 355
104 87 161
105 558 199
106 721 10
107 18 53
108 704 674
109 443 783
110 755 58
111 928 666
112 347 805
113 360 600
114 101 119
115 938 556
116 422 848
117 934 275
118 391 807
119 712 230
120 908 359
121 992 823
122 80 246
123 367 837
124 865 661
125 67 146
126 956 582
127 977 663
128 930 343
129 896 542
130 631 472
131 62 636
132 817 759
133 914 195
134 46 591
135 102 825
136 822 527
137 763 684
138 975 128
139 26 941
140 314 34
141 787 474
142 512 291
143 718 832
144 244 931
145 534 425
146 585 799
147 513 990
148 641 633
149 254 283
150 448 389
151 702 44
152 109 823
153 402 190
154 184 314
155 26 270
156 333 949
157 132 174
158 203 842
159 182 78
160 575 723
161 807 656
162 745 757
163 320 523
164 175 626
165 488 947
166 376 858
167 540 797
168 52 401
169 441 748
170 491 459
171 398 734
172 202 560
173 636 652
174 813 892
175 403 311
176 201 878
177 245 641
178 894 2
179 515 142
180 701 895
181 143 590
182 612 652
183 650 986
184 932 420
185 410 762
186 676 219
187 174 236
188 204 25
189 828 312
190 120 96
191 409 434
192 405 549
193 379 787
194 810 191
195 129 755
196 499 596
197 754 620
198 937 430
199 61 519
200 29 34
201 843 640
202 520 251
203 385 685
204 619 501
205 239 564
206 908 111
207 234 353
208 467 896
209 742 499
210 277 981
211 194 265
212 851 885
213 850 444
214 131 847
215 806 302
216 627 401
217 267 788
218 805 211
219 61 985
220 729 142
221 402 812
222 956 593
223 907 977
224 670 71
225 863 184
226 74 25
227 741 581
228 38 919
229 963 467
230 979 558
231 916 241
232 4 676
233 217 612
234 311 756
235 235 42
236 815 106
237 848 461
238 46 198
239 460 210
240 293 234
241 274 248
242 986 983
243 800 608
244 342 852
245 623 95
246 258 221
247 420 244
248 444 16
249 223 518
250 821 540
251 939 766
252 157 549
253 106 921
254 961 583
255 925 959
256 619 540
257 507 97
258 790 509
259 404 252
260 44 843
261 363 737
262 752 492
263 352 216
264 226 577
265 817 913
266 115 221
267 200 58
268 38 628
269 711 595
270 479 404
271 332 129
272 929 145
273 93 139
274 269 260
275 583 421
276 424 47
277 715 796
278 240 26
279 743 62
280 633 515
281 528 202
282 976 456
283 54 828
284 739 497
285 191 890
286 384 316
287 713 629
288 502 205
289 563 779
290 205 892
291 368 18
292 766 621
293 207 679
294 506 481
295 622 691
296 946 987
297 890 793
298 182 900
299 530 981
300 540 313
301 78 213
302 456 978
303 99 363
304 623 878
305 448 422
306 379 61
307 792 953
308 347 720
309 373 793
310 330 512
311 22 7
312 445 147
313 431 90
314 517 208
315 659 423
316 724 233
317 906 970
318 476 43
319 522 237
320 571 317
321 280 476
322 571 424
323 885 129
324 452 500
325 743 544
326 493 777
327 976 918
328 412 154
329 762 39
330 473 60
331 570 414
332 201 567
333 226 169
334 12 159
335 627 681
336 589 346
337 563 637
338 678 455
339 361 119
340 849 338
341 776 929
342 511 327
343 128 163
344 183 433
345 697 48
346 3 800
347 361 10
348 499 410
349 601 34
350 73 124
351 908 439
352 136 356
353 203 835
354 355 733
355 221 582
356 961 627
357 661 144
358 875 331
359 455 290
360 104 892
361 281 548
362 378 180
363 329 906
364 41 229
365 320 770
366 191 805
367 767 162
368 72 237
369 491 176
370 716 497
371 391 682
372 828 526
373 457 274
374 934 814
375 765 225
376 337 209
377 903 78
378 223 461
379 668 475
380 201 270
381 261 879
382 697 920
383 573 385
384 724 568
385 892 43
386 159 283
387 931 623
388 585 768
389 449 408
390 459 705
391 203 692
392 215 862
393 712 480
394 150 407
395 274 443
396 565 501
397 230 119
398 157 111
399 481 368
400 662 102
401 252 72
402 737 554
403 111 96
404 110 348
405 232 480
406 970 989
407 910 901
408 598 686
409 327 371
410 267 682
411 571 194
412 383 829
413 897 166
414 869 417
415 244 30
416 809 255
417 4 177
418 340 996
419 32 602
420 793 712
421 916 104
422 77 731
423 489 744
424 330 707
425 600 540
426 803 954
427 123 430
428 998 17
429 229 468
430 67 511
431 897 279
432 448 185
433 680 762
434 752 263
435 724 44
436 911 15
437 29 685
438 563 589
439 972 125
440 696 82
441 61 393
442 536 881
443 963 57
444 690 225
445 759 430
446 535 47
447 468 19
448 860 45
449 810 233
450 753 13
451 217 331
452 747 415
453 106 630
454 207 218
455 389 952
456 974 969
457 242 335
458 249 118
459 118 982
460 741 606
461 15 459
462 52 684
463 990 159
464 325 995
465 926 999
466 123 903
467 544 369
468 582 67
469 676 344
470 793 276
471 774 131
472 447 520
473 675 775
474 723 323
475 624 108
476 431 317
477 531 961
478 401 76
479 493 604
480 125 188
481 558 463
482 646 587
483 736 62
484 698 127
485 270 234
486 100 418
487 154 568
488 396 895
489 890 116
490 740 150
491 509 345
492 42 516
493 837 341
494 363 882
495 9 260
496 543 783
497 238 33
498 101 723
499 823 319
500 376 753
501 421 707
502 912 300
503 564 169
504 101 247
505 418 767
506 79 258
507 806 598
508 465 7
509 718 756
510 571 33
511 858 934
512 498 115
513 270 966
514 837 44
515 897 98
516 659 168
517 6 579
518 33 841
519 846 736
520 792 131
521 524 301
522 545 773
523 945 365
524 248 354
525 206 831
526 351 798
527 868 116
528 936 974
529 809 145
530 542 321
531 515 23
532 167 912
533 594 490
534 910 515
535 542 619
536 855 937
537 758 776
538 217 592
539 810 821
540 735 333
541 950 557
542 305 532
543 880 441
544 877 400
545 771 528
546 592 578
547 520 681
548 175 953
549 276 21
550 574 742
551 199 633
552 852 821
553 476 514
554 326 299
555 589 781
556 960 350
557 830 120
558 0 291
559 65 496
560 877 905
561 753 97
562 329 24
563 207 545
564 113 342
565 120 573
566 295 581
567 298 609
568 731 893
569 763 273
570 816 651
571 702 61
572 880 426
573 719 232
574 955 689
575 715 141
576 788 762
577 34 817
578 105 22
579 857 788
580 134 359
581 831 163
582 361 870
583 975 958
584 553 819
585 807 673
586 19 838
587 746 121
588 130 380
589 741 511
590 80 424
591 173 767
592 906 426
593 990 111
594 748 520
595 92 895
596 371 978
597 986 670
598 929 905
599 661 524
600 974 197
601 742 652
602 732 747
603 870 188
604 612 890
605 348 284
606 973 109
607 34 437
608 137 997
609 474 63
610 665 444
611 300 335
612 856 104
613 866 249
614 528 91
615 140 964
616 25 937
617 486 786
618 857 918
619 357 860
620 823 709
621 162 150
622 77 809
623 516 380
624 772 832
625 387 199
626 261 767
627 619 645
628 754 57
629 692 838
630 193 932
631 738 941
632 406 976
633 487 965
634 396 197
635 444 940
636 182 954
637 85 539
638 70 483
639 161 570
640 447 194
641 757 845
642 930 251
643 950 549
644 601 86
645 143 117
646 698 634
647 238 877
648 543 987
649 761 809
650 494 134
651 562 925
652 838 282
653 834 210
654 926 436
655 375 833
656 568 225
657 106 594
658 675 986
659 835 632
660 144 83
661 272 373
662 4 496
663 299 740
664 805 641
665 482 600
666 255 448
667 834 470
668 117 696
669 837 469
670 345 585
671 476 565
672 893 816
673 271 417
674 877 492
675 605 578
676 156 613
677 607 721
678 527 358
679 54 581
680 591 478
681 7 37
682 529 997
683 705 436
684 110 166
685 702 173
686 962 671
687 262 521
688 82 75
689 1000 703
690 607 536
691 764 227
692 827 744
693 788 463
694 450 136
695 119 348
696 32 58
697 178 910
698 381 159
699 686 207
700 276 358
701 683 682
702 708 748
703 707 282
704 141 999
705 558 169
706 403 688
707 315 671
708 827 880
709 601 481
710 641 950
711 98 116
712 611 668
713 313 616
714 928 521
715 595 498
716 350 295
717 397 963
718 595 904
719 798 339
720 978 460
721 260 800
722 302 615
723 653 302
724 5 126
725 512 800
726 541 691
727 559 690
728 24 21
729 465 522
730 125 178
731 868 947
732 204 141
733 636 919
734 703 643
735 385 155
736 790 245
737 244 833
738 244 666
739 870 543
740 606 359
741 712 497
742 553 343
743 532 975
744 555 276
745 165 33
746 757 787
747 537 457
748 120 51
749 932 958
750 815 623
751 502 636
752 859 508
753 42 675
754 10 496
755 999 300
756 908 736
757 735 980
758 459 564
759 49 877
760 483 587
761 945 557
762 602 2
763 633 936
764 379 182
765 814 486
766 710 500
767 178 687
768 466 406
769 186 732
770 381 762
771 69 478
772 193 411
773 109 653
774 40 10
775 142 303
776 90 111
777 334 499
778 443 482
779 187 290
780 262 691
781 814 908
782 171 930
783 446 214
784 893 96
785 205 410
786 137 120
787 115 986
788 745 541
789 368 926
790 77 338
DEMAND_SECTION
2 1
3 1
4 1
5 1
6 1
7 1
8 1
9 1
10 1
11 1
12 1
13 1
14 1
15 1
16 1
17 1
18 1
19 1
20 1
21 1
22 1
23 1
24 1
25 1
26 1
27 1
28 1
29 1
30 1
31 1
32 1
33 1
34 1
35 1
36 1
37 1
38 1
39 1
40 1
41 1
42 1
43 1
44 1
45 1
46 1
47 1
48 1
49 1
50 1
51 1
52 1
53 1
54 1
55 1
56 1
57 1
58 1
59 1
60 1
61 1
62 1
63 1
64 1
65 1
66 1
67 1
68 1
69 1
70 1
71 1
72 1
73 1
74 1
75 1
76 1
77 1
78 1
79 1
80 1
81 1
82 1
83 1
84 1
85 1
86 1
87 1
88 1
89 1
90 1
91 1
92 1
93 1
94 1
95 1
96 1
97 1
98 1
99 1
100 1
101 1
102 1
103 1
104 1
105 1
106 1
107 1
108 1
109 1
110 1
111 1
112 1
113 1
114 1
115 1
116 1
117 1
118 1
119 1
120 1
121 1
122 1
123 1
124 1
125 1
126 1
127 1
128 1
129 1
130 1
131 1
132 1
133 1
134 1
135 1
136 1
137 1
138 1
139 1
140 1
141 1
142 1
143 1
144 1
145 1
146 1
147 1
148 1
149 1
150 1
151 1
152 1
153 1
154 1
155 1
156 1
157 1
158 1
159 1
160 1
161 1
162 1
163 1
164 1
165 1
166 1
167 1
168 1
169 1
170 1
171 1
172 1
173 1
174 1
175 1
176 1
177 1
178 1
179 1
180 1
181 1
182 1
183 1
184 1
185 1
186 1
187 1
188 1
189 1
190 1
191 1
192 1
193 1
194 1
195 1
196 1
197 1
198 1
199 1
200 1
201 1
202 1
203 1
204 1
205 1
206 1
207 1
208 1
209 1
210 1
211 1
212 1
213 1
214 1
215 1
216 1
217 1
218 1
219 1
220 1
221 1
222 1
223 1
224 1
225 1
226 1
227 1
228 1
229 1
230 1
231 1
232 1
233 1
234 1
235 1
236 1
237 1
238 1
239 1
240 1
241 1
242 1
243 1
244 1
245 1
246 1
247 1
248 1
249 1
250 1
251 1
252 1
253 1
254 1
255 1
256 1
257 1
258 1
259 1
260 1
261 1
262 1
263 1
264 1
265 1
266 1
267 1
268 1
269 1
270 1
271 1
272 1
273 1
274 1
275 1
276 1
277 1
278 1
279 1
280 1
281 1
282 1
283 1
284 1
285 1
286 1
287 1
288 1
289 1
290 1
291 1
292 1
293 1
294 1
295 1
296 1
297 1
298 1
299 1
300 1
301 1
302 1
303 1
304 1
305 1
306 1
307 1
308 1
309 1
310 1
311 1
312 1
313 1
314 1
315 1
316 1
317 1
318 1
319 1
320 1
321 1
COVERAGE_SECTION
2 7 629 143 277 473 33 433 304 
3 7 396 59 425 26 438 690 715 
4 7 790 47 36 155 558 65 495 
5 7 145 322 331 747 275 348 481 
6 7 679 134 419 517 58 268 637 
7 7 344 772 60 378 785 394 429 
8 7 113 22 670 713 722 371 203 
9 7 663 780 234 410 424 626 707 
10 6 607 168 42 461 441 590 
11 7 469 102 723 474 540 703 50 
12 7 696 107 688 200 350 681 776 
13 7 38 272 421 439 606 138 206 
14 7 401 19 235 98 497 415 278 
15 7 192 758 472 729 671 324 553 
16 7 442 74 584 725 208 167 92 
17 7 648 41 743 299 477 682 95 
18 7 498 422 668 195 90 88 462 
19 7 401 14 235 458 415 497 549 
20 7 244 45 619 363 582 381 494 
21 7 739 129 752 534 674 372 136 
22 7 8 113 203 371 707 713 670 
23 7 428 443 593 606 436 439 138 
24 7 744 202 142 521 319 300 530 
25 7 213 237 69 543 414 572 669 
26 7 546 675 425 690 256 438 3 
27 7 449 653 218 416 194 736 613 
28 7 306 291 347 478 276 562 140 
29 7 187 76 266 480 730 157 454 
30 7 316 434 573 119 703 569 444 
31 7 230 643 541 761 254 115 126 
32 7 740 383 216 336 275 331 50 
33 7 146 555 2 473 388 433 289 
34 7 447 508 531 318 62 248 330 
35 7 637 565 199 430 657 252 559 
36 7 47 155 495 558 4 364 506 
37 7 731 536 511 426 223 317 307 
38 7 13 439 138 606 272 421 206 
39 7 341 781 265 174 307 426 708 
40 6 459 787 615 70 253 608 
41 7 17 648 55 743 477 299 651 
42 6 10 607 168 461 441 65 
43 7 578 226 748 774 94 200 311 
44 7 395 321 777 673 666 310 163 
45 7 381 737 20 647 392 721 217 
46 7 124 519 620 756 111 201 692 
47 7 36 155 495 558 4 364 506 
48 7 106 450 435 329 151 483 628 
49 7 475 245 644 357 400 516 468 
50 7 336 740 320 32 723 742 383 
51 7 260 283 518 759 99 622 135 
52 7 547 423 726 390 727 326 160 
53 7 463 138 439 593 606 600 38 
54 7 408 712 295 335 182 727 677 
55 7 41 183 710 17 763 648 733 
56 7 655 123 412 166 619 118 244 
57 7 574 91 686 689 597 127 111 
58 7 268 419 131 134 6 679 517 
59 7 83 196 760 671 3 479 665 
60 6 427 7 344 394 486 590 
61 7 213 25 414 69 237 667 669 
62 7 318 447 330 609 508 248 34 
63 7 627 173 182 148 712 335 295 
64 7 630 697 782 298 532 67 285 
65 7 441 790 168 303 4 404 564 
66 7 524 457 207 700 661 451 611 
67 7 290 285 176 298 697 64 392 
68 7 755 556 523 128 85 117 502 
69 7 237 669 667 213 25 765 543 
70 7 219 40 787 459 608 615 253 
71 7 650 694 512 312 179 369 257 
72 7 349 468 73 644 510 245 762 
73 7 510 468 349 72 446 762 644 
74 7 16 208 116 442 725 81 617 
75 7 152 135 214 99 622 90 51 
76 7 266 504 29 480 122 301 368 
77 7 286 716 554 605 175 409 611 
78 7 513 210 156 144 363 464 418 
79 7 545 507 250 325 788 227 243 
80 7 274 241 485 246 149 240 380 
81 7 208 165 635 633 302 74 95 
82 7 769 391 767 100 293 591 86 
83 7 438 535 59 196 479 337 546 
84 7 470 215 569 416 189 499 652 
85 7 502 128 117 556 120 431 523 
86 7 551 293 164 767 391 233 676 
87 7 476 359 175 373 259 247 286 
88 7 622 90 422 135 152 195 283 
89 7 184 198 654 592 351 523 572 
90 7 195 88 18 498 422 622 152 
91 7 574 686 57 111 127 597 689 
92 7 651 95 442 718 477 41 17 
93 7 596 717 632 455 418 789 156 
94 7 748 660 190 403 688 578 745 
95 7 92 651 477 743 17 41 299 
96 7 333 732 397 458 621 454 98 
97 7 634 153 625 764 362 698 735 
98 7 267 14 159 397 401 235 458 
99 7 135 152 75 214 51 622 360 
100 7 769 591 82 195 767 391 366 
101 7 471 520 236 561 587 529 367 
102 7 469 11 683 540 315 452 474 
103 7 491 399 678 342 623 467 270 
104 7 273 684 125 350 343 730 114 
105 7 411 656 281 705 503 314 319 
106 7 48 450 435 151 345 329 483 
107 7 696 681 200 728 12 311 774 
108 7 701 734 646 601 287 137 173 
109 7 505 169 185 617 221 326 118 
110 7 628 279 483 329 435 561 450 
111 7 91 686 574 387 127 356 57 
112 7 526 309 193 56 123 655 412 
113 7 8 670 22 713 722 567 192 
114 7 711 776 273 403 350 190 786 
115 7 761 541 643 126 254 714 222 
116 7 221 412 166 655 118 56 488 
117 7 642 502 431 231 85 128 755 
118 7 221 193 309 412 655 56 123 
119 7 573 316 444 30 699 186 434 
120 6 128 523 358 85 544 556 
121 7 374 251 327 672 598 297 407 
122 7 368 506 504 301 266 364 76 
123 7 56 655 412 166 619 244 582 
124 7 201 46 659 570 161 585 111 
125 7 350 104 273 776 114 711 684 
126 7 254 222 541 761 115 230 643 
127 7 597 686 574 91 57 356 689 
128 7 120 523 85 556 502 358 89 
129 7 21 739 534 714 115 752 761 
130 7 204 709 379 680 533 280 610 
131 7 268 58 453 753 419 134 462 
132 7 692 576 519 579 620 420 537 
133 7 413 603 231 225 272 642 600 
134 7 6 679 419 58 268 517 131 
135 7 152 99 75 622 214 51 283 
136 7 372 250 258 752 765 545 739 
137 7 601 420 585 161 108 664 570 
138 7 439 606 593 38 53 13 463 
139 7 616 228 219 70 759 595 253 
140 7 562 549 347 291 19 28 306 
141 7 693 765 258 262 667 669 209 
142 7 521 24 300 342 202 530 744 
143 7 629 277 641 2 649 624 746 
144 7 513 78 630 64 647 67 290 
145 7 5 747 322 331 348 481 623 
146 7 555 289 388 584 33 167 496 
147 7 682 299 743 648 477 633 17 
148 7 63 173 627 182 482 712 335 
149 7 274 80 241 485 457 380 451 
150 7 389 768 305 270 399 348 103 
151 7 345 571 435 440 483 106 48 
152 7 135 75 99 214 622 51 88 
153 7 97 634 625 764 362 328 698 
154 7 779 451 386 775 380 211 457 
155 7 47 36 495 558 364 4 506 
156 7 78 789 363 464 418 596 455 
157 7 730 343 480 684 621 104 266 
158 7 353 525 392 176 366 737 285 
159 7 267 98 660 398 745 645 94 
160 7 550 677 727 408 54 388 726 
161 7 570 664 585 750 659 201 243 
162 7 602 537 509 746 702 576 277 
163 7 310 542 777 361 687 321 566 
164 7 676 551 86 233 181 538 639 
165 7 633 81 302 477 635 147 743 
166 7 582 619 123 56 655 494 412 
167 7 496 522 584 725 289 146 326 
168 7 441 10 590 65 607 42 486 
169 7 505 185 109 171 501 390 423 
170 7 294 747 348 778 145 270 305 
171 7 500 185 770 261 501 505 354 
172 7 332 563 264 355 538 205 639 
173 7 63 627 148 182 335 712 295 
174 7 781 708 265 39 212 618 341 
175 7 286 476 87 77 716 359 259 
176 7 290 285 67 392 298 158 647 
177 7 738 233 410 551 780 293 538 
178 7 436 385 448 514 377 443 784 
179 7 650 512 71 369 257 705 614 
180 7 382 568 629 631 143 733 2 
181 7 487 676 639 565 657 252 164 
182 7 627 63 712 173 335 54 148 
183 7 658 710 55 763 733 41 382 
184 7 89 198 654 592 351 572 229 
185 7 505 770 171 169 500 109 193 
186 7 444 699 119 573 316 685 516 
187 7 29 211 454 380 386 76 779 
188 7 267 235 497 278 415 745 159 
189 7 499 215 493 652 340 84 719 
190 7 403 660 786 114 711 645 94 
191 7 305 389 778 150 768 270 324 
192 7 15 472 758 729 113 324 670 
193 7 309 118 770 526 221 500 112 
194 7 218 653 581 27 449 529 367 
195 7 90 18 498 100 591 88 422 
196 7 479 665 760 59 671 83 751 
197 7 292 460 601 227 287 243 269 
198 7 184 654 89 351 592 229 282 
199 7 430 492 559 637 638 771 35 
200 7 728 107 681 696 774 311 226 
201 7 659 570 124 750 664 161 585 
202 7 319 24 142 314 744 288 281 
203 7 371 706 501 22 171 308 261 
204 7 280 715 533 709 130 680 690 
205 7 264 355 538 172 563 332 361 
206 7 421 515 489 784 323 377 13 
207 7 524 66 457 451 700 661 154 
208 7 81 74 635 165 16 116 442 
209 7 284 262 589 594 370 741 766 
210 7 513 78 464 144 156 418 363 
211 7 380 779 187 386 454 154 29 
212 7 708 560 618 174 265 781 511 
213 7 25 237 69 669 543 667 61 
214 7 75 99 152 135 360 466 595 
215 7 84 189 499 470 652 719 416 
216 7 32 315 740 275 383 610 331 
217 7 721 626 737 234 365 663 45 
218 7 194 449 27 653 736 375 416 
219 7 70 787 139 40 459 616 228 
220 7 490 575 587 484 685 367 471 
221 7 118 412 193 655 309 56 116 
222 7 126 254 356 541 761 387 115 
223 7 317 255 465 528 749 296 731 
224 7 440 400 571 345 151 245 475 
225 7 603 413 581 653 133 194 27 
226 7 43 578 774 200 728 688 696 
227 7 384 460 402 269 325 788 197 
228 7 616 139 759 595 253 219 360 
229 7 282 720 198 654 184 351 714 
230 7 31 541 643 254 126 761 115 
231 7 642 117 431 133 613 502 603 
232 7 437 753 462 268 58 131 419 
233 7 538 551 355 264 177 164 332 
234 7 365 663 9 354 308 626 424 
235 7 497 415 278 14 401 188 267 
236 7 557 520 101 529 612 471 527 
237 7 69 669 213 667 25 543 674 
238 7 364 301 368 417 334 104 125 
239 7 783 640 432 288 369 247 314 
240 7 485 241 274 80 246 376 263 
241 7 274 80 485 240 246 149 454 
242 7 406 456 583 296 528 749 465 
243 7 507 750 664 292 659 570 79 
244 7 619 582 123 20 166 56 494 
245 7 475 644 49 400 72 468 224 
246 7 485 80 241 240 274 454 333 
247 7 259 783 373 87 239 634 97 
248 7 508 447 62 276 318 34 330 
249 7 563 405 687 172 205 429 332 
250 7 136 372 79 258 739 752 545 
251 7 756 374 297 672 57 121 574 
252 7 487 639 181 565 172 332 563 
253 6 466 360 595 40 615 70 
254 7 126 222 541 230 761 115 643 
255 7 749 528 317 223 296 465 456 
256 7 690 425 280 26 204 675 599 
257 7 512 614 650 179 609 71 330 
258 7 545 765 141 136 262 372 594 
259 7 247 87 625 634 373 783 97 
260 7 518 283 51 586 577 759 622 
261 7 354 500 308 770 171 424 193 
262 7 209 284 589 594 370 141 741 
263 7 376 625 764 362 634 97 153 
264 7 355 538 205 332 172 233 563 
265 7 781 174 39 708 618 426 212 
266 7 76 504 480 29 301 122 730 
267 7 159 98 188 235 745 497 14 
268 7 58 131 419 134 753 6 679 
269 7 384 460 227 287 646 402 734 
270 7 768 348 389 150 305 399 623 
271 7 339 698 735 362 764 376 19 
272 7 13 38 413 206 421 323 439 
273 7 114 104 711 350 125 776 684 
274 7 80 241 485 149 240 246 380 
275 7 322 331 383 5 32 216 145 
276 7 248 478 62 313 28 306 330 
277 7 143 509 746 473 537 629 649 
278 7 415 497 235 188 549 14 401 
279 7 483 628 110 435 329 561 571 
280 7 204 256 599 690 425 715 130 
281 7 314 288 105 319 411 369 705 
282 7 720 229 198 654 184 89 351 
283 7 260 51 577 518 622 586 135 
284 7 209 262 589 370 594 741 766 
285 7 67 298 290 176 697 64 532 
286 7 175 77 716 476 605 87 554 
287 7 646 734 269 460 601 197 108 
288 7 314 281 369 319 239 202 105 
289 7 522 496 388 555 167 146 550 
290 7 67 285 176 298 392 697 64 
291 7 347 28 562 306 140 276 478 
292 7 197 460 243 601 664 507 227 
293 7 391 86 767 82 738 551 177 
294 7 170 747 553 481 324 729 396 
295 7 335 408 712 54 677 182 173 
296 7 528 465 406 749 456 255 223 
297 7 672 579 552 374 251 756 519 
298 7 697 285 532 67 290 64 176 
299 7 743 648 682 147 477 17 41 
300 7 530 521 320 342 742 142 744 
301 7 368 122 238 266 364 504 506 
302 7 633 635 165 632 147 717 81 
303 7 404 564 695 790 580 588 352 
304 7 604 718 733 763 2 710 651 
305 7 389 768 150 270 191 348 170 
306 7 28 478 291 276 347 313 339 
307 7 426 341 39 265 781 631 37 
308 7 354 424 261 500 234 203 663 
309 7 193 118 526 112 770 221 412 
310 7 777 163 542 361 321 44 687 
311 7 728 774 200 681 107 696 226 
312 7 694 71 328 432 640 650 369 
313 7 478 276 694 609 330 312 306 
314 7 281 288 319 369 105 202 656 
315 7 610 338 216 683 379 130 102 
316 7 573 119 30 444 691 434 375 
317 7 223 255 749 528 465 296 731 
318 7 62 330 609 447 34 508 248 
319 7 202 314 281 24 288 656 744 
320 7 530 300 742 336 50 744 521 
321 7 395 666 44 405 687 429 378 
322 7 331 275 5 145 383 481 747 
323 7 489 527 206 515 784 612 413 
324 7 778 472 729 553 15 170 294 
325 7 788 402 594 384 545 589 227 
326 7 617 725 423 109 496 167 522 
327 7 583 598 456 749 255 242 407 
328 7 735 698 312 153 694 97 362 
329 7 110 628 450 279 483 48 435 
330 7 609 318 62 447 34 257 276 
331 7 322 275 5 383 145 32 481 
332 7 172 563 355 264 538 205 639 
333 7 96 732 397 454 458 246 621 
334 7 417 724 238 125 350 104 364 
335 7 295 712 408 173 54 182 63 
336 7 740 50 320 742 32 383 467 
337 7 535 438 83 182 727 54 627 
338 6 610 379 683 315 393 130 
339 7 271 735 698 478 306 328 362 
340 4 493 358 499 189 
341 7 39 307 426 631 781 265 174 
342 7 491 521 103 300 530 678 142 
343 7 157 730 684 480 621 104 273 
344 7 7 772 785 394 378 60 429 
345 7 151 571 435 440 224 483 106 
346 7 577 586 518 283 260 622 51 
347 7 291 562 28 140 306 276 478 
348 7 270 768 623 145 5 399 170 
349 7 72 73 510 762 468 644 245 
350 7 776 125 273 711 114 104 403 
351 7 592 654 543 198 184 572 89 
352 7 580 695 588 404 564 303 394 
353 7 525 158 392 366 737 176 647 
354 7 261 308 500 424 770 171 234 
355 7 264 538 205 332 172 233 563 
356 7 387 222 127 254 686 126 597 
357 7 516 484 400 49 685 475 575 
358 5 340 493 120 502 189 
359 7 373 87 476 175 142 247 259 
360 7 595 466 253 99 214 759 51 
361 7 542 687 566 205 163 310 264 
362 7 764 625 698 97 634 153 735 
363 7 494 156 789 582 20 78 619 
364 7 238 368 301 36 122 155 495 
365 7 234 663 526 112 354 261 217 
366 7 525 353 158 591 737 392 100 
367 7 490 471 520 220 529 587 101 
368 7 122 506 301 504 364 266 238 
369 7 288 314 179 650 71 432 281 
370 6 741 766 393 284 209 589 
371 7 203 706 501 22 171 308 261 
372 7 136 250 752 258 765 739 21 
373 7 359 87 247 476 259 142 783 
374 7 672 251 297 121 579 552 756 
375 7 691 736 434 218 316 449 573 
376 7 263 362 764 240 625 634 97 
377 7 515 784 421 206 385 489 527 
378 7 429 405 666 7 344 395 785 
379 5 338 610 130 393 599 
380 7 211 779 187 386 154 454 149 
381 7 647 45 392 737 20 144 290 
382 7 180 568 631 733 710 763 658 
383 7 32 331 467 275 322 336 740 
384 6 402 227 269 325 788 460 
385 7 448 436 377 178 784 514 515 
386 7 775 779 211 154 380 187 29 
387 7 356 222 111 126 254 686 127 
388 7 555 289 550 146 522 496 160 
389 7 305 768 150 270 191 348 399 
390 7 501 169 52 423 706 547 171 
391 7 293 82 767 86 769 738 551 
392 7 176 158 647 353 290 525 67 
393 5 370 741 766 284 209 
394 7 588 427 344 772 60 486 580 
395 7 666 673 321 44 429 378 405 
396 7 715 533 680 3 481 709 425 
397 7 458 732 98 96 333 401 14 
398 7 645 786 660 621 190 159 403 
399 7 103 270 491 623 150 768 348 
400 7 224 475 440 245 357 484 49 
401 7 14 19 235 98 497 415 458 
402 7 325 788 384 227 594 545 589 
403 7 190 711 114 776 660 786 94 
404 7 564 695 303 580 352 790 588 
405 7 429 378 249 666 321 687 395 
406 7 242 456 296 583 528 465 749 
407 7 598 560 618 255 212 749 511 
408 7 54 712 295 335 677 182 727 
409 7 611 77 700 661 554 673 44 
410 7 780 738 9 177 707 293 391 
411 7 105 503 705 656 281 314 319 
412 7 655 56 123 118 221 166 309 
413 7 133 603 225 272 323 489 206 
414 7 572 544 543 25 213 592 61 
415 7 278 497 235 549 14 188 401 
416 7 736 449 470 27 84 652 218 
417 7 334 238 724 364 125 301 495 
418 7 464 596 93 156 210 455 717 
419 7 58 134 6 268 679 517 131 
420 7 620 137 585 692 576 132 161 
421 7 206 515 784 377 489 13 38 
422 7 498 18 88 90 462 668 195 
423 7 326 52 617 169 390 109 725 
424 7 308 354 707 9 261 663 234 
425 7 690 256 26 675 546 280 715 
426 7 307 341 39 265 781 37 536 
427 7 486 60 394 590 588 7 344 
428 7 23 443 436 593 606 178 385 
429 7 378 405 666 249 395 7 321 
430 7 199 559 492 638 637 771 35 
431 7 502 117 231 613 642 85 358 
432 7 640 239 783 312 369 153 328 
433 7 473 702 509 277 602 2 33 
434 7 569 30 691 375 316 736 470 
435 7 151 483 279 345 48 571 628 
436 7 178 385 448 377 443 514 23 
437 7 753 462 232 268 131 58 422 
438 7 83 546 535 26 675 337 59 
439 7 138 606 38 593 13 53 463 
440 7 571 224 345 151 400 483 484 
441 7 168 65 590 10 486 303 607 
442 7 16 92 651 95 74 718 584 
443 7 23 428 606 593 377 13 421 
444 7 186 699 119 573 316 30 685 
445 7 452 693 141 683 262 393 61 
446 7 531 510 73 614 468 257 34 
447 7 508 62 34 248 318 330 609 
448 7 514 385 377 178 436 612 784 
449 7 27 416 218 736 653 194 375 
450 7 48 329 106 435 628 110 279 
451 7 457 207 154 66 524 779 149 
452 7 445 683 102 693 141 393 262 
453 7 773 657 131 676 181 565 668 
454 7 187 211 246 380 333 29 96 
455 7 717 93 632 596 789 156 635 
456 7 583 242 406 296 528 749 255 
457 7 66 207 524 451 700 661 149 
458 7 397 401 98 14 19 96 732 
459 6 787 608 40 615 704 70 
460 7 197 227 292 269 287 384 601 
461 5 607 754 10 662 42 
462 7 753 437 131 232 422 268 498 
463 7 53 138 439 600 593 606 38 
464 7 418 156 596 210 93 78 513 
465 7 296 528 223 317 255 749 406 
466 6 360 253 595 532 697 782 
467 7 678 742 623 383 491 530 103 
468 7 72 73 644 510 349 245 446 
469 7 11 102 723 474 540 50 703 
470 7 84 416 215 569 736 434 652 
471 7 101 520 587 367 529 490 561 
472 7 729 324 553 15 778 758 192 
473 7 433 702 277 509 2 33 602 
474 7 540 703 11 469 102 569 30 
475 7 245 49 644 400 357 72 224 
476 7 87 175 359 286 373 259 399 
477 7 743 299 17 95 648 147 682 
478 7 306 313 276 28 339 291 248 
479 7 196 665 760 751 671 59 83 
480 7 730 157 343 684 266 76 29 
481 7 747 680 396 322 145 533 5 
482 7 675 148 256 26 546 63 627 
483 7 279 110 628 435 571 329 151 
484 7 575 220 357 400 440 685 490 
485 7 241 246 80 240 274 149 454 
486 7 590 427 441 588 168 394 60 
487 7 639 252 181 565 676 332 172 
488 7 494 166 789 582 619 116 455 
489 7 323 206 515 784 527 421 612 
490 7 220 575 367 587 471 685 484 
491 7 103 342 678 399 623 530 467 
492 6 199 430 559 754 638 662 
493 3 340 499 189 
494 7 582 619 166 488 244 363 789 
495 7 155 47 36 558 364 4 368 
496 7 522 167 289 725 584 146 388 
497 7 278 415 235 188 14 549 401 
498 7 18 422 668 195 90 88 462 
499 7 189 215 493 340 719 652 84 
500 7 770 261 171 354 193 185 309 
501 7 706 171 390 371 203 169 185 
502 7 85 431 117 128 358 642 120 
503 7 705 411 105 281 179 656 314 
504 7 122 506 76 266 368 301 29 
505 7 185 109 169 770 171 193 500 
506 7 122 368 504 36 301 47 364 
507 7 243 750 79 664 659 292 570 
508 7 447 248 34 62 318 531 330 
509 7 702 602 162 433 277 537 473 
510 7 73 349 468 72 446 762 531 
511 7 536 618 731 560 265 37 212 
512 7 650 257 71 179 614 694 609 
513 7 210 78 144 464 156 418 363 
514 7 448 385 612 236 178 377 329 
515 7 784 206 489 421 377 323 527 
516 7 357 685 699 186 484 49 575 
517 7 419 6 134 679 58 268 492 
518 7 260 586 577 283 51 759 346 
519 7 692 620 132 46 579 420 756 
520 7 101 471 529 236 367 557 587 
521 7 142 300 530 342 24 744 491 
522 7 496 289 167 388 550 725 555 
523 7 556 128 120 89 85 184 68 
524 7 66 207 457 700 661 451 611 
525 7 353 158 366 392 737 176 647 
526 7 112 309 193 56 118 123 365 
527 7 612 323 489 784 515 557 206 
528 7 296 749 255 465 223 317 406 
529 7 520 581 557 471 101 236 367 
530 7 300 742 521 320 342 678 491 
531 7 34 446 318 447 62 508 330 
532 6 697 782 298 64 285 630 
533 7 715 709 680 204 396 130 481 
534 7 714 129 674 21 739 115 752 
535 7 83 337 438 751 196 479 59 
536 7 511 731 618 560 37 265 781 
537 7 746 162 576 649 602 509 277 
538 7 355 264 233 332 172 205 551 
539 7 624 552 649 579 641 708 132 
540 7 474 11 102 703 469 719 569 
541 7 761 643 115 126 254 230 31 
542 7 163 361 310 687 777 566 321 
543 7 572 25 414 351 213 592 237 
544 5 414 572 592 543 25 
545 7 594 258 788 325 589 79 209 
546 7 675 26 438 425 690 256 83 
547 7 726 52 727 751 337 390 535 
548 6 636 782 630 64 615 532 
549 7 415 278 140 497 235 19 562 
550 7 160 388 289 677 522 555 496 
551 7 86 164 233 538 177 293 676 
552 7 579 672 539 297 212 708 132 
553 7 729 324 472 294 778 671 758 
554 7 716 605 77 611 286 274 409 
555 7 388 146 289 550 33 522 496 
556 7 523 128 68 85 120 755 89 
557 7 236 612 529 527 520 581 101 
558 7 495 155 47 36 4 364 506 
559 5 638 430 771 199 492 
560 7 618 212 407 511 536 731 598 
561 7 587 101 279 110 483 471 628 
562 7 140 347 291 28 549 306 19 
563 7 172 332 249 205 264 355 538 
564 7 404 695 303 352 580 790 588 
565 7 657 181 487 35 639 252 637 
566 7 567 722 361 713 542 670 205 
567 7 722 713 566 670 177 113 361 
568 7 180 382 631 641 341 39 143 
569 7 434 470 84 736 30 691 375 
570 7 161 664 585 659 750 201 243 
571 7 345 151 440 435 224 483 279 
572 7 414 543 544 592 25 351 213 
573 7 316 119 30 444 699 186 434 
574 7 91 57 686 127 111 597 689 
575 7 220 484 490 685 587 357 367 
576 7 132 537 746 162 692 420 649 
577 7 283 518 586 260 346 622 51 
578 7 43 226 748 94 688 745 774 
579 7 297 552 672 132 519 692 539 
580 7 352 695 588 404 564 303 394 
581 7 529 194 225 557 603 653 520 
582 7 619 494 166 244 123 56 655 
583 7 456 242 406 327 296 528 749 
584 7 167 496 146 289 725 522 555 
585 7 161 570 664 620 420 137 201 
586 7 518 260 577 283 346 51 759 
587 7 561 220 471 490 101 575 367 
588 7 580 352 394 695 303 404 564 
589 7 594 209 284 262 370 788 741 
590 6 486 168 441 427 10 607 
591 7 100 769 366 195 82 90 525 
592 7 351 654 572 184 89 543 198 
593 7 606 138 439 53 38 463 13 
594 7 589 788 209 545 284 325 262 
595 7 360 253 466 759 51 99 228 
596 7 93 717 455 632 418 156 464 
597 7 127 686 57 574 689 91 356 
598 7 407 327 560 749 255 317 528 
599 4 280 256 204 379 
600 7 463 53 133 138 272 642 439 
601 7 197 287 137 292 734 108 460 
602 7 162 509 702 537 746 277 433 
603 7 225 413 653 133 581 27 194 
604 7 304 718 733 763 651 92 710 
605 7 716 554 77 286 175 259 263 
606 7 439 593 138 38 13 53 443 
607 5 10 461 168 42 590 
608 6 704 459 787 615 40 70 
609 7 330 318 62 447 257 313 276 
610 7 338 315 379 683 130 216 393 
611 7 700 554 409 661 66 524 77 
612 7 527 557 489 323 784 236 515 
613 7 431 652 27 653 231 416 449 
614 7 257 512 446 179 650 468 609 
615 5 459 40 608 787 704 
616 7 139 228 219 759 70 595 253 
617 7 326 725 423 109 167 496 169 
618 7 511 536 560 731 212 265 781 
619 7 582 244 166 494 123 56 655 
620 7 420 519 692 585 132 46 161 
621 7 343 157 645 398 786 732 730 
622 7 88 135 283 152 51 577 99 
623 7 678 467 103 348 491 399 270 
624 7 641 649 539 746 143 537 277 
625 7 634 97 153 764 362 263 698 
626 7 217 721 663 234 9 365 737 
627 7 63 182 173 712 148 335 54 
628 7 110 279 483 329 435 561 450 
629 7 2 143 277 180 473 641 568 
630 7 64 782 636 697 548 532 298 
631 7 757 341 382 568 39 307 180 
632 7 717 93 455 596 302 635 789 
633 7 165 302 147 477 299 743 81 
634 7 97 153 625 764 362 698 735 
635 7 81 302 165 208 633 632 717 
636 6 548 630 782 64 615 697 
637 7 35 199 430 559 492 565 679 
638 5 771 559 430 199 492 
639 7 487 252 181 332 565 172 676 
640 7 432 783 239 153 312 369 97 
641 7 624 649 143 568 539 746 277 
642 7 231 117 431 502 133 85 613 
643 7 541 761 115 230 31 126 254 
644 7 245 468 72 475 49 73 349 
645 7 786 398 190 660 403 621 114 
646 7 734 287 108 269 601 701 460 
647 7 381 392 290 176 45 67 737 
648 7 299 17 743 682 477 147 41 
649 7 746 624 537 641 277 143 539 
650 7 71 512 179 257 369 694 312 
651 7 92 95 718 41 477 442 17 
652 7 189 215 416 499 613 84 470 
653 7 27 218 194 449 225 603 581 
654 7 198 184 351 592 89 543 572 
655 7 56 123 412 166 118 619 221 
656 7 105 411 281 319 744 314 24 
657 7 565 453 181 35 676 679 487 
658 7 183 710 757 763 55 382 631 
659 7 201 750 570 664 161 124 243 
660 7 94 190 398 645 403 159 786 
661 7 700 66 524 207 673 611 457 
662 6 754 461 492 199 559 430 
663 7 234 9 365 424 626 308 354 
664 7 161 570 750 659 585 243 201 
665 7 479 760 196 671 751 758 59 
666 7 395 429 378 673 321 405 44 
667 7 669 69 237 765 213 25 752 
668 7 498 18 773 422 195 767 462 
669 7 667 69 237 213 765 25 752 
670 7 113 8 713 566 722 567 22 
671 7 758 760 665 196 59 479 729 
672 7 297 374 552 579 251 212 756 
673 7 395 666 661 44 700 321 378 
674 7 752 534 237 69 21 669 667 
675 7 546 26 425 256 482 690 438 
676 7 164 181 639 487 551 86 453 
677 7 160 295 408 550 54 335 388 
678 7 467 491 623 103 742 342 530 
679 7 6 134 419 58 517 268 637 
680 7 709 533 715 396 204 481 130 
681 7 107 200 728 696 311 774 12 
682 7 299 147 648 743 17 477 41 
683 7 338 610 393 452 315 379 445 
684 7 343 730 157 104 480 273 125 
685 7 575 699 220 516 490 484 357 
686 7 127 574 91 597 57 111 356 
687 7 361 249 542 321 205 405 163 
688 7 403 776 12 190 711 748 94 
689 7 57 597 127 574 686 91 111 
690 7 425 256 26 280 204 715 675 
691 7 375 736 434 316 218 573 449 
692 7 132 519 620 576 420 579 46 
693 7 141 765 445 258 262 667 669 
694 7 312 71 328 650 432 313 512 
695 7 564 404 352 580 303 588 790 
696 7 107 200 12 681 728 774 311 
697 7 298 532 64 782 285 630 67 
698 7 735 362 764 328 153 97 625 
699 7 186 444 119 685 573 316 516 
700 7 661 66 524 611 457 207 409 
701 7 108 734 646 173 335 287 295 
702 7 509 602 433 162 473 277 537 
703 7 30 474 434 573 119 316 569 
704 6 608 459 787 615 40 548 
705 7 503 411 105 281 179 314 656 
706 7 371 203 501 171 390 261 22 
707 7 424 410 22 713 9 722 780 
708 7 174 212 781 265 618 39 560 
709 7 680 533 715 204 130 396 280 
710 7 763 733 183 55 658 382 718 
711 7 114 776 273 403 350 190 786 
712 7 182 54 335 408 627 295 63 
713 7 722 567 566 670 113 22 707 
714 7 534 115 643 129 761 541 21 
715 7 533 709 680 204 396 690 280 
716 7 605 554 77 286 175 611 259 
717 7 455 632 93 596 789 635 302 
718 7 604 304 651 733 92 763 95 
719 5 499 215 493 189 84 
720 7 282 229 198 654 184 89 351 
721 7 217 626 737 45 525 234 353 
722 7 567 713 566 670 707 113 22 
723 7 11 469 50 703 474 740 336 
724 7 334 417 12 125 350 696 107 
725 7 167 326 617 496 522 584 289 
726 7 727 547 52 160 54 408 337 
727 7 726 160 54 408 547 337 550 
728 7 200 311 774 681 107 696 226 
729 7 553 472 324 758 15 671 778 
730 7 157 480 343 684 104 266 621 
731 7 511 536 618 37 560 317 223 
732 7 96 397 333 621 458 398 98 
733 7 763 710 604 304 718 382 55 
734 7 646 287 108 601 701 269 460 
735 7 698 362 328 764 153 97 339 
736 7 416 449 470 375 691 218 569 
737 7 45 721 525 353 392 158 647 
738 7 177 410 780 293 391 86 551 
739 7 21 129 752 372 250 534 136 
740 7 336 32 50 383 216 320 742 
741 4 370 766 393 284 
742 7 530 467 678 320 300 336 491 
743 7 299 477 648 17 682 147 41 
744 7 24 300 521 202 320 142 530 
745 7 188 267 159 748 94 660 578 
746 7 537 649 162 576 277 602 624 
747 7 481 145 5 294 170 322 396 
748 7 94 578 660 190 688 403 745 
749 7 255 528 317 223 296 465 456 
750 7 243 664 659 507 570 201 161 
751 7 479 196 665 535 547 760 83 
752 7 674 21 372 739 136 667 669 
753 7 462 437 232 131 268 58 422 
754 6 662 461 492 559 199 430 
755 7 68 556 117 85 128 523 642 
756 7 251 46 297 519 91 574 57 
757 7 631 658 307 341 382 426 39 
758 7 671 15 760 729 665 472 196 
759 7 51 260 518 228 595 283 586 
760 7 665 196 479 671 758 59 751 
761 7 541 115 643 126 254 230 31 
762 7 349 510 73 72 468 446 644 
763 7 710 733 718 604 55 183 304 
764 7 362 625 97 634 698 153 735 
765 7 667 669 141 258 693 69 136 
766 4 741 370 393 284 
767 7 391 293 82 86 769 100 551 
768 7 270 389 305 150 348 399 623 
769 7 100 82 591 391 767 293 195 
770 7 500 193 185 261 309 171 505 
771 5 638 559 430 199 492 
772 7 785 344 7 394 378 429 588 
773 7 453 668 131 657 676 462 498 
774 7 311 728 200 226 681 107 696 
775 7 386 154 779 564 695 352 404 
776 7 711 114 350 403 273 190 688 
777 7 310 163 542 44 321 361 687 
778 7 324 472 553 729 170 191 305 
779 7 154 380 211 386 775 451 187 
780 7 410 738 9 177 293 707 391 
781 7 265 174 39 708 341 212 618 
782 6 532 697 64 630 548 636 
783 7 239 640 432 247 153 634 97 
784 7 515 489 206 377 421 527 323 
785 7 772 344 7 378 394 429 666 
786 7 645 398 190 403 114 660 621 
787 6 459 608 40 704 615 70 
788 7 325 402 594 545 589 384 227 
789 7 455 156 488 363 494 717 596 
790 7 65 303 404 564 4 695 441 
DEPOT_SECTION
   1
   -1
EOF
