NAME :  X-n895-kX-w89-c11.cctp
COMMENT : 	Adapted by Maziero, Usberti and Cavellucci from the Uchoa, Pecin, Pessoa, Poggi, Subramanian, and Vidal (2013)
TYPE :  CCTP
DIMENSION :    660
EDGE_WEIGHT_TYPE : 	EUC_2D	
CAPACITY : 	1816
VERTICES_WITHIN_COVERAGE :  11
VERTICES_WITH_DEMAND : 	89
NODE_COORD_SECTION
1 706 137
2 392 662
3 692 274
4 944 370
5 726 945
6 869 43
7 621 770
8 112 402
9 523 374
10 619 178
11 553 457
12 95 814
13 696 130
14 27 417
15 940 487
16 943 965
17 670 435
18 931 752
19 307 776
20 404 101
21 199 526
22 117 312
23 762 505
24 433 864
25 868 155
26 832 870
27 488 624
28 686 782
29 585 89
30 268 339
31 248 344
32 22 776
33 89 614
34 75 271
35 882 646
36 6 656
37 449 27
38 857 362
39 809 774
40 403 626
41 559 145
42 667 945
43 524 737
44 683 777
45 641 798
46 514 495
47 102 813
48 517 591
49 748 330
50 859 127
51 699 41
52 281 442
53 257 106
54 116 99
55 41 732
56 555 95
57 378 1
58 155 308
59 942 955
60 619 205
61 646 910
62 796 791
63 785 49
64 958 817
65 424 240
66 311 226
67 37 119
68 761 866
69 404 417
70 929 432
71 743 535
72 418 679
73 107 379
74 329 868
75 22 432
76 24 474
77 380 83
78 145 135
79 576 209
80 877 859
81 901 0
82 464 473
83 181 35
84 976 331
85 672 617
86 324 264
87 193 341
88 525 782
89 527 935
90 218 529
91 626 974
92 594 432
93 805 123
94 959 266
95 348 776
96 458 247
97 841 361
98 675 306
99 856 199
100 300 792
101 163 237
102 172 589
103 609 928
104 379 694
105 738 18
106 693 307
107 468 585
108 594 172
109 563 205
110 271 783
111 374 383
112 775 530
113 913 512
114 943 941
115 247 374
116 347 51
117 8 111
118 321 825
119 854 335
120 742 232
121 605 66
122 241 509
123 845 106
124 451 217
125 955 319
126 432 662
127 704 73
128 418 205
129 817 754
130 570 429
131 11 516
132 737 62
133 563 318
134 697 638
135 343 830
136 1 279
137 3 342
138 231 539
139 827 658
140 142 648
141 530 874
142 305 312
143 501 82
144 189 506
145 78 479
146 863 149
147 173 12
148 839 829
149 674 882
150 463 786
151 554 231
152 693 512
153 28 64
154 298 757
155 343 385
156 650 2
157 580 122
158 779 332
159 263 238
160 770 491
161 319 39
162 703 930
163 539 28
164 45 221
165 714 181
166 120 134
167 301 361
168 940 618
169 277 407
170 126 331
171 564 510
172 177 346
173 265 422
174 19 286
175 928 367
176 894 965
177 523 620
178 894 67
179 498 538
180 864 235
181 482 729
182 491 881
183 990 18
184 303 19
185 98 362
186 513 920
187 54 777
188 401 696
189 282 796
190 97 129
191 289 226
192 604 594
193 806 742
194 737 534
195 235 539
196 335 13
197 218 573
198 544 714
199 706 668
200 459 745
201 841 879
202 229 474
203 786 899
204 857 774
205 373 117
206 444 64
207 60 688
208 392 214
209 884 652
210 455 410
211 384 134
212 309 192
213 255 115
214 102 622
215 704 407
216 164 482
217 110 315
218 928 101
219 490 778
220 991 811
221 916 88
222 545 940
223 398 279
224 984 276
225 308 171
226 644 223
227 934 144
228 420 61
229 169 435
230 810 360
231 121 281
232 409 392
233 62 236
234 713 481
235 407 560
236 172 307
237 570 697
238 755 949
239 204 115
240 308 916
241 553 947
242 640 395
243 556 985
244 408 699
245 77 370
246 647 45
247 101 363
248 724 896
249 554 248
250 597 941
251 80 300
252 422 903
253 89 43
254 759 567
255 727 756
256 55 272
257 54 601
258 723 760
259 491 26
260 952 878
261 740 917
262 934 527
263 878 622
264 506 952
265 56 100
266 666 148
267 311 177
268 820 203
269 468 112
270 805 38
271 840 619
272 336 457
273 422 735
274 610 233
275 549 234
276 717 345
277 441 849
278 507 580
279 152 247
280 959 525
281 665 922
282 560 104
283 24 789
284 180 505
285 537 611
286 319 92
287 12 721
288 14 240
289 913 124
290 611 472
291 861 969
292 258 237
293 692 340
294 798 911
295 55 353
296 698 642
297 659 716
298 592 510
299 50 737
300 307 646
301 676 138
302 27 719
303 9 732
304 717 497
305 387 712
306 684 116
307 211 434
308 790 121
309 735 751
310 69 205
311 960 894
312 334 100
313 713 827
314 734 265
315 877 355
316 421 908
317 835 584
318 905 619
319 84 49
320 509 761
321 49 237
322 970 982
323 452 208
324 384 862
325 314 488
326 258 573
327 697 265
328 654 904
329 880 966
330 105 180
331 712 781
332 283 778
333 984 484
334 62 771
335 256 155
336 830 384
337 924 883
338 710 801
339 203 86
340 946 896
341 558 219
342 726 422
343 753 602
344 551 407
345 170 569
346 822 356
347 918 925
348 678 213
349 218 141
350 5 201
351 73 772
352 514 119
353 603 438
354 55 709
355 65 734
356 40 598
357 364 436
358 638 194
359 289 900
360 65 701
361 33 609
362 988 726
363 328 755
364 704 359
365 327 312
366 631 37
367 165 429
368 629 240
369 212 564
370 642 201
371 585 932
372 911 208
373 993 799
374 648 607
375 484 925
376 662 962
377 694 362
378 117 776
379 819 723
380 335 666
381 685 781
382 875 693
383 538 786
384 24 691
385 649 263
386 609 475
387 618 152
388 97 306
389 481 737
390 71 451
391 705 252
392 940 686
393 473 340
394 524 304
395 902 482
396 62 39
397 891 180
398 218 68
399 564 128
400 724 756
401 838 393
402 170 195
403 327 422
404 274 530
405 503 930
406 414 19
407 857 314
408 905 657
409 736 179
410 746 547
411 79 359
412 822 719
413 611 871
414 747 25
415 317 246
416 479 411
417 663 953
418 390 844
419 277 365
420 876 710
421 48 695
422 602 104
423 25 664
424 480 25
425 113 381
426 884 645
427 998 717
428 366 683
429 71 282
430 608 939
431 463 27
432 857 993
433 155 642
434 549 404
435 577 32
436 251 66
437 780 353
438 925 23
439 229 298
440 467 518
441 629 690
442 609 706
443 285 58
444 151 320
445 405 567
446 266 302
447 737 994
448 979 446
449 709 111
450 773 865
451 98 770
452 638 680
453 122 275
454 818 874
455 581 90
456 675 767
457 233 115
458 523 829
459 258 116
460 540 968
461 530 493
462 504 936
463 919 829
464 456 683
465 114 174
466 869 350
467 648 215
468 72 7
469 14 55
470 852 391
471 925 58
472 896 356
473 414 107
474 319 3
475 428 407
476 649 573
477 287 377
478 345 908
479 260 775
480 395 17
481 515 475
482 249 19
483 110 785
484 245 598
485 767 266
486 689 850
487 524 721
488 408 696
489 559 740
490 813 23
491 113 360
492 5 103
493 24 381
494 564 946
495 948 682
496 439 83
497 120 789
498 780 460
499 291 865
500 884 797
501 580 354
502 39 789
503 105 650
504 974 818
505 278 318
506 277 353
507 705 598
508 10 683
509 709 481
510 554 851
511 349 880
512 654 921
513 287 871
514 507 121
515 651 137
516 885 710
517 108 383
518 796 535
519 680 848
520 741 55
521 567 356
522 948 484
523 898 609
524 333 274
525 48 119
526 755 16
527 680 28
528 905 694
529 516 164
530 370 139
531 147 867
532 413 855
533 725 215
534 382 152
535 465 342
536 207 306
537 362 832
538 450 698
539 76 260
540 689 652
541 456 653
542 166 505
543 297 183
544 674 941
545 360 125
546 641 61
547 806 739
548 879 332
549 328 738
550 60 626
551 771 498
552 773 764
553 246 489
554 44 716
555 125 308
556 465 68
557 690 839
558 703 363
559 61 613
560 505 443
561 591 180
562 298 472
563 808 917
564 80 442
565 534 945
566 971 304
567 508 967
568 318 272
569 826 605
570 884 385
571 664 720
572 527 864
573 516 762
574 853 785
575 686 79
576 990 418
577 775 966
578 52 500
579 972 304
580 504 998
581 580 766
582 639 292
583 688 616
584 926 405
585 683 889
586 590 217
587 80 441
588 949 339
589 366 878
590 189 316
591 213 379
592 489 309
593 435 486
594 484 727
595 231 474
596 832 385
597 900 15
598 127 103
599 176 136
600 160 67
601 346 693
602 584 219
603 495 809
604 383 299
605 947 391
606 705 505
607 822 909
608 976 477
609 799 545
610 610 193
611 46 858
612 752 779
613 505 89
614 483 553
615 525 251
616 585 737
617 553 402
618 300 459
619 867 678
620 77 562
621 492 616
622 690 820
623 310 386
624 956 549
625 803 123
626 354 770
627 134 392
628 6 687
629 8 147
630 859 27
631 553 65
632 695 997
633 407 480
634 399 411
635 510 499
636 608 240
637 906 910
638 900 358
639 466 485
640 763 376
641 950 497
642 161 440
643 693 594
644 768 305
645 154 151
646 148 376
647 474 526
648 265 553
649 417 672
650 781 526
651 11 580
652 128 92
653 669 575
654 843 769
655 740 767
656 298 862
657 966 953
658 37 837
659 711 961
660 534 28
DEMAND_SECTION
2 67
3 86
4 82
5 99
6 54
7 52
8 54
9 71
10 70
11 61
12 74
13 91
14 97
15 92
16 63
17 84
18 90
19 53
20 66
21 79
22 57
23 53
24 72
25 58
26 94
27 86
28 64
29 74
30 82
31 78
32 77
33 78
34 58
35 51
36 64
37 61
38 87
39 92
40 80
41 62
42 97
43 88
44 78
45 78
46 86
47 75
48 62
49 96
50 82
51 50
52 61
53 86
54 67
55 92
56 57
57 51
58 70
59 93
60 83
61 99
62 64
63 62
64 78
65 64
66 81
67 85
68 56
69 56
70 87
71 91
72 92
73 58
74 68
75 93
76 58
77 98
78 87
79 85
80 94
81 71
82 93
83 50
84 60
85 90
86 95
87 87
88 85
89 79
90 54
COVERAGE_SECTION
2 11 649 72 428 104 188 40 488 126 244 305 601 
3 11 327 391 106 98 314 385 582 348 120 293 533 
4 11 175 605 588 584 638 84 472 125 570 70 576 
5 11 659 162 238 261 248 447 544 577 42 632 417 
6 11 630 178 597 81 471 438 490 270 221 123 218 
7 11 45 581 616 456 44 381 442 28 297 571 489 
8 11 517 425 73 627 247 185 491 646 245 587 564 
9 11 434 617 344 521 416 393 501 535 133 394 560 
10 11 610 358 108 387 60 561 370 467 586 226 515 
11 11 130 481 461 92 344 560 353 434 46 171 617 
12 11 47 483 497 378 451 351 334 187 502 658 611 
13 11 306 301 449 266 515 575 165 127 409 132 387 
14 11 75 493 390 76 587 564 245 295 411 137 145 
15 11 522 641 113 608 395 262 280 333 70 448 624 
16 11 59 114 657 322 347 176 329 637 340 311 291 
17 8 215 242 342 509 234 353 290 386 
18 11 516 362 528 500 392 420 64 495 427 204 373 
19 11 100 154 332 363 189 110 95 549 479 626 118 
20 10 473 77 205 211 496 228 545 530 206 534 
21 11 90 144 284 138 195 542 369 122 197 345 216 
22 11 217 555 170 388 231 444 453 58 251 491 185 
23 10 551 160 112 650 71 194 410 518 304 498 
24 7 277 532 252 316 418 324 182 
25 11 146 50 397 99 123 289 227 268 372 93 625 
26 10 201 454 607 148 80 294 563 203 450 68 
27 10 621 177 541 48 107 278 285 464 126 614 
28 11 381 44 456 331 338 622 258 400 45 255 313 
29 11 455 422 282 121 56 157 631 399 435 41 546 
30 10 506 31 505 419 446 167 115 477 142 439 
31 11 30 115 506 419 505 446 591 439 477 87 167 
32 11 283 502 187 334 303 55 299 351 287 302 355 
33 10 214 559 550 257 503 356 620 361 140 433 
34 11 539 429 256 251 233 388 321 231 453 217 164 
35 11 426 209 263 408 318 619 523 382 271 528 139 
36 11 423 508 628 384 361 421 550 207 287 302 356 
37 11 431 424 406 206 259 556 228 480 496 57 143 
38 11 97 466 315 119 470 596 336 570 346 401 548 
39 10 62 129 193 654 547 552 574 204 379 412 
40 11 2 126 649 72 445 541 235 428 188 488 104 
41 11 399 157 282 108 529 561 56 352 514 387 422 
42 11 544 417 376 281 512 162 61 328 659 91 585 
43 11 487 573 320 198 489 594 181 389 88 383 219 
44 11 381 28 456 331 338 258 622 400 45 255 309 
45 11 7 456 44 381 28 622 519 557 338 581 486 
46 11 635 461 481 179 639 647 171 440 560 11 82 
47 11 12 483 497 378 451 351 334 187 502 658 531 
48 9 278 285 177 621 27 107 614 179 647 
49 10 158 644 276 437 640 364 558 293 106 377 
50 11 146 123 25 93 289 625 397 178 221 308 99 
51 11 527 127 575 132 520 105 414 246 526 546 156 
52 11 618 173 562 169 403 272 325 553 595 202 623 
53 11 213 459 457 436 335 349 239 398 443 339 286 
54 11 598 652 166 190 78 600 319 265 253 645 599 
55 11 299 554 302 355 354 287 303 421 360 334 384 
56 11 282 455 631 29 399 157 352 422 41 613 514 
57 10 480 406 196 116 474 161 228 37 184 77 
58 11 444 236 555 590 170 22 231 172 217 453 87 
59 11 16 114 657 347 322 176 637 340 329 311 337 
60 11 610 358 370 10 274 226 467 586 368 636 561 
61 11 328 512 281 149 42 103 544 585 417 430 413 
62 11 39 552 129 612 193 654 547 148 574 655 204 
63 11 270 490 520 414 526 132 105 308 625 93 630 
64 11 504 220 373 463 260 18 337 311 500 340 80 
65 7 96 124 128 208 323 223 604 
66 11 415 191 212 86 543 568 159 267 524 292 225 
67 10 525 265 117 492 629 153 190 469 54 166 
68 11 450 203 248 261 294 454 313 563 26 486 607 
69 9 634 232 475 357 111 210 633 155 416 
70 11 584 605 448 522 15 395 576 4 175 570 608 
71 11 194 410 112 23 254 650 304 551 606 160 518 
72 11 649 488 126 244 188 2 538 464 104 305 541 
73 11 517 425 247 185 491 8 627 245 411 646 170 
74 9 511 656 499 589 135 513 478 118 537 
75 11 14 76 493 390 564 587 145 578 245 131 295 
76 8 578 75 131 390 145 14 564 587 
77 11 20 205 473 116 228 545 312 211 530 496 286 
78 11 645 166 599 598 54 652 190 465 330 239 402 
79 11 602 109 586 341 151 561 275 610 108 274 60 
80 11 201 26 148 463 337 637 454 500 607 260 340 
81 9 597 438 630 6 471 178 221 183 490 
82 10 639 593 440 481 560 635 647 46 633 210 
83 11 147 600 398 339 482 436 652 239 598 54 253 
84 11 125 566 579 588 4 224 175 94 605 638 472 
85 10 583 374 643 134 296 507 540 653 476 199 
86 10 568 524 415 66 365 142 191 159 446 604 
87 11 172 590 536 236 591 444 58 31 439 646 115 
88 11 383 573 320 219 603 43 458 489 581 487 150 
89 11 565 222 186 462 405 264 241 460 567 494 375 
90 11 138 21 195 122 369 144 197 284 553 648 202 
91 9 376 430 417 250 103 42 544 371 512 
92 10 353 130 290 386 11 344 617 434 242 17 
93 9 625 308 123 50 146 25 63 268 270 
94 7 224 566 579 125 84 588 372 
95 7 626 363 19 549 100 154 135 
96 7 124 65 323 128 615 223 592 
97 11 38 346 336 596 119 466 230 401 470 315 548 
98 9 106 3 293 582 327 385 276 377 364 
99 7 268 180 397 25 146 372 50 
100 9 19 189 332 110 154 118 479 363 95 
101 6 279 402 453 231 58 236 
102 9 345 369 197 433 140 21 484 90 138 
103 10 430 250 371 61 512 494 91 328 281 413 
104 9 428 305 188 244 488 601 2 72 649 
105 11 414 526 520 132 51 63 527 127 270 490 575 
106 10 98 3 293 327 276 364 377 391 582 558 
107 8 614 278 621 27 48 179 647 177 
108 11 561 10 610 387 60 79 41 109 586 602 358 
109 11 79 341 602 151 586 275 561 249 108 610 274 
110 6 332 479 189 100 19 154 
111 8 155 232 634 69 357 475 403 623 
112 10 650 518 23 609 71 551 410 194 160 254 
113 9 262 395 15 641 522 280 624 608 333 
114 11 59 16 657 347 340 637 322 311 176 337 260 
115 11 31 419 591 506 477 30 169 173 167 87 505 
116 10 161 196 77 286 312 184 474 57 480 443 
117 10 492 67 629 525 265 153 469 350 396 190 
118 8 135 100 537 74 656 189 499 19 
119 11 407 466 548 38 97 315 346 472 230 638 336 
120 8 533 314 391 485 409 327 165 3 
121 11 29 455 546 422 366 435 246 631 56 282 157 
122 11 553 90 195 138 595 202 404 21 648 144 284 
123 11 50 93 625 146 25 308 178 6 289 221 270 
124 5 323 96 65 128 208 
125 11 588 566 579 84 4 224 94 175 638 472 605 
126 11 649 72 541 464 2 538 488 244 40 188 104 
127 11 575 51 132 449 520 306 527 13 246 414 546 
128 7 208 323 124 65 96 534 223 
129 10 193 547 39 654 379 412 62 204 552 574 
130 11 92 344 617 11 434 353 290 386 560 9 481 
131 5 76 578 651 145 620 
132 11 520 127 414 51 105 526 63 575 449 527 270 
133 5 521 501 394 9 249 
134 9 296 540 583 199 85 507 643 374 343 
135 6 537 118 74 418 511 324 
136 8 174 288 256 137 321 429 164 34 
137 8 493 295 174 136 411 14 245 256 
138 11 195 90 369 122 21 197 648 326 404 553 144 
139 8 271 619 569 35 209 426 382 412 
140 5 433 503 214 33 102 
141 10 572 510 182 458 186 89 405 462 222 375 
142 9 365 505 446 568 30 524 167 506 86 
143 9 613 352 514 556 269 631 56 259 206 
144 9 284 21 542 216 90 202 122 138 595 
145 5 390 578 564 587 76 
146 11 25 50 397 123 99 289 93 625 268 227 372 
147 10 83 600 398 482 339 253 652 436 319 468 
148 11 26 574 80 201 454 500 62 204 654 39 450 
149 11 585 328 486 519 61 281 512 557 248 162 544 
150 9 219 603 200 320 389 573 181 88 594 
151 9 275 341 249 109 79 602 615 586 636 
152 6 606 304 509 234 194 71 
153 8 469 396 492 265 117 67 319 525 
154 10 19 332 363 100 549 110 189 479 95 626 
155 9 111 623 403 167 357 477 634 232 69 
156 11 366 527 246 546 51 121 435 575 105 127 414 
157 11 399 282 422 41 455 29 56 387 108 561 121 
158 9 437 644 49 230 640 346 276 485 97 
159 5 292 191 66 415 446 
160 5 551 23 498 650 112 
161 9 184 116 196 474 443 286 312 57 436 
162 11 5 544 659 42 261 281 248 417 585 512 376 
163 11 660 435 631 259 424 143 56 613 455 29 121 
164 10 321 233 310 288 350 539 256 34 429 174 
165 10 409 533 348 13 301 120 266 449 306 391 
166 11 190 78 598 54 645 465 652 330 599 265 525 
167 10 477 419 506 623 30 155 142 505 169 365 
168 6 318 523 408 263 426 35 
169 11 173 477 52 623 419 115 167 403 506 618 562 
170 11 22 217 555 444 491 58 388 247 185 231 646 
171 8 298 461 46 11 635 386 290 481 
172 11 87 590 444 236 646 58 591 536 170 627 555 
173 11 169 52 477 115 618 307 419 623 562 403 595 
174 9 136 256 288 429 321 34 137 251 539 
175 11 4 638 605 472 588 584 570 315 125 84 548 
176 10 329 291 432 347 16 59 114 637 657 322 
177 10 285 48 621 27 278 107 541 614 192 179 
178 11 221 471 6 218 597 630 438 289 123 81 50 
179 9 614 647 440 635 278 46 461 48 107 
180 6 99 268 372 397 407 25 
181 11 594 389 200 320 43 487 538 573 219 464 150 
182 9 141 572 186 375 405 462 277 24 458 
183 7 438 471 597 81 221 218 178 
184 9 474 161 196 443 116 482 436 286 57 
185 10 247 491 73 411 245 517 425 8 170 295 
186 9 405 462 89 375 264 565 222 182 567 
187 11 334 502 351 32 283 299 355 451 55 12 483 
188 10 488 244 305 104 72 649 2 428 273 126 
189 7 110 100 332 479 19 154 118 
190 11 166 54 598 78 465 652 265 525 330 67 645 
191 8 66 159 292 415 212 543 86 267 
192 5 374 476 653 285 85 
193 8 547 129 379 412 39 552 654 62 
194 10 71 410 23 112 254 304 606 650 152 551 
195 11 138 90 122 648 369 21 197 404 326 553 144 
196 9 474 161 184 116 57 480 443 406 286 
197 11 369 138 484 195 326 90 345 102 21 648 122 
198 11 487 43 489 237 616 573 320 594 581 181 442 
199 8 540 296 134 583 85 297 571 452 
200 11 389 181 594 273 150 219 538 320 573 464 43 
201 10 26 454 607 80 148 563 294 203 450 637 
202 11 595 553 122 307 144 90 284 21 52 173 138 
203 10 294 563 450 607 68 454 261 26 201 238 
204 10 574 654 500 129 39 148 193 547 62 379 
205 9 545 211 530 20 77 534 473 312 286 
206 11 496 556 228 37 431 473 424 20 269 406 143 
207 11 360 421 354 554 384 423 302 355 55 299 508 
208 7 128 65 124 323 534 223 96 
209 11 35 426 408 263 619 318 382 523 528 271 139 
210 11 416 475 232 69 634 560 82 535 393 639 9 
211 8 530 534 205 545 20 473 77 312 
212 9 267 543 225 66 191 415 159 335 292 
213 10 459 53 457 335 349 436 239 339 398 443 
214 10 33 503 550 559 140 257 433 620 356 361 
215 6 342 17 558 377 364 276 
216 7 542 284 144 642 229 367 21 
217 11 22 388 555 170 251 231 444 453 491 58 185 
218 6 221 289 227 471 178 50 
219 11 320 150 573 603 88 389 200 383 181 594 43 
220 11 373 504 64 463 260 18 362 311 427 340 337 
221 9 218 178 471 289 227 6 438 50 123 
222 10 241 565 89 494 460 186 264 371 462 405 
223 7 604 65 208 524 96 86 128 
224 8 94 579 566 125 84 588 372 4 
225 7 267 543 212 335 66 191 545 
226 11 467 370 368 358 60 274 348 385 636 610 10 
227 5 289 218 397 221 25 
228 11 206 496 406 20 37 77 473 556 480 431 269 
229 9 367 642 307 216 627 646 8 542 284 
230 9 346 97 336 437 596 158 401 38 640 
231 11 453 555 22 388 217 58 251 279 34 444 170 
232 8 634 475 69 111 210 357 155 416 
233 10 321 164 539 310 34 256 429 288 174 251 
234 6 509 304 606 152 23 160 
235 3 445 40 107 
236 11 58 590 444 536 172 87 555 170 22 231 439 
237 10 198 442 616 489 487 441 43 452 581 573 
238 10 577 5 261 659 447 162 294 203 248 563 
239 11 339 457 349 599 398 213 53 459 78 645 600 
240 4 359 478 513 74 
241 9 222 494 565 460 89 371 243 250 264 
242 7 17 353 92 377 215 558 364 
243 8 460 241 494 222 565 567 580 89 
244 10 488 188 72 305 649 104 273 2 538 126 
245 9 411 185 247 295 73 517 491 425 8 
246 11 546 366 527 156 121 51 575 127 435 422 29 
247 11 185 491 73 517 411 425 245 8 170 627 295 
248 11 261 162 585 68 5 149 450 486 238 203 281 
249 8 275 151 341 615 602 109 79 586 
250 9 430 371 103 494 91 241 222 61 243 
251 9 388 429 34 217 256 22 539 231 555 
252 3 316 24 532 
253 9 319 396 468 54 652 153 265 598 600 
254 10 410 71 343 112 194 609 650 518 23 507 
255 10 400 258 309 655 331 612 552 338 28 44 
256 10 429 34 539 321 233 251 174 164 288 136 
257 8 356 559 361 550 33 620 651 214 
258 10 400 255 309 655 331 612 28 44 338 381 
259 11 424 431 37 660 163 556 143 206 613 631 406 
260 11 311 340 337 637 347 463 64 114 504 657 80 
261 11 248 5 238 162 203 659 68 294 577 450 585 
262 9 280 113 624 641 15 522 395 608 333 
263 11 35 426 523 318 209 271 408 569 317 619 139 
264 9 567 462 405 89 565 186 375 460 222 
265 10 525 67 153 117 190 492 319 54 396 469 
266 11 301 515 13 306 387 358 10 449 165 370 348 
267 6 225 212 543 66 191 335 
268 4 99 180 25 146 
269 9 514 496 556 613 143 352 206 473 20 
270 11 490 63 526 630 414 6 520 105 132 123 308 
271 10 569 317 263 139 35 426 209 523 318 619 
272 6 357 403 618 325 562 52 
273 10 200 244 488 305 188 538 72 104 389 181 
274 10 636 368 586 60 602 226 610 79 467 370 
275 8 151 249 341 615 109 79 602 586 
276 8 364 558 293 377 49 106 640 98 
277 7 24 532 418 252 324 182 316 
278 9 48 614 107 621 177 179 285 27 647 
279 7 101 453 231 402 58 236 555 
280 8 624 262 641 15 522 113 333 608 
281 11 512 328 544 61 42 417 585 162 376 149 103 
282 11 56 399 455 157 29 631 41 422 352 514 613 
283 11 32 502 187 334 658 351 299 55 303 287 355 
284 7 144 542 21 216 90 202 595 
285 9 177 48 278 621 27 192 107 614 179 
286 8 312 443 116 161 545 205 77 53 
287 11 303 302 55 384 554 628 508 299 421 354 355 
288 10 321 164 350 136 174 233 256 310 539 34 
289 8 218 227 221 50 25 146 178 397 
290 7 386 353 298 92 130 11 171 
291 9 329 432 176 347 607 563 637 16 59 
292 4 159 191 66 415 
293 9 364 377 276 558 106 98 49 3 215 
294 10 563 203 607 454 450 26 201 238 68 261 
295 8 411 245 493 185 247 137 73 491 
296 9 134 540 199 583 85 507 643 374 343 
297 10 571 441 452 442 456 7 44 199 381 28 
298 5 171 386 290 461 11 
299 11 55 355 554 354 302 334 360 187 287 303 351 
300 5 380 601 428 484 2 
301 11 266 13 306 515 449 165 387 575 358 10 127 
302 11 287 554 55 303 384 299 354 421 628 508 355 
303 11 287 302 55 554 299 384 628 32 508 354 421 
304 9 606 234 509 152 194 23 71 160 551 
305 8 104 188 244 488 428 273 72 601 
306 11 13 301 449 266 575 515 127 546 165 387 51 
307 11 229 202 595 367 642 173 591 553 216 52 115 
308 10 625 93 123 50 63 146 132 409 449 520 
309 9 255 400 258 655 612 331 552 338 28 
310 10 164 233 321 330 465 539 350 288 34 256 
311 11 340 260 337 114 347 637 657 59 16 64 463 
312 8 286 545 205 77 116 530 211 161 
313 11 622 338 557 486 519 331 28 381 44 68 612 
314 9 391 485 120 327 3 533 644 106 49 
315 11 466 472 38 548 638 119 570 97 470 407 175 
316 3 252 24 532 
317 10 569 271 609 263 518 523 139 35 254 318 
318 8 523 263 426 35 168 408 209 271 
319 9 253 396 468 153 265 54 652 598 469 
320 11 573 219 88 43 389 383 181 594 487 603 150 
321 10 233 164 288 539 256 310 34 429 174 350 
322 11 657 16 59 114 347 176 311 340 329 637 260 
323 5 124 128 96 65 208 
324 8 418 589 532 537 511 24 135 74 
325 6 562 618 272 52 404 403 
326 9 648 484 197 195 138 404 369 90 122 
327 11 3 391 314 106 98 385 348 120 533 582 226 
328 11 61 512 281 149 585 544 42 417 103 413 162 
329 9 176 291 432 347 637 16 59 114 607 
330 10 465 310 166 190 645 78 402 233 164 321 
331 11 338 258 28 381 400 44 255 655 309 456 612 
332 8 110 189 100 479 19 154 363 118 
333 11 608 522 641 448 15 280 262 576 624 70 113 
334 11 187 351 502 299 451 355 32 283 55 483 12 
335 8 459 213 349 457 53 543 225 267 
336 8 596 401 470 97 346 230 38 466 
337 11 340 260 637 311 347 80 463 114 59 64 504 
338 11 331 313 622 28 381 44 258 557 655 400 612 
339 11 398 239 457 600 436 83 349 599 53 213 459 
340 11 311 260 337 347 637 114 59 657 16 463 80 
341 11 151 109 275 79 602 249 586 615 561 274 636 
342 5 215 17 640 234 509 
343 8 254 507 410 643 583 134 71 296 
344 10 434 617 130 9 11 92 521 560 501 353 
345 9 102 369 197 21 90 542 284 144 138 
346 11 230 97 336 596 38 119 401 437 470 466 158 
347 11 637 114 59 340 337 16 176 311 329 657 260 
348 11 467 226 370 358 391 533 165 327 368 385 60 
349 9 239 457 335 599 213 459 53 339 645 
350 10 288 164 629 321 310 233 136 174 256 67 
351 11 334 187 451 502 355 483 299 378 12 47 497 
352 9 514 613 143 529 269 56 282 399 41 
353 10 92 130 290 386 11 242 344 617 434 17 
354 11 360 554 421 207 55 355 299 302 384 287 303 
355 11 299 55 354 554 360 334 351 302 421 187 207 
356 8 361 257 559 550 651 33 620 214 
357 8 272 403 634 69 111 155 633 232 
358 11 370 60 467 10 610 226 348 368 387 274 108 
359 5 240 513 499 656 74 
360 10 354 207 421 554 355 55 299 302 384 423 
361 8 356 257 559 550 651 36 33 423 
362 10 427 495 392 18 373 220 528 504 64 516 
363 7 549 95 19 154 626 100 332 
364 8 558 377 276 293 215 49 106 98 
365 9 142 524 568 86 505 167 604 446 30 
366 11 246 546 121 156 527 435 51 29 575 422 455 
367 9 229 642 307 627 216 646 8 591 425 
368 10 274 636 226 385 467 60 370 586 358 602 
369 11 197 138 195 90 21 345 102 326 484 648 122 
370 11 358 467 226 60 10 610 348 368 274 636 586 
371 10 250 103 430 494 241 222 565 89 460 91 
372 7 397 180 99 25 227 94 146 
373 11 220 504 64 362 18 463 427 260 311 340 337 
374 10 85 476 653 583 192 643 134 507 296 540 
375 5 405 462 186 264 89 
376 11 417 42 544 91 281 512 632 659 162 61 328 
377 8 558 364 293 276 215 106 98 49 
378 7 483 497 451 47 12 351 334 
379 9 412 547 193 129 39 654 420 552 204 
380 6 601 300 428 104 2 305 
381 11 28 44 456 331 338 622 258 400 45 255 313 
382 9 420 619 516 528 209 408 35 426 139 
383 11 88 573 320 458 581 219 603 43 489 487 510 
384 11 508 628 421 423 302 287 554 207 354 36 360 
385 10 368 582 226 3 636 327 467 274 98 391 
386 7 290 353 298 92 171 11 130 
387 11 10 108 515 561 610 358 157 266 422 60 370 
388 10 217 251 22 555 231 429 170 453 34 539 
389 11 181 594 200 320 219 43 573 487 538 150 273 
390 8 564 587 145 76 75 578 14 8 
391 11 327 3 314 120 533 348 106 385 98 485 226 
392 10 495 528 408 516 362 382 209 427 18 168 
393 7 535 592 9 394 416 210 475 
394 7 592 133 615 393 249 521 9 
395 8 113 15 522 641 262 70 280 608 
396 8 319 253 468 153 469 265 54 525 
397 9 25 372 99 146 227 289 180 50 268 
398 11 339 436 239 457 83 53 482 600 213 459 443 
399 11 157 41 282 56 455 29 422 352 108 514 387 
400 10 255 258 309 655 331 612 28 44 381 338 
401 8 596 336 470 97 38 346 230 570 
402 6 101 645 279 599 465 78 
403 11 272 155 357 623 618 52 169 562 477 111 173 
404 9 648 122 195 138 326 553 90 325 562 
405 8 462 186 375 264 89 565 567 222 
406 11 480 37 57 228 431 206 424 496 556 77 116 
407 9 119 548 466 315 38 97 346 472 638 
408 10 209 426 35 528 318 619 263 392 382 523 
409 9 165 533 120 13 348 301 449 266 308 
410 10 71 194 254 112 650 23 518 609 343 551 
411 9 245 185 247 295 73 491 517 425 8 
412 9 379 547 193 129 654 420 39 382 139 
413 11 61 328 103 510 149 371 512 430 250 519 281 
414 11 105 526 520 132 63 51 270 127 490 527 575 
415 10 86 66 568 524 191 159 212 292 543 142 
416 11 210 560 475 9 82 434 535 393 344 232 481 
417 11 42 376 544 281 512 91 61 162 659 328 632 
418 6 324 532 537 589 24 135 
419 10 506 477 167 30 115 31 623 169 505 173 
420 9 516 382 528 619 412 379 209 408 35 
421 11 207 354 360 554 384 302 55 423 508 299 355 
422 11 29 455 157 121 282 399 56 387 546 41 515 
423 11 36 508 384 628 421 207 550 354 360 302 554 
424 11 259 431 37 556 206 660 163 143 406 613 228 
425 11 517 73 8 491 247 185 627 646 245 411 170 
426 11 35 209 263 408 318 619 523 382 271 528 139 
427 10 362 495 392 18 373 220 528 504 64 408 
428 9 104 601 2 380 305 188 488 244 72 
429 10 34 256 251 539 388 233 231 321 217 453 
430 10 103 250 371 91 494 61 512 241 417 328 
431 11 37 424 259 556 206 406 228 496 143 480 660 
432 9 291 329 176 577 16 563 347 607 59 
433 6 140 503 102 214 33 345 
434 10 344 617 130 9 521 11 92 501 560 353 
435 11 163 631 660 121 366 29 455 56 546 246 282 
436 9 398 443 53 482 213 459 339 457 239 
437 8 158 640 230 49 346 644 336 596 
438 8 597 81 471 178 6 183 221 630 
439 8 536 446 590 31 505 87 30 236 
440 8 647 639 179 614 82 593 635 46 
441 9 452 442 297 571 237 616 540 7 199 
442 10 441 452 616 237 297 571 489 7 198 581 
443 9 436 161 184 286 482 53 116 213 459 
444 11 58 236 170 555 22 172 590 217 87 231 453 
445 3 235 40 107 
446 9 505 30 439 142 31 506 536 568 365 
447 10 632 659 577 238 5 162 261 376 544 42 
448 11 576 608 333 522 70 15 641 605 584 280 4 
449 11 13 306 127 575 301 132 266 515 520 165 51 
450 11 68 203 454 294 248 26 261 563 607 201 313 
451 10 483 378 351 497 334 47 12 187 355 299 
452 9 441 442 297 571 540 199 237 296 85 
453 11 231 555 22 388 279 217 34 58 539 251 429 
454 10 26 201 607 203 294 563 450 148 68 80 
455 11 29 282 422 56 157 121 631 399 435 41 546 
456 11 44 381 28 331 45 571 258 338 400 255 297 
457 10 213 459 53 239 349 339 335 398 436 599 
458 11 603 572 510 141 383 88 182 219 573 320 150 
459 10 213 53 457 335 349 436 239 398 339 443 
460 10 243 565 241 222 567 494 89 264 580 462 
461 11 46 635 481 171 11 179 560 298 639 647 440 
462 8 405 264 186 89 375 565 567 222 
463 11 64 500 80 337 504 260 340 220 311 18 574 
464 11 538 541 126 72 649 488 244 594 181 188 389 
465 10 330 166 645 190 78 310 402 598 599 54 
466 11 315 38 119 548 472 97 638 407 570 470 346 
467 11 226 370 358 348 60 368 274 610 10 636 385 
468 8 396 253 319 153 469 265 147 54 
469 8 153 492 396 117 265 67 319 525 
470 11 401 596 336 38 97 570 315 466 346 230 119 
471 8 221 178 438 218 597 6 81 289 
472 11 638 315 466 548 570 175 38 119 4 97 470 
473 10 20 496 211 77 205 228 206 269 530 534 
474 9 196 184 161 116 57 443 482 480 286 
475 10 232 69 210 634 416 111 357 82 535 633 
476 5 653 374 643 85 192 
477 10 419 167 623 506 169 115 30 173 31 155 
478 6 511 589 240 74 359 324 
479 6 110 332 189 154 100 19 
480 11 406 57 228 37 116 196 77 206 431 474 161 
481 11 46 461 635 560 11 639 82 171 440 179 647 
482 9 436 443 184 398 83 474 161 147 339 
483 9 378 497 451 47 12 351 334 187 355 
484 7 326 197 369 648 195 138 90 
485 8 314 644 120 391 533 49 158 327 
486 11 519 557 622 313 149 585 338 248 328 28 381 
487 11 43 198 489 594 573 181 320 389 237 88 616 
488 11 244 188 72 305 649 104 2 273 126 538 428 
489 11 616 198 581 43 487 237 573 383 88 320 442 
490 11 270 63 630 526 6 414 105 520 132 597 123 
491 11 247 185 73 425 517 170 411 245 627 646 8 
492 9 117 67 629 153 525 469 265 396 190 
493 8 14 295 137 75 245 411 185 247 
494 9 241 222 371 565 250 460 89 243 430 
495 10 392 528 408 362 427 168 516 209 18 382 
496 9 206 228 556 473 20 269 37 77 431 
497 8 483 378 451 47 12 351 334 187 
498 3 160 551 23 
499 5 513 656 359 74 118 
500 10 574 204 463 654 148 80 18 64 39 129 
501 7 521 133 617 434 9 344 242 
502 11 283 187 32 334 351 658 299 55 12 355 451 
503 8 214 140 33 433 550 559 207 360 
504 11 64 220 373 463 260 311 18 337 340 500 362 
505 9 446 30 142 506 31 419 167 365 439 
506 10 419 30 167 477 31 505 115 623 142 446 
507 9 643 583 85 134 653 296 343 540 374 
508 11 628 384 423 36 287 302 421 554 303 207 354 
509 6 234 304 606 152 23 17 
510 11 572 141 458 413 383 182 603 88 186 371 89 
511 8 589 74 478 324 135 537 656 240 
512 11 281 61 328 42 544 417 376 585 149 103 430 
513 5 499 656 359 74 240 
514 9 352 613 143 269 529 56 282 41 399 
515 11 266 301 387 306 13 10 358 422 449 370 108 
516 9 420 382 528 619 408 209 392 18 35 
517 11 73 425 8 247 185 491 627 245 411 646 170 
518 7 609 650 112 23 551 254 160 
519 11 486 557 622 149 313 585 338 328 45 248 28 
520 11 132 414 105 127 526 51 63 575 449 270 527 
521 7 501 133 9 617 434 344 394 
522 11 15 641 608 333 280 113 262 395 448 70 624 
523 9 318 263 426 35 168 209 408 271 317 
524 9 86 568 415 365 142 66 604 191 223 
525 10 67 265 117 492 629 190 153 54 469 166 
526 11 414 105 520 63 132 270 490 51 127 527 575 
527 11 51 246 156 366 127 546 575 105 132 414 520 
528 10 516 382 420 392 408 619 495 209 35 426 
529 7 514 352 41 399 109 341 269 
530 8 211 545 534 205 20 312 473 77 
531 2 47 12 
532 8 24 418 277 324 252 589 316 537 
533 9 120 165 409 391 348 314 327 485 3 
534 7 211 530 545 205 473 20 208 
535 7 393 592 9 210 394 416 232 
536 9 590 439 236 87 172 58 31 444 446 
537 6 135 418 324 118 589 74 
538 11 464 72 126 244 488 649 181 541 594 273 200 
539 11 34 429 256 233 321 251 453 164 231 388 310 
540 9 296 134 199 583 85 507 452 643 374 
541 11 126 464 27 649 538 72 621 40 488 2 244 
542 5 284 144 216 21 90 
543 9 212 267 225 191 66 335 159 415 292 
544 11 42 417 281 376 512 162 61 328 659 5 585 
545 8 205 530 211 534 312 77 20 286 
546 11 246 366 121 575 527 422 156 51 29 127 455 
547 8 193 129 379 412 39 552 654 62 
548 11 466 315 119 407 472 638 38 97 570 175 346 
549 8 363 154 626 19 95 601 332 100 
550 11 559 257 33 361 356 214 503 423 36 207 620 
551 8 160 23 650 112 498 518 71 194 
552 10 612 655 62 39 193 309 547 129 255 258 
553 11 122 595 202 90 404 195 138 562 52 144 21 
554 11 354 55 302 421 299 360 355 207 287 384 303 
555 11 22 217 170 231 388 444 58 453 251 236 491 
556 10 206 496 143 431 37 269 613 228 424 259 
557 11 486 519 622 313 338 149 585 28 381 44 331 
558 8 364 377 276 293 215 49 106 640 
559 9 550 257 356 33 361 214 620 503 651 
560 11 481 416 11 82 46 461 635 639 344 434 210 
561 11 108 610 10 79 586 60 109 387 602 41 358 
562 8 618 325 52 272 553 403 173 404 
563 9 294 607 203 454 201 26 577 238 450 
564 9 587 390 145 8 14 75 76 578 517 
565 11 89 222 241 460 264 494 462 186 405 567 243 
566 10 579 125 84 224 94 588 4 175 638 605 
567 8 264 462 580 460 565 89 405 222 
568 10 86 524 415 365 142 66 191 446 505 159 
569 8 271 317 139 263 609 35 426 523 
570 11 315 472 638 470 38 466 401 584 175 97 596 
571 10 297 441 452 456 442 44 381 7 28 199 
572 10 141 510 458 182 186 603 405 89 375 462 
573 11 320 88 43 219 383 487 389 181 594 489 603 
574 10 204 654 500 39 148 129 62 193 547 379 
575 11 127 306 449 51 546 527 13 246 132 301 520 
576 11 448 605 608 70 584 4 333 522 175 15 84 
577 9 238 447 5 563 261 294 659 203 607 
578 4 145 76 131 390 
579 10 566 125 84 224 94 588 4 175 638 605 
580 7 567 264 460 243 565 462 89 
581 11 616 489 7 383 88 43 198 573 442 45 237 
582 8 385 98 368 3 106 636 327 274 
583 10 85 643 134 507 296 540 374 653 199 476 
584 11 605 70 175 4 570 638 472 576 448 315 588 
585 11 149 328 281 486 519 248 61 512 162 557 544 
586 11 602 79 274 636 109 60 610 341 561 151 275 
587 9 564 390 145 8 14 75 517 76 578 
588 11 125 84 4 175 566 579 605 638 472 548 584 
589 9 511 324 478 74 418 537 532 135 252 
590 11 236 536 87 172 58 444 439 555 31 170 591 
591 11 115 87 31 172 307 646 419 173 590 30 367 
592 6 393 394 535 615 96 9 
593 5 633 639 82 440 647 
594 11 181 389 200 487 43 320 538 573 219 464 198 
595 11 202 553 122 307 144 90 52 284 21 173 138 
596 8 336 401 470 97 346 230 38 466 
597 10 81 438 6 630 471 178 221 490 183 218 
598 11 652 54 166 78 190 600 645 599 319 253 265 
599 10 645 78 239 349 166 339 402 598 457 652 
600 11 83 652 339 598 54 147 398 239 78 599 253 
601 9 428 380 104 305 549 2 188 300 244 
602 11 586 79 109 341 274 151 636 610 60 275 561 
603 11 219 458 150 88 383 320 573 572 277 182 510 
604 6 223 524 365 86 568 65 
605 11 4 584 175 70 576 588 638 472 570 448 84 
606 7 152 304 509 234 194 71 23 
607 9 563 294 454 201 203 26 450 291 80 
608 11 333 522 448 641 15 280 576 70 262 113 395 
609 7 518 650 112 254 317 410 23 
610 11 60 10 561 108 358 586 370 602 79 274 387 
611 7 658 12 502 47 283 187 32 
612 10 655 552 309 255 258 400 331 62 338 39 
613 9 143 352 514 269 556 56 631 282 259 
614 8 179 647 107 278 440 48 635 621 
615 7 249 275 151 341 394 109 79 
616 11 489 581 442 237 198 7 43 487 441 383 573 
617 10 434 344 130 9 521 92 11 501 353 560 
618 8 562 52 325 272 403 173 169 553 
619 10 382 209 420 35 426 516 528 408 139 263 
620 4 257 356 33 559 
621 10 27 177 48 107 278 285 541 614 126 464 
622 11 557 313 338 486 519 28 381 44 331 45 456 
623 10 477 167 155 169 419 403 506 173 30 52 
624 6 280 262 641 113 15 522 
625 9 93 308 123 50 146 25 63 268 270 
626 5 95 363 549 19 154 
627 11 646 8 425 517 73 491 247 185 367 229 642 
628 11 508 384 423 36 287 302 421 303 554 207 354 
629 10 117 67 492 525 350 265 164 310 153 190 
630 11 6 597 490 81 178 270 438 471 63 123 221 
631 11 56 455 29 163 282 435 660 121 613 143 157 
632 11 659 447 376 417 42 544 5 162 91 238 281 
633 3 593 82 639 
634 9 69 232 475 111 357 210 155 633 403 
635 10 46 461 481 179 647 639 440 82 171 560 
636 10 274 368 586 602 60 226 79 385 467 610 
637 11 347 337 340 114 176 260 311 59 80 329 16 
638 11 472 315 175 570 466 548 38 4 119 588 584 
639 10 82 593 440 647 635 46 481 560 633 179 
640 7 437 158 49 230 276 342 364 
641 11 522 15 280 608 262 333 113 395 624 448 70 
642 8 229 367 216 307 627 8 542 646 
643 9 507 583 85 653 134 374 296 476 540 
644 8 158 49 485 437 314 276 230 640 
645 10 78 599 166 465 402 598 330 190 239 54 
646 11 627 425 491 73 517 172 8 247 170 185 367 
647 8 440 179 614 639 635 46 82 593 
648 9 326 404 195 138 484 122 197 90 369 
649 11 72 126 488 2 244 188 464 538 541 104 40 
650 9 112 518 609 23 551 160 71 410 194 
651 8 356 361 257 559 131 550 620 36 
652 11 598 54 600 166 78 190 319 253 645 599 265 
653 6 476 643 374 85 507 583 
654 10 204 574 129 39 193 547 500 62 379 412 
655 10 255 309 612 258 400 331 552 338 28 381 
656 5 499 513 74 359 118 
657 11 59 16 114 322 347 311 340 176 637 260 337 
658 9 611 502 283 12 187 32 47 334 351 
659 11 5 162 632 447 544 238 42 376 417 261 281 
660 11 163 631 259 435 424 143 613 56 431 455 29 
DEPOT_SECTION
   1
   -1
EOF
