NAME :  X-n819-kX-w163-c11.cctp
COMMENT : 	Adapted by Maziero, Usberti and Cavellucci from the Uchoa, Pecin, Pessoa, Poggi, Subramanian, and Vidal (2013)
TYPE :  CCTP
DIMENSION :    781
EDGE_WEIGHT_TYPE : 	EUC_2D	
CAPACITY : 	358
VERTICES_WITHIN_COVERAGE :  11
VERTICES_WITH_DEMAND : 	163
NODE_COORD_SECTION
1 500 500
2 174 325
3 49 34
4 543 815
5 42 920
6 545 80
7 681 950
8 664 944
9 61 68
10 609 259
11 116 500
12 482 911
13 708 930
14 93 57
15 642 940
16 487 619
17 511 63
18 330 52
19 529 831
20 586 862
21 503 839
22 713 994
23 28 939
24 9 111
25 203 347
26 31 115
27 414 352
28 521 982
29 121 304
30 600 26
31 506 772
32 624 39
33 205 328
34 218 104
35 22 959
36 657 188
37 72 978
38 434 815
39 487 107
40 22 987
41 599 870
42 201 402
43 726 961
44 51 7
45 35 922
46 182 331
47 577 233
48 672 906
49 485 852
50 543 849
51 574 991
52 120 166
53 592 877
54 422 762
55 26 695
56 52 953
57 673 848
58 66 393
59 165 162
60 824 928
61 462 135
62 520 759
63 25 807
64 483 808
65 600 549
66 196 76
67 420 719
68 348 480
69 531 837
70 157 347
71 273 259
72 526 18
73 373 29
74 39 211
75 398 49
76 451 211
77 693 949
78 518 106
79 451 981
80 629 687
81 731 830
82 599 866
83 202 772
84 217 285
85 102 404
86 481 771
87 601 864
88 123 963
89 467 217
90 62 8
91 532 256
92 57 914
93 640 193
94 502 823
95 197 59
96 4 824
97 110 938
98 439 838
99 543 808
100 51 34
101 94 672
102 55 46
103 420 46
104 666 997
105 186 414
106 398 883
107 103 942
108 482 816
109 62 137
110 11 840
111 37 54
112 537 858
113 745 914
114 183 279
115 703 953
116 762 726
117 485 54
118 64 920
119 74 352
120 560 178
121 283 179
122 496 834
123 660 886
124 589 160
125 650 963
126 565 36
127 241 338
128 446 971
129 638 817
130 193 372
131 752 955
132 511 904
133 411 5
134 780 925
135 536 781
136 53 168
137 495 777
138 42 892
139 488 80
140 793 984
141 201 317
142 531 985
143 181 240
144 530 802
145 576 942
146 654 903
147 634 953
148 612 71
149 334 119
150 155 811
151 35 956
152 593 840
153 588 819
154 771 968
155 273 325
156 561 46
157 113 88
158 23 813
159 49 38
160 162 152
161 611 778
162 297 479
163 627 78
164 559 818
165 79 48
166 711 905
167 612 162
168 509 839
169 153 45
170 301 160
171 693 913
172 527 213
173 144 73
174 347 325
175 95 965
176 29 145
177 268 374
178 674 900
179 418 225
180 532 930
181 501 68
182 24 888
183 310 365
184 572 153
185 546 820
186 683 948
187 561 150
188 571 205
189 513 166
190 523 805
191 193 375
192 553 9
193 131 86
194 154 914
195 528 786
196 104 10
197 672 129
198 908 170
199 654 893
200 514 130
201 547 783
202 33 856
203 563 814
204 459 856
205 467 859
206 494 844
207 106 523
208 726 969
209 155 240
210 137 860
211 497 414
212 294 802
213 85 39
214 649 864
215 658 764
216 52 978
217 521 99
218 529 779
219 317 909
220 32 72
221 704 952
222 197 150
223 307 273
224 602 256
225 169 378
226 111 139
227 258 317
228 657 898
229 438 983
230 179 381
231 510 735
232 586 48
233 663 907
234 189 269
235 210 315
236 82 925
237 503 313
238 541 34
239 369 228
240 44 321
241 415 220
242 83 294
243 297 381
244 646 844
245 25 39
246 67 86
247 771 900
248 500 94
249 69 874
250 176 285
251 140 267
252 267 333
253 561 920
254 490 62
255 521 801
256 181 316
257 179 85
258 17 56
259 95 82
260 411 740
261 533 794
262 474 811
263 325 412
264 626 805
265 480 939
266 777 982
267 7 927
268 611 848
269 115 40
270 185 356
271 585 173
272 300 382
273 21 63
274 707 856
275 45 961
276 165 62
277 8 875
278 435 96
279 72 127
280 68 71
281 590 866
282 607 175
283 732 873
284 678 960
285 105 300
286 488 850
287 524 833
288 179 767
289 688 857
290 559 798
291 556 998
292 474 784
293 599 803
294 639 513
295 348 284
296 535 534
297 552 830
298 565 774
299 193 52
300 556 666
301 509 765
302 41 119
303 170 171
304 79 975
305 131 959
306 139 193
307 630 881
308 14 853
309 553 62
310 65 0
311 822 866
312 342 897
313 669 895
314 204 332
315 24 307
316 163 344
317 493 780
318 687 988
319 723 938
320 133 299
321 838 996
322 747 957
323 685 953
324 124 990
325 565 47
326 34 141
327 69 911
328 173 354
329 237 260
330 689 665
331 624 724
332 564 607
333 221 496
334 585 761
335 72 233
336 238 451
337 451 753
338 10 27
339 539 773
340 240 717
341 540 26
342 48 70
343 58 59
344 78 51
345 76 933
346 429 830
347 304 71
348 702 1000
349 695 79
350 142 327
351 90 319
352 572 857
353 552 866
354 581 134
355 473 856
356 183 84
357 625 834
358 529 922
359 518 746
360 694 842
361 715 979
362 690 911
363 29 16
364 671 971
365 157 358
366 171 949
367 560 81
368 534 40
369 137 848
370 941 947
371 50 965
372 137 291
373 62 100
374 315 146
375 712 752
376 499 688
377 12 29
378 477 720
379 481 82
380 193 265
381 72 4
382 12 890
383 588 910
384 675 981
385 61 941
386 0 670
387 582 798
388 36 58
389 257 667
390 525 819
391 579 919
392 653 935
393 762 807
394 241 306
395 129 408
396 941 800
397 603 95
398 421 948
399 561 653
400 596 837
401 199 342
402 229 317
403 198 350
404 727 827
405 534 892
406 196 105
407 169 341
408 618 853
409 65 415
410 687 953
411 597 972
412 158 345
413 168 332
414 569 28
415 499 805
416 428 894
417 121 992
418 539 750
419 688 899
420 172 491
421 369 479
422 49 891
423 256 770
424 415 937
425 87 86
426 505 783
427 208 462
428 507 272
429 473 946
430 129 174
431 44 120
432 484 88
433 275 224
434 386 351
435 761 965
436 418 252
437 33 233
438 270 216
439 583 939
440 454 75
441 90 999
442 572 51
443 624 849
444 138 271
445 580 870
446 487 213
447 174 502
448 523 792
449 196 806
450 752 26
451 489 858
452 563 88
453 749 944
454 568 369
455 612 959
456 580 142
457 601 848
458 587 132
459 429 931
460 425 906
461 165 918
462 56 867
463 645 972
464 200 307
465 63 913
466 518 183
467 592 757
468 573 812
469 703 818
470 727 924
471 465 800
472 574 904
473 11 954
474 178 743
475 24 106
476 319 914
477 144 326
478 545 810
479 29 49
480 523 798
481 279 346
482 381 237
483 45 58
484 287 764
485 376 828
486 61 589
487 24 440
488 4 968
489 519 601
490 159 419
491 6 15
492 689 943
493 589 806
494 488 64
495 193 365
496 660 952
497 126 365
498 135 1000
499 846 808
500 652 954
501 576 158
502 42 159
503 176 182
504 266 261
505 527 817
506 573 905
507 564 87
508 497 765
509 483 865
510 65 894
511 110 896
512 50 230
513 791 119
514 689 955
515 638 891
516 534 35
517 295 209
518 540 822
519 517 26
520 538 79
521 599 3
522 593 782
523 45 0
524 703 930
525 707 633
526 490 107
527 163 88
528 583 628
529 474 789
530 500 169
531 68 825
532 9 943
533 17 896
534 565 35
535 413 80
536 743 800
537 494 869
538 183 312
539 127 898
540 894 879
541 559 953
542 235 214
543 628 127
544 112 118
545 66 309
546 1 892
547 566 275
548 35 927
549 152 359
550 566 201
551 237 261
552 664 667
553 467 937
554 144 327
555 567 59
556 92 296
557 4 319
558 797 701
559 63 83
560 340 435
561 431 52
562 234 263
563 161 343
564 556 90
565 246 413
566 18 884
567 422 731
568 24 65
569 626 53
570 509 746
571 743 851
572 416 906
573 520 46
574 660 760
575 63 807
576 221 463
577 732 909
578 704 940
579 671 909
580 499 159
581 160 967
582 361 128
583 649 861
584 116 104
585 667 764
586 161 352
587 637 772
588 8 93
589 471 759
590 456 852
591 728 780
592 541 805
593 713 907
594 515 873
595 11 275
596 567 890
597 705 942
598 118 327
599 579 904
600 254 330
601 402 539
602 783 822
603 487 201
604 14 19
605 581 876
606 39 795
607 628 739
608 604 984
609 781 525
610 39 852
611 706 947
612 229 339
613 533 973
614 738 836
615 0 139
616 130 325
617 26 364
618 853 961
619 151 260
620 412 937
621 695 995
622 544 786
623 1 405
624 142 302
625 484 875
626 775 773
627 499 18
628 39 52
629 698 178
630 564 826
631 37 878
632 576 208
633 550 819
634 461 796
635 546 805
636 65 886
637 93 132
638 48 0
639 648 844
640 35 957
641 70 204
642 91 1000
643 741 913
644 659 627
645 529 786
646 197 355
647 643 157
648 297 284
649 7 211
650 635 908
651 533 136
652 548 625
653 715 919
654 102 917
655 491 40
656 452 801
657 165 926
658 659 731
659 460 779
660 963 952
661 694 940
662 823 947
663 462 123
664 53 251
665 481 179
666 506 826
667 531 827
668 258 186
669 722 621
670 537 51
671 655 762
672 565 141
673 188 88
674 655 42
675 124 310
676 573 805
677 44 925
678 381 213
679 65 691
680 82 929
681 540 156
682 219 340
683 638 784
684 742 699
685 611 651
686 522 748
687 236 388
688 605 842
689 28 75
690 671 852
691 637 21
692 255 311
693 486 81
694 577 814
695 630 923
696 147 226
697 560 55
698 168 823
699 145 242
700 547 796
701 506 74
702 581 763
703 840 991
704 553 816
705 902 947
706 680 942
707 94 13
708 183 310
709 16 909
710 745 841
711 601 802
712 307 361
713 174 323
714 480 80
715 792 924
716 575 751
717 642 135
718 251 48
719 509 90
720 574 870
721 750 919
722 86 444
723 780 938
724 564 172
725 599 791
726 594 200
727 222 478
728 102 646
729 278 137
730 543 833
731 316 283
732 40 828
733 676 214
734 38 79
735 236 811
736 487 724
737 546 814
738 607 95
739 300 72
740 63 228
741 46 24
742 145 435
743 733 741
744 692 956
745 748 914
746 107 344
747 565 104
748 570 963
749 207 354
750 794 926
751 542 797
752 692 925
753 601 845
754 726 947
755 36 904
756 0 507
757 577 986
758 529 574
759 545 845
760 525 912
761 795 692
762 663 944
763 82 952
764 521 709
765 589 192
766 506 93
767 126 419
768 31 881
769 525 897
770 518 786
771 525 786
772 649 937
773 794 915
774 402 111
775 433 838
776 261 258
777 248 400
778 51 910
779 96 62
780 635 837
781 666 855
DEMAND_SECTION
2 89
3 59
4 53
5 85
6 95
7 66
8 70
9 84
10 68
11 96
12 87
13 77
14 65
15 88
16 75
17 84
18 92
19 75
20 77
21 55
22 64
23 60
24 71
25 80
26 79
27 61
28 100
29 62
30 92
31 60
32 55
33 52
34 65
35 73
36 81
37 97
38 75
39 76
40 87
41 99
42 78
43 50
44 70
45 89
46 98
47 84
48 59
49 63
50 62
51 88
52 61
53 77
54 70
55 76
56 77
57 59
58 53
59 54
60 74
61 81
62 59
63 79
64 78
65 95
66 51
67 69
68 73
69 78
70 59
71 86
72 63
73 97
74 51
75 77
76 99
77 76
78 68
79 77
80 65
81 87
82 62
83 76
84 86
85 92
86 62
87 96
88 80
89 56
90 86
91 86
92 95
93 73
94 74
95 73
96 87
97 92
98 88
99 81
100 81
101 74
102 62
103 55
104 76
105 98
106 78
107 59
108 74
109 83
110 92
111 75
112 71
113 75
114 81
115 70
116 52
117 94
118 54
119 78
120 58
121 93
122 64
123 89
124 63
125 82
126 98
127 51
128 58
129 63
130 61
131 91
132 56
133 81
134 97
135 91
136 51
137 73
138 95
139 79
140 100
141 55
142 81
143 85
144 52
145 99
146 57
147 54
148 62
149 78
150 60
151 81
152 89
153 87
154 80
155 96
156 83
157 53
158 95
159 70
160 69
161 81
162 62
163 83
164 50
COVERAGE_SECTION
2 11 713 413 46 256 538 407 708 316 563 412 70 
3 11 100 159 741 102 628 111 483 245 479 44 343 
4 11 737 478 185 99 518 633 592 635 704 164 505 
5 11 677 45 548 778 92 755 118 465 23 138 327 
6 11 520 367 564 309 452 507 697 555 670 217 747 
7 11 186 323 410 706 514 284 492 77 744 661 8 
8 11 762 496 392 500 706 772 7 186 284 15 323 
9 11 280 343 342 559 246 483 102 344 734 165 388 
10 11 224 47 547 632 726 188 765 550 93 91 733 
11 11 207 420 447 722 742 767 490 395 85 409 427 
12 11 265 132 553 429 625 760 537 769 509 358 594 
13 11 524 578 597 653 319 611 661 752 470 221 171 
14 10 779 344 165 213 259 269 280 425 9 343 
15 11 772 392 147 500 695 762 8 496 125 463 650 
16 11 489 652 758 376 332 399 300 528 764 296 378 
17 11 181 701 573 254 494 719 117 139 670 655 766 
18 11 347 739 73 149 75 718 582 535 103 774 133 
19 11 667 287 69 390 505 518 730 185 4 759 168 
20 11 281 445 82 720 41 87 352 605 53 457 152 
21 11 168 122 206 666 94 286 49 287 451 19 69 
22 11 348 361 621 318 208 43 384 115 221 744 514 
23 11 548 45 151 532 640 35 677 473 5 267 56 
24 11 475 588 26 615 302 431 176 326 689 734 220 
25 11 401 403 749 646 314 682 33 270 495 46 130 
26 11 302 475 431 24 326 176 588 373 734 109 615 
27 11 434 174 295 237 436 211 183 263 712 560 272 
28 11 142 613 291 541 180 748 51 757 265 429 358 
29 11 675 320 285 372 624 598 616 556 350 477 554 
30 11 521 232 32 414 126 534 569 691 442 325 156 
31 11 301 426 508 137 317 770 62 218 771 86 195 
32 10 569 691 30 674 148 163 232 521 442 414 
33 11 314 141 235 401 682 25 464 46 403 402 612 
34 11 406 673 66 356 257 95 222 527 299 718 276 
35 11 473 151 640 488 23 532 275 40 371 56 267 
36 11 93 733 647 629 167 282 717 197 726 543 765 
37 11 304 216 175 371 441 763 642 56 275 385 151 
38 11 346 656 775 98 634 471 262 590 659 108 204 
39 11 526 248 432 766 379 693 139 714 719 663 78 
40 11 488 35 216 640 151 275 473 371 56 532 23 
41 11 82 87 53 281 20 445 605 457 268 408 720 
42 11 105 191 230 130 495 687 225 490 565 646 777 
43 11 208 754 322 361 319 115 221 611 131 597 453 
44 11 638 523 90 310 741 381 363 3 100 159 102 
45 11 548 5 677 23 755 778 92 709 267 118 465 
46 11 2 713 413 256 407 538 401 708 314 33 316 
47 11 632 188 224 550 726 10 547 765 91 172 120 
48 11 579 178 233 313 228 419 146 362 171 199 123 
49 11 286 451 206 355 509 205 537 122 21 625 204 
50 11 759 112 730 69 353 297 19 287 667 518 185 
51 11 757 291 748 411 608 541 142 613 145 455 439 
52 11 430 226 306 637 160 59 544 303 503 279 584 
53 11 41 281 605 82 445 20 87 720 352 596 457 
54 11 260 337 567 659 67 589 656 634 38 292 471 
55 11 386 679 101 728 606 63 486 158 575 96 732 
56 11 275 371 385 151 640 216 23 677 763 35 345 
57 11 690 781 289 360 639 244 583 214 274 123 780 
58 11 409 85 119 617 722 487 746 395 767 497 623 
59 11 160 303 503 222 430 306 52 226 406 696 544 
60 11 662 750 715 773 134 618 723 247 311 140 703 
61 11 663 39 526 580 278 665 530 200 432 248 379 
62 11 686 301 359 570 31 418 218 339 508 231 135 
63 10 158 606 732 96 110 575 308 531 610 202 
64 11 108 262 415 471 529 94 634 292 122 666 317 
65 11 294 296 332 758 528 652 489 644 685 399 300 
66 11 673 356 95 257 299 406 276 527 34 173 169 
67 11 567 260 54 337 378 589 736 659 86 292 376 
68 10 421 560 162 263 601 272 243 336 183 565 
69 11 19 287 667 730 759 50 518 390 505 112 168 
70 11 412 563 586 316 365 407 549 328 413 554 350 
71 11 504 776 433 648 329 551 223 562 438 731 517 
72 11 519 341 516 238 368 627 192 573 670 655 126 
73 11 75 133 18 103 561 535 347 739 774 278 440 
74 10 512 437 740 641 649 335 664 136 502 176 
75 11 103 73 561 535 133 278 440 774 18 117 582 
76 11 89 179 446 241 603 665 436 530 678 580 466 
77 11 410 492 514 744 323 661 186 115 221 7 611 
78 11 217 719 766 248 200 526 39 520 651 701 6 
79 11 128 229 429 398 553 265 459 424 620 28 12 
80 10 331 552 685 607 658 330 644 528 300 399 
81 11 404 614 710 571 469 536 274 360 393 283 591 
82 11 87 41 281 53 20 457 445 605 753 268 408 
83 11 288 449 474 735 423 150 698 340 484 212 369 
84 11 464 562 235 380 551 234 329 394 402 114 141 
85 11 395 767 58 409 722 497 742 119 490 746 549 
86 11 137 292 317 589 508 529 659 31 426 301 634 
87 11 82 41 281 20 53 457 268 753 408 445 688 
88 11 305 324 97 175 107 417 581 498 763 304 441 
89 11 76 446 603 665 179 241 530 172 436 466 580 
90 11 310 44 381 638 523 741 100 3 707 159 363 
91 11 428 547 172 47 446 188 237 550 632 224 603 
92 11 465 778 118 327 5 677 510 45 755 422 548 
93 11 36 647 282 167 733 726 765 717 271 629 124 
94 11 666 122 21 168 415 108 206 390 64 287 505 
95 11 299 66 356 673 257 276 527 169 406 34 173 
96 10 110 158 63 308 732 202 606 610 277 575 
97 11 107 654 88 680 305 175 236 763 345 511 539 
98 11 775 346 590 38 204 205 355 656 262 471 634 
99 11 478 592 635 4 737 751 185 633 700 704 144 
100 11 3 159 741 102 628 111 483 245 343 44 479 
101 11 728 679 55 486 386 474 288 606 575 83 207 
102 11 159 3 100 343 483 628 111 388 9 165 344 
103 11 561 75 535 133 440 73 278 117 774 714 494 
104 11 384 318 364 621 463 348 125 284 496 500 22 
105 11 42 490 230 191 225 130 742 495 427 687 395 
106 11 572 416 460 620 424 459 775 312 485 98 346 
107 11 97 763 175 654 680 236 345 88 305 304 385 
108 11 64 262 415 94 122 471 666 529 634 206 21 
109 11 279 431 302 326 502 637 136 176 373 26 226 
110 10 308 96 202 158 610 732 277 63 566 631 
111 11 628 388 479 483 568 273 220 245 342 102 159 
112 11 50 759 353 69 730 594 19 287 297 667 168 
113 11 745 643 721 577 470 247 453 653 319 593 166 
114 11 250 234 380 708 464 538 84 256 619 143 141 
115 11 221 611 77 597 744 578 514 410 661 492 323 
116 10 743 684 558 761 626 375 591 536 393 330 
117 11 254 494 655 181 139 714 693 17 379 701 432 
118 11 465 92 327 778 345 236 680 385 677 5 510 
119 11 746 351 58 240 545 617 598 497 85 242 556 
120 11 724 550 271 501 184 187 188 681 765 124 632 
121 11 170 668 517 438 729 374 433 542 149 71 776 
122 11 21 206 94 666 168 286 49 108 451 287 64 
123 11 199 228 313 146 178 233 48 515 214 579 583 
124 11 501 271 184 456 167 282 354 458 724 187 672 
125 11 500 463 496 147 364 762 8 15 772 284 392 
126 11 534 414 156 325 442 697 555 232 238 341 309 
127 11 612 600 682 402 252 227 692 394 155 33 314 
128 11 79 229 398 429 553 459 424 265 620 460 12 
129 10 264 780 357 244 639 683 443 711 268 293 
130 11 191 495 230 646 270 403 749 225 25 328 42 
131 11 322 453 435 154 43 754 208 723 319 721 266 
132 10 760 769 358 405 12 594 180 537 625 265 
133 11 103 73 75 561 535 440 655 117 627 18 278 
134 11 715 723 750 773 247 721 745 453 113 131 643 
135 11 218 195 339 622 645 201 771 261 448 751 700 
136 11 502 109 176 326 641 74 279 431 302 637 26 
137 11 317 31 426 508 86 301 292 529 770 415 589 
138 11 422 755 631 768 182 778 510 636 533 566 92 
139 11 693 379 714 432 494 181 248 254 701 766 719 
140 11 266 154 435 321 662 703 723 131 322 750 453 
141 11 235 464 33 314 538 708 256 46 401 2 402 
142 11 28 613 291 51 541 748 757 180 145 358 411 
143 10 209 380 234 619 699 696 114 250 251 444 
144 11 190 480 255 261 592 448 751 99 505 195 635 
145 10 439 541 748 391 253 383 411 506 472 599 
146 11 228 199 233 313 48 123 579 178 515 650 695 
147 11 15 500 125 463 772 455 392 496 695 762 8 
148 9 163 569 738 397 32 232 442 30 555 
149 11 582 374 170 347 739 729 18 774 121 535 75 
150 8 698 369 449 288 210 83 474 735 
151 11 640 275 35 56 371 23 473 216 532 548 385 
152 11 400 753 457 688 268 153 20 87 281 82 352 
153 11 694 493 468 293 400 676 711 152 387 203 630 
154 11 435 266 131 322 140 723 453 134 208 43 750 
155 11 252 227 600 481 692 127 394 402 612 648 177 
156 11 325 697 126 442 534 555 309 414 238 232 670 
157 11 584 193 259 425 544 779 173 14 246 269 280 
158 10 63 96 732 606 110 575 308 610 202 531 
159 11 3 100 102 741 628 111 483 343 479 245 388 
160 11 59 303 503 222 430 52 306 226 406 544 527 
161 11 522 725 711 587 293 467 683 264 334 702 387 
162 10 68 560 336 421 263 727 333 576 565 427 
163 9 148 569 738 397 32 674 543 232 691 
164 11 203 704 630 633 185 297 737 468 4 478 635 
165 10 344 213 14 779 102 343 280 9 100 159 
166 11 593 653 171 577 362 419 13 470 524 752 643 
167 11 282 124 271 647 501 456 543 765 458 717 184 
168 11 21 666 122 206 287 94 19 69 286 667 390 
169 7 276 173 269 299 527 95 193 
170 11 374 121 729 517 668 149 438 582 433 542 739 
171 11 362 752 419 166 524 593 48 579 13 178 653 
172 11 466 446 550 603 91 188 120 189 632 530 47 
173 10 193 276 527 169 157 257 356 584 269 673 
174 11 295 434 731 183 712 648 223 481 27 155 272 
175 11 763 304 107 37 88 97 441 642 305 345 417 
176 11 326 502 302 431 26 615 136 109 24 475 279 
177 10 243 481 272 777 687 252 712 183 127 565 
178 11 48 313 579 233 419 228 362 123 146 199 171 
179 11 241 436 76 482 678 239 89 446 603 665 295 
180 9 358 760 253 132 769 541 405 613 145 
181 11 701 17 254 494 139 693 117 719 379 714 766 
182 11 566 768 533 382 631 138 755 277 709 546 422 
183 10 712 272 243 481 177 263 155 174 252 600 
184 10 501 187 456 672 124 354 724 271 458 120 
185 11 633 4 518 737 704 478 99 297 164 730 635 
186 11 7 323 410 706 492 514 77 744 284 661 8 
187 10 672 184 501 456 681 724 354 120 124 651 
188 11 550 632 765 726 47 120 724 271 172 282 501 
189 11 530 580 466 681 665 200 651 603 120 172 187 
190 11 255 480 144 448 505 390 261 592 771 99 195 
191 11 130 495 230 646 270 225 403 749 42 328 25 
192 11 341 414 72 238 534 126 516 368 156 325 519 
193 10 157 173 584 527 259 544 276 779 425 169 
194 9 461 657 539 366 511 97 305 654 581 
195 11 645 771 218 448 135 261 770 480 144 622 255 
196 6 707 269 381 213 310 90 
197 11 717 647 543 349 629 36 163 167 93 738 397 
198 11 513 629 450 349 733 197 36 647 717 93 543 
199 11 228 123 146 313 515 233 178 48 579 650 307 
200 11 651 78 217 526 580 39 189 681 766 248 719 
201 11 622 135 339 700 751 218 261 645 195 290 298 
202 10 610 308 631 462 768 110 732 277 566 182 
203 11 164 468 704 630 676 633 694 290 737 185 478 
204 11 590 205 355 49 509 98 286 451 625 775 206 
205 11 355 204 590 509 49 451 286 625 537 206 98 
206 11 286 21 122 49 451 168 94 666 355 509 537 
207 11 11 447 420 486 722 742 767 756 409 395 487 
208 11 43 361 754 322 22 115 221 131 611 319 453 
209 9 699 696 619 143 251 444 234 380 114 
210 5 369 539 511 698 150 
211 11 454 237 27 296 434 428 421 547 601 560 91 
212 11 484 423 735 485 83 449 340 312 219 476 288 
213 10 165 344 14 779 707 269 102 100 343 196 
214 10 583 781 244 639 123 307 690 57 199 443 
215 9 574 671 585 587 683 658 607 161 264 
216 11 371 275 37 56 304 640 151 40 35 385 763 
217 11 78 719 766 248 520 701 6 200 526 39 564 
218 11 135 195 645 771 339 770 448 261 622 201 480 
219 10 476 312 106 572 620 485 424 460 212 398 
220 11 689 734 568 273 388 342 111 483 628 258 479 
221 11 115 611 597 77 578 744 514 661 410 492 323 
222 11 59 303 160 503 406 34 673 257 356 527 668 
223 11 731 648 71 295 504 776 433 155 692 517 174 
224 11 10 47 547 632 726 188 765 550 91 93 282 
225 11 230 365 191 328 130 549 270 495 586 70 316 
226 11 637 544 52 584 430 279 109 157 160 193 425 
227 11 692 600 155 252 394 127 402 481 612 682 235 
228 11 146 199 233 123 313 48 178 579 515 650 419 
229 11 79 128 398 424 429 459 620 553 265 460 572 
230 11 225 191 130 495 270 328 42 365 646 105 586 
231 11 570 359 686 736 62 764 301 418 508 378 31 
232 10 442 325 555 126 156 534 30 414 697 148 
233 11 579 48 146 228 178 313 199 123 419 362 650 
234 11 380 114 250 143 84 619 464 708 538 209 562 
235 11 141 464 33 314 402 538 682 708 256 401 84 
236 11 680 345 118 327 465 654 385 92 107 763 97 
237 11 428 91 547 454 27 211 446 89 172 436 47 
238 11 516 341 368 670 72 156 126 534 573 519 325 
239 11 482 678 241 179 436 295 517 731 223 76 648 
240 9 315 545 557 119 351 242 617 556 595 
241 11 179 436 678 76 482 239 89 446 603 665 295 
242 8 556 285 545 351 29 675 240 598 
243 10 272 183 712 177 481 263 777 252 565 155 
244 10 639 780 583 214 357 443 781 690 57 129 
245 11 479 377 111 258 338 628 388 363 604 159 273 
246 11 559 280 373 9 425 342 259 343 734 483 344 
247 11 134 745 773 721 113 715 643 750 723 577 283 
248 11 766 719 526 432 39 139 693 701 78 217 379 
249 6 636 462 510 422 138 631 
250 11 114 234 380 708 538 256 464 619 624 713 372 
251 9 444 619 372 699 209 320 624 250 29 
252 11 155 600 227 481 692 127 394 612 177 402 682 
253 8 391 506 472 599 145 383 439 180 
254 11 494 117 181 139 693 701 17 714 379 655 432 
255 11 190 480 144 448 261 770 771 195 505 645 390 
256 11 538 708 713 2 46 141 413 464 33 314 407 
257 11 356 673 527 66 406 276 95 299 173 34 169 
258 11 273 568 479 245 388 111 220 628 689 377 483 
259 11 425 157 779 14 246 280 584 559 344 193 9 
260 11 567 67 54 337 589 659 378 656 634 86 292 
261 11 144 195 645 751 448 480 771 135 255 592 622 
262 11 64 108 471 634 529 656 415 292 94 122 659 
263 10 560 272 243 183 712 177 68 162 777 565 
264 11 129 683 711 293 357 725 161 780 587 493 153 
265 11 429 553 12 128 132 79 358 459 760 180 28 
266 11 154 140 435 131 322 723 453 208 43 134 662 
267 11 532 709 23 473 45 548 533 35 5 546 382 
268 10 688 408 457 753 443 87 400 152 357 82 
269 6 14 779 213 196 707 165 
270 11 328 495 646 403 130 25 401 191 407 749 586 
271 11 124 501 765 724 282 184 120 726 167 456 187 
272 10 243 183 712 177 263 481 777 252 565 155 
273 11 568 258 220 689 388 479 111 628 734 245 483 
274 11 289 360 283 57 81 404 571 690 614 469 710 
275 11 371 56 151 640 216 35 385 23 37 40 473 
276 10 169 173 527 257 356 299 95 66 673 193 
277 11 566 382 546 182 308 533 768 631 202 110 709 
278 11 535 440 774 663 561 61 379 714 432 103 39 
279 11 109 637 373 431 302 326 226 246 544 26 425 
280 11 9 559 246 343 342 344 425 165 483 102 14 
281 11 20 82 41 53 87 445 605 720 352 457 753 
282 11 167 271 124 765 726 501 93 647 184 456 724 
283 11 571 274 710 577 614 166 593 643 81 113 745 
284 11 7 323 410 514 186 364 744 706 77 492 496 
285 10 556 29 675 242 351 320 598 372 616 624 
286 11 49 206 451 355 509 122 21 537 205 168 625 
287 11 19 69 667 390 168 505 518 666 730 21 94 
288 11 83 474 449 150 698 735 423 340 369 210 484 
289 11 360 57 690 274 781 583 123 214 313 419 469 
290 11 700 635 203 676 751 478 99 201 592 622 704 
291 11 51 757 142 613 28 748 541 411 608 145 439 
292 11 529 86 659 471 634 317 137 589 64 262 656 
293 11 711 493 725 387 153 522 694 676 264 161 468 
294 11 65 296 644 332 758 528 669 525 685 609 652 
295 11 731 174 223 648 482 239 434 436 678 71 155 
296 11 758 65 489 332 652 16 294 528 399 211 601 
297 11 730 633 185 630 164 518 704 4 737 759 203 
298 11 702 201 334 622 290 716 339 700 387 522 135 
299 10 95 66 276 356 257 673 169 527 173 406 
300 10 399 652 528 764 685 332 376 489 80 16 
301 11 31 508 62 137 426 570 359 686 317 770 218 
302 11 431 26 475 326 109 373 176 279 24 502 734 
303 11 59 503 160 222 306 430 52 696 226 143 209 
304 11 37 175 763 441 216 642 371 56 275 385 107 
305 11 88 97 581 324 107 417 175 366 498 657 763 
306 9 430 52 696 303 503 59 160 699 209 
307 10 515 214 199 650 583 123 408 228 41 146 
308 10 110 202 277 610 96 566 768 631 182 732 
309 11 697 555 156 325 670 6 367 442 520 507 452 
310 10 381 90 44 638 523 741 707 100 3 363 
311 11 773 602 247 60 499 715 750 134 540 571 662 
312 11 219 476 106 572 485 620 424 460 416 459 398 
313 11 178 48 228 123 233 579 199 146 419 362 171 
314 11 33 401 25 141 682 235 403 46 749 646 464 
315 9 557 240 595 545 617 242 664 119 351 
316 11 563 412 70 407 586 413 328 365 549 2 46 
317 11 137 426 31 86 508 292 529 301 415 770 64 
318 11 621 384 348 104 364 22 284 361 744 514 323 
319 11 754 470 13 597 578 611 653 524 43 221 115 
320 11 372 624 29 675 616 285 444 350 477 554 598 
321 11 703 618 140 662 266 60 154 705 723 435 750 
322 11 131 453 435 43 754 208 154 319 721 723 266 
323 11 410 514 7 186 744 77 284 492 706 661 115 
324 11 417 498 88 305 642 441 175 581 304 107 37 
325 11 156 442 697 126 534 555 309 414 232 238 670 
326 11 176 502 302 431 26 109 136 615 475 24 279 
327 11 465 118 92 510 778 236 680 345 636 5 422 
328 11 270 586 316 407 365 563 70 412 549 413 495 
329 11 551 562 776 504 84 71 380 394 542 234 433 
330 11 552 525 644 669 684 80 658 685 331 743 375 
331 11 607 658 80 467 671 587 574 215 334 161 716 
332 11 652 528 489 399 758 300 685 65 16 296 644 
333 11 727 576 427 447 336 420 162 565 105 42 742 
334 11 702 467 716 522 298 161 725 387 201 293 711 
335 6 740 512 664 641 437 74 
336 10 576 727 427 565 333 777 42 687 105 162 
337 11 589 659 54 86 567 292 260 378 529 634 67 
338 11 377 604 491 245 363 479 258 741 111 273 628 
339 11 135 218 201 622 645 195 771 261 418 62 700 
340 11 389 423 484 83 474 288 735 449 212 150 698 
341 11 238 516 368 72 192 519 670 126 534 573 156 
342 11 483 9 734 343 220 388 111 280 559 628 689 
343 11 9 102 483 342 280 628 111 344 388 159 165 
344 10 165 213 14 779 280 343 9 102 100 159 
345 11 680 236 385 118 763 327 465 92 107 56 654 
346 11 775 98 38 590 656 204 471 634 205 262 355 
347 11 739 18 149 718 729 374 73 582 170 34 75 
348 11 621 22 318 361 384 104 208 364 744 43 115 
349 11 674 197 163 569 717 450 32 543 691 148 738 
350 11 477 554 616 412 598 70 563 624 675 413 316 
351 10 556 285 242 545 598 746 29 675 119 616 
352 11 720 20 445 281 605 353 152 53 82 41 50 
353 11 112 50 352 720 759 445 596 605 405 20 730 
354 7 458 456 672 184 501 187 124 
355 11 205 49 509 204 286 451 590 625 206 537 122 
356 11 257 673 66 527 406 276 95 299 34 173 169 
357 10 780 443 268 408 129 688 244 639 753 457 
358 8 180 760 132 769 405 253 541 506 
359 11 686 570 62 231 301 418 508 31 339 218 764 
360 11 289 274 57 690 469 781 404 81 614 639 244 
361 11 22 208 43 348 621 115 221 318 611 744 754 
362 11 171 419 752 48 178 579 166 524 593 13 313 
363 11 604 741 377 338 245 491 523 44 638 3 100 
364 11 384 284 125 496 7 318 323 410 514 500 104 
365 11 549 586 70 412 316 328 563 407 225 270 413 
366 9 581 657 461 194 305 88 97 324 498 
367 9 507 452 564 6 309 520 555 747 697 
368 11 516 238 670 341 573 519 72 156 309 697 126 
369 5 210 698 150 539 511 
370 11 660 705 540 618 703 321 662 60 311 396 750 
371 11 275 56 216 151 640 37 385 35 304 23 763 
372 11 320 624 444 29 675 251 285 619 616 350 477 
373 11 246 559 431 302 279 425 280 9 734 342 26 
374 11 170 149 729 121 582 517 668 347 739 438 433 
375 9 743 591 585 574 215 116 536 658 671 
376 10 764 736 378 231 570 300 359 686 16 399 
377 11 338 604 491 245 363 479 258 741 111 273 628 
378 11 736 231 376 589 570 337 764 359 508 86 686 
379 11 714 693 139 432 494 248 254 181 39 701 526 
380 11 234 114 250 143 84 562 619 464 329 551 209 
381 10 310 90 44 638 707 523 196 741 100 213 
382 11 533 566 546 182 277 709 768 631 755 138 267 
383 8 599 391 472 506 253 439 596 53 
384 11 364 318 104 284 621 323 410 514 744 125 463 
385 11 56 345 118 677 680 763 236 275 371 92 5 
386 11 55 679 101 486 728 606 63 158 575 96 732 
387 11 493 676 468 694 293 725 522 711 153 290 203 
388 11 111 628 483 479 568 220 273 342 258 689 734 
389 11 340 484 423 474 83 288 212 735 449 728 101 
390 11 505 667 19 190 287 518 4 144 255 69 666 
391 8 383 506 599 472 253 439 145 596 
392 11 772 15 762 8 496 500 147 695 125 706 233 
393 11 536 602 626 614 710 81 404 591 571 469 283 
394 11 692 402 227 600 84 127 235 612 155 252 682 
395 11 767 85 742 490 497 225 549 722 105 230 365 
396 11 540 499 311 370 705 660 602 626 60 558 393 
397 6 738 148 163 747 458 507 
398 11 424 620 459 128 229 460 572 79 553 429 416 
399 10 300 652 528 332 685 489 764 376 80 16 
400 11 152 753 688 457 268 153 20 87 408 82 357 
401 11 25 403 314 646 749 33 46 270 682 495 141 
402 11 394 235 612 127 682 33 692 141 600 227 314 
403 11 646 25 401 749 270 495 314 33 130 682 46 
404 11 81 614 710 469 571 536 274 360 393 283 591 
405 8 769 760 132 594 358 353 596 112 
406 11 673 34 356 257 66 527 222 95 276 299 160 
407 11 316 563 413 412 70 328 586 46 2 713 365 
408 10 443 268 688 457 753 87 357 82 780 41 
409 11 58 722 85 487 767 119 395 617 623 497 742 
410 11 323 514 186 744 7 77 492 284 706 661 115 
411 11 608 455 757 748 51 439 145 147 541 463 291 
412 11 70 563 316 586 407 365 549 413 328 554 350 
413 11 2 407 713 316 563 46 412 70 256 586 328 
414 11 534 126 325 156 442 192 232 697 238 341 30 
415 11 64 94 108 255 666 426 190 480 262 317 448 
416 11 460 572 106 459 424 620 204 590 205 398 775 
417 11 324 498 88 642 441 305 175 304 581 37 107 
418 11 686 62 359 339 570 135 218 231 201 301 298 
419 11 362 178 171 48 313 579 166 233 593 752 123 
420 11 447 427 333 727 576 11 742 207 490 336 105 
421 10 68 560 601 162 263 272 243 183 434 712 
422 11 138 510 636 631 755 778 768 92 182 462 249 
423 11 484 735 212 83 340 449 288 474 389 698 150 
424 11 620 398 459 572 460 416 128 229 553 79 106 
425 11 259 246 280 559 157 779 373 14 9 584 344 
426 11 31 137 317 770 301 448 508 771 195 415 480 
427 11 576 727 336 333 420 447 105 42 565 490 742 
428 11 91 237 547 172 446 89 603 47 76 466 436 
429 11 265 553 12 128 79 459 229 398 132 424 28 
430 11 52 306 59 226 160 303 503 637 696 544 641 
431 11 302 26 326 475 109 373 176 279 24 502 246 
432 11 379 693 139 714 248 39 526 766 494 719 181 
433 11 438 517 71 776 504 542 668 121 329 551 562 
434 11 27 174 183 295 712 263 272 243 560 731 436 
435 11 154 131 322 266 453 723 43 208 140 754 134 
436 11 179 241 482 76 678 239 89 295 446 603 428 
437 8 512 74 664 740 649 335 595 641 
438 11 433 517 668 542 121 71 776 504 329 551 562 
439 10 145 391 748 541 253 383 455 506 599 411 
440 11 714 278 379 432 561 693 139 494 117 254 535 
441 11 642 304 37 417 175 324 216 498 763 88 371 
442 10 325 555 156 697 232 126 534 309 414 367 
443 10 408 268 357 780 688 244 457 753 639 87 
444 9 251 619 372 320 699 624 209 29 250 
445 11 605 720 20 281 53 352 41 82 87 596 353 
446 11 603 89 665 76 172 466 530 189 580 91 428 
447 11 420 333 427 727 11 576 207 742 336 490 105 
448 11 480 771 195 645 770 255 261 144 190 218 135 
449 10 698 83 735 150 288 474 423 369 210 212 
450 11 349 674 513 691 32 569 197 163 148 30 521 
451 11 49 286 509 537 206 355 625 205 21 122 168 
452 7 507 564 367 747 6 520 309 
453 11 131 322 754 435 721 319 43 113 470 745 643 
454 11 211 237 547 428 10 224 91 47 27 172 294 
455 11 411 147 608 439 463 15 125 145 500 695 748 
456 9 354 458 184 672 501 124 187 271 724 
457 11 753 688 268 152 400 87 82 408 20 281 41 
458 7 354 456 672 184 124 501 187 
459 11 424 620 398 460 572 416 553 128 429 265 229 
460 11 572 416 459 424 620 106 398 553 12 204 429 
461 9 657 194 366 539 581 305 97 511 88 
462 8 249 636 631 610 202 422 510 138 
463 11 125 500 147 496 364 384 15 104 762 8 284 
464 11 141 235 708 538 256 33 314 84 46 402 713 
465 11 92 327 118 778 510 5 236 677 345 680 422 
466 11 189 530 172 580 681 603 665 120 446 724 651 
467 11 334 702 716 522 161 298 725 607 387 331 711 
468 11 694 676 203 164 153 387 493 630 290 704 633 
469 11 360 404 81 274 614 57 289 536 591 690 710 
470 11 653 319 577 643 13 113 593 745 754 721 166 
471 11 634 656 262 529 292 64 659 108 86 38 317 
472 8 506 599 383 391 596 253 605 53 
473 11 532 35 488 23 151 640 267 40 275 548 45 
474 11 288 83 449 340 150 698 423 735 101 389 484 
475 11 26 24 302 588 431 734 689 220 326 373 176 
476 10 219 312 106 620 572 424 485 460 398 416 
477 11 554 350 616 412 563 624 70 413 316 598 675 
478 11 99 737 4 635 592 185 633 704 518 751 700 
479 11 111 628 245 388 258 273 568 483 159 220 3 
480 11 255 448 190 144 261 771 195 645 770 505 592 
481 11 252 155 177 600 712 183 227 127 243 272 692 
482 11 239 678 241 179 436 295 76 731 223 89 517 
483 11 628 111 388 342 343 102 479 9 220 159 568 
484 11 423 212 340 735 83 449 389 288 485 474 260 
485 11 346 775 38 106 98 312 54 656 416 590 212 
486 11 728 207 101 386 679 756 11 55 447 722 420 
487 11 623 409 722 58 756 617 85 119 767 11 395 
488 11 473 35 532 40 151 640 23 267 275 371 216 
489 11 758 16 652 332 399 296 528 300 376 65 685 
490 11 742 105 395 767 225 230 42 191 130 85 549 
491 11 604 338 377 363 245 479 741 258 523 638 44 
492 11 661 77 186 706 410 7 323 514 744 578 597 
493 11 293 387 153 711 694 676 468 725 522 203 290 
494 11 254 117 181 139 693 714 379 701 17 432 655 
495 11 130 191 646 270 403 749 25 230 328 401 225 
496 11 500 8 762 125 392 772 284 7 15 364 706 
497 11 549 746 365 70 586 412 598 616 350 563 554 
498 11 324 417 88 305 581 642 441 175 304 366 107 
499 11 311 602 626 393 540 396 536 710 571 614 81 
500 11 496 125 762 8 15 772 147 392 463 364 284 
501 11 184 124 456 187 271 724 672 354 120 458 282 
502 11 136 176 326 109 431 302 279 26 615 74 641 
503 11 303 59 160 222 306 430 696 52 143 209 542 
504 11 776 71 329 551 562 433 648 223 438 394 692 
505 11 390 667 190 19 518 144 4 287 255 99 592 
506 8 472 599 391 383 596 253 605 53 
507 7 452 367 564 747 6 309 520 
508 11 31 137 301 317 86 426 570 62 589 359 292 
509 11 451 625 537 49 355 286 205 206 204 590 21 
510 11 636 422 327 465 249 778 92 138 118 462 755 
511 6 539 654 236 97 680 327 
512 8 740 437 664 74 335 641 649 595 
513 11 450 349 629 197 198 733 717 36 647 674 543 
514 11 410 744 323 77 7 186 284 492 115 221 661 
515 11 307 199 650 146 228 123 214 233 313 583 695 
516 11 368 238 341 670 573 72 519 156 126 534 192 
517 11 433 438 121 668 170 71 504 542 776 223 374 
518 11 185 4 633 667 737 730 478 19 99 297 505 
519 11 72 516 573 627 368 341 238 655 670 17 192 
520 11 6 564 367 309 217 452 507 670 17 719 701 
521 11 30 414 691 32 192 126 232 534 442 325 156 
522 11 725 161 387 293 334 702 711 493 467 298 676 
523 11 638 44 90 310 363 741 381 3 100 604 159 
524 11 13 578 597 752 661 653 611 492 171 77 221 
525 11 669 330 644 552 684 80 685 761 116 658 743 
526 11 39 248 432 766 719 693 139 379 78 714 217 
527 11 257 356 173 673 276 193 66 406 169 95 299 
528 11 332 399 652 685 300 489 80 644 758 65 552 
529 11 292 471 634 659 86 64 317 262 137 656 108 
530 11 580 189 665 466 603 200 681 446 651 61 172 
531 8 575 732 610 606 462 63 158 202 
532 11 473 267 23 35 488 151 640 548 45 709 677 
533 11 382 182 566 709 546 755 768 277 138 631 45 
534 11 126 414 156 325 442 697 238 555 232 341 192 
535 11 278 561 774 75 103 440 73 663 714 379 432 
536 11 393 591 404 81 614 710 626 469 602 571 375 
537 11 451 509 625 49 286 594 206 355 205 21 168 
538 11 708 256 713 2 464 46 141 413 33 235 250 
539 5 511 194 654 210 97 
540 11 705 311 370 60 499 396 618 662 660 773 750 
541 10 748 145 439 253 613 180 757 391 51 411 
542 11 438 668 433 329 551 562 776 504 71 121 143 
543 10 717 647 167 738 397 458 197 354 163 456 
544 11 584 226 637 157 193 259 279 425 52 109 373 
545 8 242 240 351 556 285 315 119 746 
546 11 382 533 277 566 182 709 768 267 755 631 138 
547 11 91 224 47 10 428 632 188 172 237 550 726 
548 11 45 677 5 23 755 778 92 709 267 151 118 
549 11 365 586 70 412 563 316 328 225 407 497 413 
550 11 188 632 120 765 726 724 47 271 172 501 124 
551 11 329 562 776 504 84 71 380 394 542 234 433 
552 11 330 80 644 525 685 658 331 669 607 684 528 
553 11 429 265 12 459 128 79 398 424 460 229 132 
554 11 477 350 616 412 563 70 316 413 624 598 675 
555 10 697 442 325 156 309 232 126 367 534 507 
556 8 242 285 351 545 29 675 598 320 
557 9 315 240 595 617 545 119 242 664 351 
558 11 761 116 684 626 743 375 591 669 393 525 536 
559 11 246 280 9 373 342 425 343 734 483 259 220 
560 10 263 68 421 162 272 243 183 712 177 434 
561 11 103 75 440 535 278 133 117 714 379 494 254 
562 11 329 551 776 84 504 71 380 394 234 542 692 
563 11 316 412 70 407 586 413 328 365 549 2 554 
564 7 452 507 367 6 747 520 309 
565 10 777 687 336 177 42 576 105 243 272 427 
566 11 182 382 533 277 768 546 631 138 709 755 308 
567 11 67 260 54 337 378 589 659 736 86 292 634 
568 11 273 220 258 689 388 111 479 628 734 483 342 
569 10 32 148 163 674 691 30 232 738 397 442 
570 11 359 231 686 62 301 508 31 418 736 137 426 
571 11 710 614 81 283 404 274 393 602 360 536 469 
572 11 460 416 459 106 424 620 398 553 12 204 590 
573 11 368 516 670 17 519 238 341 72 181 655 701 
574 9 215 671 585 587 658 683 607 331 161 
575 8 531 606 732 63 158 610 202 462 
576 11 427 727 336 333 420 565 105 447 42 777 490 
577 11 643 113 470 745 593 653 166 721 319 13 283 
578 11 597 611 524 661 13 221 115 77 492 319 752 
579 11 48 233 178 313 146 228 362 419 171 199 123 
580 11 530 189 665 466 200 651 681 61 603 663 39 
581 11 366 305 88 498 657 324 417 461 194 97 107 
582 11 149 774 374 170 535 278 347 18 729 739 75 
583 10 214 244 639 781 690 57 123 307 443 780 
584 11 544 157 193 259 425 226 637 173 779 279 527 
585 9 574 215 671 587 658 683 607 375 161 
586 11 70 365 316 412 563 549 328 407 413 270 225 
587 9 683 671 215 574 161 585 607 264 725 
588 11 24 475 689 26 220 568 273 734 258 302 388 
589 11 86 337 659 292 508 137 317 529 31 301 634 
590 11 204 205 355 98 775 49 509 286 451 346 625 
591 9 536 375 743 393 469 404 626 81 614 
592 11 99 635 478 751 4 737 144 700 261 185 704 
593 11 166 653 577 171 470 362 13 524 419 752 643 
594 11 537 769 112 405 451 132 625 509 168 286 21 
595 9 315 557 437 664 240 512 649 545 74 
596 9 472 506 599 605 720 445 53 353 383 
597 11 578 611 221 115 661 13 524 77 492 319 744 
598 11 616 675 746 29 350 477 554 351 285 320 624 
599 8 472 506 383 391 596 253 605 53 
600 11 252 227 127 692 155 394 612 402 481 682 177 
601 11 421 68 16 162 560 489 758 296 263 211 652 
602 11 393 710 536 614 571 626 81 404 311 499 591 
603 11 446 665 89 530 466 76 172 189 580 681 61 
604 11 338 491 377 363 245 741 479 523 258 3 44 
605 10 445 720 53 281 20 41 596 82 352 87 
606 10 63 158 575 732 531 96 110 610 202 308 
607 11 331 658 587 671 574 215 467 161 585 683 334 
608 11 411 455 757 51 748 147 463 145 291 439 125 
609 11 669 525 294 644 330 761 558 684 65 552 116 
610 9 202 462 732 308 631 110 768 249 566 
611 11 221 597 115 578 77 661 13 492 524 744 319 
612 11 682 127 402 33 314 25 600 749 401 235 403 
613 11 142 28 541 291 748 180 51 757 358 145 253 
614 11 81 710 404 571 536 274 283 393 469 360 602 
615 11 24 176 326 26 475 302 502 588 431 136 109 
616 11 350 598 477 554 675 29 320 624 746 412 70 
617 10 240 623 58 119 557 315 409 545 487 351 
618 11 662 703 321 60 705 140 750 715 773 723 266 
619 9 251 444 699 209 372 696 250 143 114 
620 11 424 398 459 572 460 416 128 229 553 106 79 
621 11 348 318 22 384 361 104 364 284 744 208 514 
622 11 201 135 700 751 261 339 645 195 218 290 592 
623 11 487 617 409 58 557 119 240 722 85 315 756 
624 11 320 372 675 29 477 350 554 616 444 251 598 
625 11 509 537 451 355 49 205 286 204 594 206 12 
626 11 393 536 591 116 602 743 375 81 404 614 710 
627 11 519 655 72 573 117 516 368 341 238 254 17 
628 11 111 388 483 479 102 159 245 342 343 568 3 
629 11 36 733 197 647 93 717 167 543 282 349 726 
630 11 164 203 297 704 633 468 694 185 730 737 676 
631 10 768 138 182 422 566 202 462 610 755 533 
632 11 188 550 726 765 47 120 271 724 282 172 124 
633 11 185 704 737 4 164 478 518 297 99 203 635 
634 11 471 656 529 659 292 262 64 108 86 38 317 
635 11 99 478 592 700 737 751 4 704 185 290 633 
636 10 510 249 422 462 138 327 465 778 92 631 
637 11 226 279 544 109 584 52 373 425 157 259 431 
638 11 523 44 90 310 381 741 363 3 100 159 604 
639 10 244 780 583 214 781 690 57 357 443 129 
640 11 151 275 35 56 371 23 473 216 532 548 385 
641 10 740 335 74 512 136 437 664 502 52 649 
642 11 441 304 37 417 324 175 498 216 88 763 371 
643 11 113 745 577 721 470 653 593 166 319 453 247 
644 11 552 330 525 685 669 80 528 332 65 399 331 
645 11 195 771 218 448 135 261 770 480 622 144 339 
646 11 403 25 749 495 270 401 130 191 314 328 682 
647 11 717 167 36 543 93 197 282 124 629 271 458 
648 11 223 731 71 504 776 155 692 227 295 252 394 
649 11 74 437 512 740 664 136 502 641 595 335 176 
650 11 695 515 146 199 228 307 233 392 772 15 123 
651 9 200 681 187 672 78 189 217 580 184 
652 10 332 399 528 489 300 758 16 685 376 764 
653 11 593 13 470 166 524 577 319 171 578 752 597 
654 9 97 236 511 680 107 345 539 327 118 
655 11 117 254 627 494 17 181 519 573 701 139 72 
656 11 634 471 38 659 262 529 292 64 108 346 98 
657 9 461 194 366 581 305 539 88 97 511 
658 9 574 671 607 215 585 331 587 80 375 
659 11 292 529 634 86 471 589 656 337 317 137 262 
660 11 370 705 540 618 703 321 662 60 396 311 750 
661 11 492 77 578 597 524 186 611 706 410 752 7 
662 11 60 618 750 715 773 723 703 134 140 321 154 
663 11 61 39 526 278 432 379 714 248 693 440 139 
664 7 512 740 335 437 74 595 641 
665 11 530 603 580 189 446 466 89 76 61 172 200 
666 11 94 21 122 168 287 390 206 415 505 19 667 
667 11 19 287 69 390 518 505 730 4 185 737 297 
668 11 121 438 542 433 517 170 729 374 222 776 71 
669 11 525 330 644 552 684 761 558 116 609 80 685 
670 11 368 516 238 573 309 697 156 341 325 520 17 
671 9 215 574 585 587 683 658 607 161 331 
672 9 187 184 456 354 501 458 681 124 724 
673 11 356 257 66 406 527 95 34 276 299 173 169 
674 11 691 32 569 163 148 349 30 521 232 738 397 
675 11 29 320 616 598 624 285 372 350 477 554 351 
676 11 468 694 387 203 290 493 164 153 630 704 293 
677 11 5 45 548 92 778 23 118 465 755 385 56 
678 11 239 482 241 179 436 76 295 89 517 582 374 
679 11 101 55 728 386 486 606 575 63 474 158 531 
680 11 236 345 118 327 654 763 385 107 465 92 97 
681 10 651 187 189 672 724 120 184 466 501 200 
682 11 612 25 314 33 749 401 127 403 402 235 646 
683 10 587 264 161 215 671 129 574 585 725 711 
684 11 116 743 761 558 375 330 525 626 669 591 552 
685 10 528 80 399 644 552 300 332 652 331 330 
686 11 359 62 570 418 231 301 31 339 508 218 135 
687 10 777 565 177 42 191 749 130 495 612 127 
688 10 753 457 268 400 152 408 443 87 357 82 
689 11 220 568 734 273 388 342 258 111 483 628 479 
690 11 57 781 289 583 639 214 360 244 123 274 780 
691 11 32 674 569 30 521 148 163 232 414 442 534 
692 11 227 394 600 155 252 402 127 612 481 235 84 
693 11 139 379 714 432 494 248 254 181 701 766 719 
694 11 468 676 153 203 493 387 164 630 290 704 293 
695 11 650 15 772 392 147 146 515 228 233 199 500 
696 8 209 699 306 619 143 251 444 503 
697 10 555 156 325 309 442 126 534 670 367 232 
698 8 150 449 369 210 288 83 735 474 
699 8 209 696 619 251 444 143 306 372 
700 11 751 635 622 592 290 99 201 261 478 144 737 
701 11 181 17 719 139 766 254 248 494 693 379 432 
702 11 334 467 716 298 522 725 161 387 201 290 339 
703 11 321 618 662 140 266 60 154 705 723 750 715 
704 11 633 164 737 185 4 203 478 99 635 297 518 
705 11 370 618 660 540 703 662 60 321 750 715 773 
706 11 186 7 492 323 410 661 77 8 514 762 284 
707 6 196 381 213 90 310 269 
708 11 538 256 713 2 464 141 46 250 235 413 33 
709 11 533 382 267 755 182 45 546 566 548 5 138 
710 11 614 571 81 404 283 393 274 536 602 469 360 
711 11 293 725 493 387 153 522 264 161 694 676 468 
712 10 183 243 272 481 177 252 155 174 263 600 
713 11 2 256 46 413 538 708 407 316 563 412 141 
714 11 379 693 139 432 494 254 181 248 117 440 701 
715 11 750 773 134 723 60 247 662 721 745 453 113 
716 10 702 334 467 298 418 522 339 201 161 622 
717 11 543 647 197 167 282 738 36 458 397 93 124 
718 11 95 739 299 347 66 34 673 356 18 406 257 
719 11 766 248 217 701 78 139 181 432 526 693 17 
720 11 445 605 352 20 281 53 596 353 41 82 87 
721 11 745 113 643 577 470 453 247 134 319 653 131 
722 11 409 85 767 58 395 742 487 11 490 207 497 
723 11 134 715 750 773 154 453 131 435 721 322 247 
724 11 120 501 184 271 187 124 550 681 672 765 188 
725 11 522 711 293 161 387 493 153 264 676 694 334 
726 11 765 632 188 271 282 550 47 120 124 724 167 
727 11 576 333 427 336 420 447 565 105 162 42 777 
728 11 101 679 486 55 386 207 474 288 11 340 389 
729 11 170 374 121 668 149 34 739 347 517 438 222 
730 11 297 518 759 69 185 667 19 50 633 4 287 
731 11 223 648 295 71 174 504 155 776 227 692 252 
732 10 158 610 63 531 202 110 575 606 96 308 
733 11 36 93 629 647 282 10 167 726 197 224 717 
734 11 220 689 342 568 388 483 273 9 111 559 628 
735 10 449 423 83 212 484 698 288 150 474 340 
736 11 378 231 570 764 359 376 589 508 686 337 86 
737 11 4 478 185 633 99 704 635 518 592 164 203 
738 6 397 148 163 543 458 747 
739 11 347 18 718 149 729 374 582 73 34 170 75 
740 7 335 512 641 664 74 437 649 
741 11 3 100 159 44 363 90 102 523 638 245 628 
742 11 490 767 395 105 85 722 225 420 230 42 427 
743 9 375 116 591 684 626 536 585 393 558 
744 11 514 410 77 323 115 186 7 221 492 284 661 
745 11 113 721 643 577 470 247 453 653 134 319 593 
746 11 598 497 351 616 119 675 350 477 554 29 285 
747 5 452 507 564 367 6 
748 11 541 145 757 439 51 411 291 613 608 455 253 
749 11 25 403 646 401 495 682 270 314 130 191 33 
750 11 715 773 134 723 60 247 662 721 154 453 745 
751 11 700 592 261 635 99 622 144 478 201 135 290 
752 11 171 524 362 661 13 492 578 597 706 77 653 
753 11 457 688 152 400 268 87 408 82 20 443 281 
754 11 319 43 611 208 597 221 322 453 470 578 115 
755 11 138 778 5 45 422 182 533 709 677 92 548 
756 11 487 486 623 207 722 409 11 58 85 617 767 
757 11 51 291 411 748 608 541 145 455 142 613 439 
758 11 489 296 332 652 16 65 528 399 300 685 376 
759 11 50 730 112 69 297 19 353 667 287 518 185 
760 8 358 769 132 180 405 253 594 12 
761 11 558 116 684 743 626 375 669 525 330 591 393 
762 11 8 496 392 500 772 706 7 186 15 284 125 
763 11 175 345 107 304 680 385 236 37 56 97 371 
764 10 231 376 359 736 570 686 378 418 62 300 
765 11 726 271 632 188 282 550 120 124 724 501 167 
766 11 719 248 217 78 701 526 139 432 693 39 181 
767 11 395 742 85 490 722 497 225 105 409 58 230 
768 10 631 182 566 138 382 422 533 277 755 202 
769 9 405 760 132 358 594 180 112 353 537 
770 11 771 448 195 645 218 426 480 255 261 31 135 
771 11 195 645 448 770 218 261 135 480 255 144 190 
772 11 392 15 762 8 500 496 147 695 125 706 650 
773 11 715 750 134 247 723 60 662 721 745 113 643 
774 11 535 278 582 663 75 440 61 561 103 149 379 
775 11 98 346 38 590 204 205 656 355 262 471 634 
776 11 504 71 329 551 562 433 438 648 223 542 84 
777 10 565 687 177 42 336 243 272 191 127 130 
778 11 92 465 5 118 755 677 327 422 45 138 510 
779 11 14 259 344 165 213 425 269 280 157 9 246 
780 10 357 244 639 443 129 408 268 583 214 688 
781 11 690 57 583 214 639 289 244 360 123 780 199 
DEPOT_SECTION
   1
   -1
EOF
