NAME :  X-n856-kX-w342-c11.cctp
COMMENT : 	Adapted by Maziero, Usberti and Cavellucci from the Uchoa, Pecin, Pessoa, Poggi, Subramanian, and Vidal (2013)
TYPE :  CCTP
DIMENSION :    781
EDGE_WEIGHT_TYPE : 	EUC_2D	
CAPACITY : 	9
VERTICES_WITHIN_COVERAGE :  11
VERTICES_WITH_DEMAND : 	342
NODE_COORD_SECTION
1 500 500
2 440 732
3 221 348
4 117 545
5 493 645
6 135 12
7 775 997
8 745 444
9 950 311
10 530 150
11 900 508
12 48 519
13 269 217
14 722 349
15 480 733
16 977 422
17 999 220
18 636 332
19 851 162
20 559 567
21 389 69
22 529 835
23 303 427
24 400 638
25 894 904
26 482 109
27 579 800
28 184 82
29 669 753
30 906 424
31 374 692
32 174 613
33 75 37
34 38 563
35 838 157
36 710 709
37 176 67
38 449 326
39 71 389
40 710 115
41 237 547
42 530 27
43 631 223
44 171 342
45 226 65
46 6 998
47 24 635
48 668 165
49 318 608
50 429 82
51 212 237
52 853 126
53 387 47
54 677 144
55 111 790
56 957 32
57 511 647
58 457 561
59 86 687
60 290 456
61 473 563
62 807 725
63 461 468
64 739 235
65 257 340
66 588 545
67 6 311
68 268 976
69 552 414
70 994 946
71 452 534
72 422 545
73 248 611
74 43 366
75 977 96
76 822 580
77 940 650
78 86 263
79 715 99
80 668 981
81 424 638
82 297 607
83 251 282
84 237 413
85 202 573
86 181 385
87 126 528
88 386 811
89 978 846
90 70 99
91 333 357
92 49 870
93 157 734
94 627 268
95 818 433
96 738 555
97 350 909
98 337 926
99 978 59
100 42 595
101 870 933
102 19 120
103 165 679
104 131 984
105 232 755
106 319 417
107 187 376
108 251 482
109 657 219
110 209 397
111 800 377
112 228 116
113 566 559
114 490 156
115 216 547
116 964 677
117 85 897
118 292 807
119 600 893
120 938 222
121 543 747
122 572 976
123 569 59
124 712 574
125 971 515
126 616 306
127 695 837
128 421 821
129 604 995
130 537 957
131 1000 653
132 282 817
133 380 874
134 778 101
135 462 74
136 87 682
137 441 228
138 608 430
139 511 313
140 710 300
141 630 24
142 626 650
143 531 719
144 598 824
145 995 622
146 258 981
147 358 281
148 279 169
149 286 268
150 259 659
151 782 132
152 862 518
153 457 603
154 210 438
155 44 44
156 527 818
157 164 156
158 23 86
159 342 930
160 39 282
161 269 848
162 436 886
163 323 340
164 237 891
165 333 488
166 517 137
167 591 972
168 541 888
169 122 280
170 159 655
171 200 158
172 446 283
173 107 315
174 588 270
175 158 374
176 26 353
177 959 76
178 852 328
179 927 736
180 437 138
181 53 938
182 333 192
183 922 499
184 407 948
185 970 664
186 237 738
187 8 561
188 747 852
189 989 908
190 100 860
191 10 960
192 842 190
193 595 716
194 286 965
195 199 373
196 159 67
197 979 25
198 488 479
199 804 620
200 742 853
201 528 160
202 223 342
203 503 159
204 711 681
205 339 340
206 342 509
207 931 593
208 766 953
209 710 172
210 521 451
211 172 159
212 685 836
213 639 155
214 763 656
215 269 241
216 825 761
217 330 177
218 901 124
219 713 860
220 619 926
221 692 19
222 96 876
223 949 178
224 79 795
225 833 852
226 336 444
227 877 0
228 296 597
229 566 735
230 940 377
231 349 269
232 939 827
233 908 120
234 50 741
235 670 569
236 753 744
237 577 351
238 141 616
239 97 625
240 64 875
241 496 160
242 515 598
243 344 803
244 274 510
245 291 170
246 800 300
247 74 609
248 365 207
249 791 396
250 453 848
251 405 191
252 395 290
253 525 743
254 260 385
255 408 837
256 1 346
257 231 504
258 837 572
259 606 473
260 900 729
261 346 868
262 123 80
263 477 169
264 383 59
265 510 410
266 890 101
267 952 635
268 825 722
269 68 598
270 234 841
271 911 720
272 172 367
273 569 289
274 84 19
275 694 916
276 454 412
277 261 233
278 693 375
279 588 854
280 276 538
281 599 569
282 142 158
283 338 805
284 324 194
285 739 325
286 845 639
287 638 182
288 858 93
289 40 923
290 37 599
291 638 39
292 218 714
293 568 674
294 288 840
295 439 570
296 325 801
297 587 278
298 992 674
299 597 608
300 174 865
301 65 330
302 872 434
303 620 129
304 339 681
305 178 811
306 478 966
307 469 749
308 475 791
309 799 594
310 692 130
311 59 223
312 811 2
313 5 946
314 219 305
315 759 951
316 656 889
317 582 18
318 97 885
319 888 467
320 899 286
321 512 358
322 188 776
323 220 951
324 503 801
325 483 402
326 685 904
327 483 722
328 13 301
329 387 976
330 607 709
331 857 739
332 51 422
333 818 797
334 302 646
335 474 101
336 817 66
337 573 973
338 948 686
339 922 552
340 586 899
341 153 503
342 47 817
343 740 970
344 216 852
345 261 776
346 935 540
347 920 879
348 642 623
349 305 71
350 268 373
351 409 940
352 374 176
353 894 60
354 539 352
355 605 457
356 4 240
357 340 303
358 563 524
359 861 875
360 700 810
361 160 753
362 985 455
363 981 276
364 708 646
365 575 249
366 777 725
367 724 888
368 853 773
369 4 27
370 743 430
371 301 574
372 38 983
373 575 209
374 10 683
375 878 342
376 745 333
377 616 311
378 537 110
379 70 839
380 531 647
381 157 736
382 609 356
383 450 852
384 534 11
385 436 279
386 340 578
387 41 809
388 971 282
389 389 628
390 171 951
391 821 278
392 633 578
393 158 858
394 374 163
395 219 471
396 392 784
397 586 937
398 546 923
399 619 737
400 700 50
401 722 223
402 112 450
403 857 66
404 81 295
405 314 964
406 829 981
407 723 590
408 645 700
409 318 800
410 277 268
411 459 81
412 573 211
413 391 259
414 368 81
415 262 451
416 629 44
417 390 264
418 842 703
419 780 254
420 653 177
421 882 625
422 763 432
423 615 183
424 62 855
425 629 543
426 27 83
427 822 574
428 355 86
429 519 683
430 111 12
431 957 366
432 265 184
433 985 701
434 215 888
435 945 515
436 76 204
437 553 988
438 22 32
439 817 463
440 938 553
441 441 911
442 944 473
443 120 85
444 139 101
445 551 214
446 422 750
447 373 976
448 196 122
449 312 75
450 870 353
451 25 46
452 470 958
453 184 140
454 890 462
455 841 551
456 82 88
457 979 491
458 898 582
459 439 811
460 199 182
461 239 151
462 960 334
463 67 99
464 49 100
465 253 120
466 124 84
467 64 183
468 453 987
469 490 869
470 421 756
471 862 440
472 170 166
473 854 544
474 58 109
475 135 102
476 408 787
477 845 522
478 350 875
479 24 154
480 732 438
481 322 797
482 569 889
483 286 3
484 19 558
485 482 967
486 271 127
487 425 909
488 405 777
489 921 499
490 513 901
491 541 920
492 41 240
493 876 405
494 449 871
495 786 558
496 467 684
497 827 446
498 625 441
499 321 913
500 935 443
501 378 902
502 95 48
503 939 576
504 991 561
505 887 479
506 822 451
507 137 252
508 556 988
509 769 375
510 445 848
511 925 421
512 674 544
513 117 30
514 388 987
515 119 18
516 134 297
517 614 521
518 887 325
519 467 903
520 772 461
521 423 944
522 379 846
523 916 509
524 983 447
525 667 885
526 465 911
527 96 17
528 425 963
529 93 201
530 132 93
531 671 926
532 901 468
533 93 287
534 795 581
535 741 514
536 119 223
537 503 964
538 849 388
539 80 58
540 116 81
541 123 266
542 683 363
543 77 114
544 872 520
545 187 62
546 918 677
547 19 198
548 909 427
549 937 395
550 80 88
551 510 919
552 25 87
553 421 825
554 855 443
555 468 802
556 2 112
557 647 389
558 876 475
559 422 970
560 705 454
561 151 897
562 853 420
563 883 484
564 27 44
565 154 38
566 285 921
567 50 196
568 956 449
569 259 863
570 702 637
571 422 975
572 432 847
573 112 263
574 908 625
575 783 344
576 422 744
577 372 987
578 860 387
579 168 96
580 358 850
581 476 813
582 62 117
583 539 970
584 278 215
585 854 616
586 379 769
587 418 899
588 46 207
589 466 816
590 890 559
591 688 555
592 826 582
593 401 805
594 384 826
595 320 775
596 204 336
597 866 515
598 117 139
599 397 949
600 405 865
601 724 356
602 414 830
603 131 31
604 318 200
605 946 468
606 1 157
607 542 729
608 245 352
609 539 905
610 827 317
611 376 836
612 878 519
613 212 724
614 876 516
615 939 557
616 380 841
617 149 149
618 330 999
619 104 67
620 283 883
621 866 497
622 138 48
623 814 455
624 970 535
625 450 898
626 220 93
627 208 26
628 317 96
629 921 488
630 903 248
631 849 498
632 180 59
633 69 98
634 199 69
635 884 460
636 879 525
637 57 102
638 978 705
639 929 486
640 691 634
641 456 977
642 391 789
643 442 872
644 754 759
645 854 615
646 820 450
647 326 986
648 71 69
649 315 718
650 377 938
651 44 74
652 290 921
653 899 478
654 24 197
655 142 147
656 437 837
657 742 549
658 288 844
659 792 425
660 262 65
661 533 687
662 213 160
663 860 414
664 884 459
665 4 153
666 140 44
667 521 878
668 575 779
669 442 900
670 877 579
671 893 487
672 73 13
673 394 886
674 511 949
675 474 772
676 812 425
677 684 471
678 458 971
679 132 137
680 797 351
681 386 268
682 953 616
683 382 794
684 548 895
685 861 525
686 372 780
687 967 425
688 534 912
689 396 888
690 82 60
691 856 523
692 12 90
693 8 208
694 303 67
695 497 721
696 454 984
697 120 69
698 40 111
699 347 868
700 377 932
701 296 934
702 896 547
703 884 450
704 926 500
705 380 921
706 423 888
707 848 444
708 716 514
709 871 532
710 870 564
711 529 867
712 451 999
713 852 522
714 406 859
715 51 110
716 919 577
717 824 407
718 274 236
719 854 533
720 336 959
721 813 702
722 210 304
723 460 867
724 315 915
725 454 857
726 905 380
727 831 580
728 399 106
729 904 561
730 420 930
731 876 448
732 102 164
733 74 112
734 139 43
735 370 995
736 849 441
737 405 938
738 57 100
739 78 81
740 170 77
741 959 379
742 347 913
743 316 803
744 115 74
745 538 906
746 939 530
747 235 819
748 982 463
749 463 971
750 847 370
751 200 145
752 769 970
753 712 624
754 910 566
755 867 531
756 352 966
757 490 865
758 451 831
759 408 920
760 341 453
761 10 127
762 1 25
763 918 775
764 277 884
765 884 435
766 745 448
767 118 13
768 222 755
769 695 341
770 25 18
771 380 843
772 436 877
773 912 446
774 405 857
775 486 866
776 568 430
777 935 513
778 821 687
779 367 814
780 33 97
781 411 722
DEMAND_SECTION
2 1
3 1
4 1
5 1
6 1
7 1
8 1
9 1
10 1
11 1
12 1
13 1
14 1
15 1
16 1
17 1
18 1
19 1
20 1
21 1
22 1
23 1
24 1
25 1
26 1
27 1
28 1
29 1
30 1
31 1
32 1
33 1
34 1
35 1
36 1
37 1
38 1
39 1
40 1
41 1
42 1
43 1
44 1
45 1
46 1
47 1
48 1
49 1
50 1
51 1
52 1
53 1
54 1
55 1
56 1
57 1
58 1
59 1
60 1
61 1
62 1
63 1
64 1
65 1
66 1
67 1
68 1
69 1
70 1
71 1
72 1
73 1
74 1
75 1
76 1
77 1
78 1
79 1
80 1
81 1
82 1
83 1
84 1
85 1
86 1
87 1
88 1
89 1
90 1
91 1
92 1
93 1
94 1
95 1
96 1
97 1
98 1
99 1
100 1
101 1
102 1
103 1
104 1
105 1
106 1
107 1
108 1
109 1
110 1
111 1
112 1
113 1
114 1
115 1
116 1
117 1
118 1
119 1
120 1
121 1
122 1
123 1
124 1
125 1
126 1
127 1
128 1
129 1
130 1
131 1
132 1
133 1
134 1
135 1
136 1
137 1
138 1
139 1
140 1
141 1
142 1
143 1
144 1
145 1
146 1
147 1
148 1
149 1
150 1
151 1
152 1
153 1
154 1
155 1
156 1
157 1
158 1
159 1
160 1
161 1
162 1
163 1
164 1
165 1
166 1
167 1
168 1
169 1
170 1
171 1
172 1
173 1
174 1
175 1
176 1
177 1
178 1
179 1
180 1
181 1
182 1
183 1
184 1
185 1
186 1
187 1
188 1
189 1
190 1
191 1
192 1
193 1
194 1
195 1
196 1
197 1
198 1
199 1
200 1
201 1
202 1
203 1
204 1
205 1
206 1
207 1
208 1
209 1
210 1
211 1
212 1
213 1
214 1
215 1
216 1
217 1
218 1
219 1
220 1
221 1
222 1
223 1
224 1
225 1
226 1
227 1
228 1
229 1
230 1
231 1
232 1
233 1
234 1
235 1
236 1
237 1
238 1
239 1
240 1
241 1
242 1
243 1
244 1
245 1
246 1
247 1
248 1
249 1
250 1
251 1
252 1
253 1
254 1
255 1
256 1
257 1
258 1
259 1
260 1
261 1
262 1
263 1
264 1
265 1
266 1
267 1
268 1
269 1
270 1
271 1
272 1
273 1
274 1
275 1
276 1
277 1
278 1
279 1
280 1
281 1
282 1
283 1
284 1
285 1
286 1
287 1
288 1
289 1
290 1
291 1
292 1
293 1
294 1
295 1
296 1
297 1
298 1
299 1
300 1
301 1
302 1
303 1
304 1
305 1
306 1
307 1
308 1
309 1
310 1
311 1
312 1
313 1
314 1
315 1
316 1
317 1
318 1
319 1
320 1
321 1
322 1
323 1
324 1
325 1
326 1
327 1
328 1
329 1
330 1
331 1
332 1
333 1
334 1
335 1
336 1
337 1
338 1
339 1
340 1
341 1
342 1
343 1
COVERAGE_SECTION
2 11 576 446 470 781 307 15 327 675 496 488 695 
3 11 202 596 608 195 65 314 107 722 44 110 272 
4 11 87 341 269 12 238 247 34 239 32 85 100 
5 11 57 380 429 496 242 153 661 81 695 327 293 
6 11 515 767 603 430 513 734 565 666 622 527 274 
7 11 752 343 208 315 406 80 101 275 367 531 326 
8 10 766 370 480 422 520 560 659 249 677 535 
9 11 462 388 363 431 320 518 230 741 375 630 726 
10 11 201 166 203 241 114 378 263 26 445 335 373 
11 10 523 671 489 183 612 614 636 704 563 629 
12 11 34 484 187 4 100 87 269 290 247 402 332 
13 11 584 277 718 215 432 148 245 410 604 149 51 
14 11 601 376 769 285 278 542 140 509 575 680 111 
15 11 327 307 695 675 2 253 496 143 308 576 446 
16 9 687 524 362 568 748 500 741 549 511 
17 11 363 120 223 388 630 9 320 462 75 233 218 
18 11 377 126 382 542 557 769 237 94 278 297 174 
19 11 35 192 52 218 288 233 266 151 134 403 223 
20 11 113 66 281 358 242 299 517 425 392 380 61 
21 11 264 53 414 428 728 50 411 135 449 628 180 
22 11 156 711 324 667 757 469 775 168 581 27 279 
23 11 106 60 226 760 415 254 350 84 165 91 108 
24 11 389 81 31 153 304 295 496 386 781 49 5 
25 11 347 101 359 225 232 189 406 89 70 333 763 
26 11 335 411 135 166 114 241 180 203 378 50 263 
27 11 668 144 156 279 22 121 229 399 324 253 607 
28 9 740 37 545 634 579 632 196 626 448 
29 11 399 408 36 360 330 193 204 236 212 644 127 
30 11 548 511 773 765 703 302 500 493 731 454 664 
31 11 304 781 24 649 389 576 81 446 2 586 470 
32 11 238 170 85 103 73 115 239 4 41 150 87 
33 11 274 539 502 672 690 527 155 648 619 513 430 
34 11 484 187 100 290 12 269 247 47 4 239 87 
35 11 19 192 52 151 288 218 266 233 134 336 403 
36 11 204 236 29 364 408 644 366 570 214 640 753 
37 11 632 545 740 28 196 634 579 565 622 666 734 
38 11 172 385 139 252 321 325 276 417 681 413 354 
39 11 74 332 176 301 402 173 256 175 404 67 272 
40 11 79 310 54 209 48 400 134 151 213 420 303 
41 11 115 280 257 85 244 73 108 371 228 395 82 
42 11 384 123 317 135 378 411 335 26 141 416 291 
43 11 109 287 423 94 420 373 412 365 174 213 48 
44 11 272 596 175 107 195 86 3 202 722 516 314 
45 11 634 626 660 545 627 28 632 37 112 740 465 
46 11 372 191 313 181 289 104 117 92 240 318 222 
47 11 290 100 374 247 269 34 239 187 484 136 59 
48 11 420 54 213 287 310 209 109 423 303 40 43 
49 11 82 228 386 371 334 73 389 304 150 280 24 
50 11 411 135 728 21 335 264 53 180 26 414 428 
51 11 277 215 460 13 83 718 722 314 584 410 432 
52 11 288 35 19 266 218 233 403 192 336 151 353 
53 11 264 21 414 428 50 728 135 411 449 349 628 
54 11 310 48 213 420 209 40 287 79 303 423 109 
55 11 224 361 379 342 305 190 381 93 387 234 322 
56 11 197 99 177 75 353 227 266 233 403 218 288 
57 11 5 380 429 661 242 496 293 153 143 695 327 
58 11 61 295 71 72 153 242 81 198 5 63 389 
59 11 136 239 234 374 103 247 170 47 93 381 238 
60 11 415 23 108 226 106 760 165 244 84 395 206 
61 11 58 295 71 153 72 242 5 198 20 81 57 
62 11 268 721 366 216 778 418 331 236 644 368 333 
63 11 198 276 210 71 325 265 72 58 61 295 69 
64 11 401 419 209 140 109 246 285 391 376 48 420 
65 11 608 202 350 3 254 314 596 83 722 163 195 
66 11 113 281 358 517 20 425 392 299 259 235 512 
67 11 328 256 160 176 301 74 356 404 492 533 78 
68 11 146 194 405 701 323 566 647 652 618 720 724 
69 11 776 265 210 138 354 237 355 321 325 498 259 
70 11 189 347 89 25 101 232 359 406 225 763 179 
71 11 58 72 61 295 198 63 153 242 81 210 358 
72 11 295 71 58 61 153 63 206 386 389 81 198 
73 11 82 150 228 85 334 41 371 49 115 32 280 
74 11 176 39 301 256 332 67 328 404 173 160 533 
75 11 177 99 56 197 233 218 223 266 353 288 403 
76 9 592 427 727 258 309 534 455 495 199 
77 11 267 185 546 116 682 338 574 298 207 131 145 
78 11 533 573 404 541 169 311 160 492 507 536 173 
79 11 40 310 400 54 134 209 151 48 221 213 291 
80 11 531 129 275 343 220 167 326 316 397 337 122 
81 11 24 389 153 496 5 295 31 58 781 57 61 
82 11 228 49 371 334 73 386 150 280 41 304 389 
83 11 410 149 314 215 722 277 718 65 51 202 13 
84 11 110 254 154 415 350 195 395 107 608 86 3 
85 11 115 41 32 73 238 257 280 341 87 4 170 
86 11 107 272 195 175 110 44 3 596 154 202 84 
87 11 4 341 12 402 85 238 269 115 34 247 32 
88 11 594 593 683 779 642 611 396 616 476 771 255 
89 11 232 189 347 763 70 25 179 359 101 260 638 
90 11 633 463 637 738 733 550 456 474 543 582 739 
91 11 205 163 357 106 350 23 65 254 147 226 608 
92 11 240 424 379 117 222 318 190 342 289 387 181 
93 11 381 361 322 103 613 292 768 55 105 170 186 
94 11 174 126 297 377 43 365 109 273 18 373 412 
95 10 676 497 646 506 623 659 717 439 707 736 
96 8 657 124 407 535 708 495 591 534 
97 11 742 98 159 499 501 705 478 700 724 650 261 
98 11 159 742 97 499 724 720 700 650 701 705 756 
99 11 177 56 197 75 353 233 266 218 227 403 223 
100 11 290 269 34 247 47 484 187 239 12 4 374 
101 11 25 359 406 347 225 208 752 315 7 189 70 
102 9 761 556 698 780 692 158 479 552 715 
103 11 170 93 381 292 613 32 238 361 136 59 239 
104 11 390 561 181 372 323 117 318 289 222 191 46 
105 11 768 186 345 613 292 322 747 361 381 93 305 
106 11 23 226 760 60 91 415 254 350 165 163 205 
107 11 86 195 272 175 110 44 596 3 202 84 608 
108 11 257 415 395 244 60 154 280 41 84 115 23 
109 11 43 287 420 48 423 94 401 213 209 54 373 
110 11 195 86 107 84 154 272 3 254 175 202 608 
111 11 249 680 509 575 717 750 659 676 538 95 578 
112 11 626 465 448 461 751 486 662 171 453 45 634 
113 11 20 66 281 358 299 517 242 425 392 61 259 
114 11 241 203 263 166 201 10 26 180 335 378 411 
115 11 41 85 257 280 244 73 108 395 341 32 371 
116 11 185 338 298 638 433 77 131 267 546 682 145 
117 11 318 222 240 190 92 424 181 289 379 561 393 
118 11 132 743 409 481 294 296 658 595 345 283 161 
119 11 340 482 220 279 397 684 316 168 398 609 745 
120 11 630 223 17 388 363 320 9 192 218 19 233 
121 11 253 607 229 143 668 695 193 661 27 15 327 
122 11 337 167 508 437 583 129 130 397 398 491 674 
123 11 317 42 384 378 416 141 291 303 166 10 26 
124 11 407 591 96 657 235 512 753 708 570 640 535 
125 11 624 457 435 746 777 346 704 440 442 504 639 
126 11 377 18 94 297 174 273 382 237 365 43 769 
127 11 212 360 219 200 188 525 367 316 326 275 29 
128 11 553 602 255 459 656 593 572 758 88 476 510 
129 11 167 122 337 508 437 397 80 583 220 130 398 
130 11 583 674 398 437 537 508 491 337 122 688 551 
131 11 298 145 185 116 433 267 638 77 682 338 546 
132 11 118 294 658 161 743 409 481 296 345 747 569 
133 9 673 689 600 501 522 478 714 774 771 
134 11 151 336 79 40 52 288 35 403 310 400 19 
135 11 411 335 50 26 180 728 21 53 264 42 378 
136 11 59 239 234 247 170 374 103 47 238 269 93 
137 11 385 251 172 413 417 681 263 252 248 352 114 
138 11 498 355 776 259 557 69 382 237 677 210 517 
139 11 321 354 38 273 172 237 385 297 174 365 325 
140 11 285 769 376 14 601 542 64 278 401 18 419 
141 11 291 416 317 221 123 400 384 42 303 79 40 
142 11 348 299 408 330 293 640 392 193 570 364 281 
143 11 607 253 121 661 695 229 429 327 15 293 193 
144 11 27 279 668 119 22 156 482 340 711 168 316 
145 11 131 682 267 185 298 504 77 116 207 503 338 
146 11 68 194 323 405 701 566 647 652 618 720 724 
147 11 231 357 681 417 252 413 205 163 149 248 385 
148 11 245 432 486 461 584 13 604 284 217 465 182 
149 11 410 215 718 83 277 13 584 231 357 147 604 
150 11 334 73 82 292 228 49 613 649 186 304 371 
151 11 134 35 52 40 19 79 336 209 192 288 310 
152 11 597 685 691 544 713 614 755 612 477 709 719 
153 11 295 58 61 81 5 242 24 72 71 57 389 
154 11 395 84 110 415 86 108 107 195 257 254 272 
155 11 564 451 438 651 33 770 648 539 690 672 369 
156 11 22 324 711 581 27 308 667 757 555 589 668 
157 10 211 472 617 282 655 453 171 679 751 460 
158 9 552 426 692 780 651 464 698 556 102 
159 11 98 742 97 499 720 724 700 650 756 705 405 
160 11 328 492 67 404 78 533 301 356 311 176 256 
161 11 569 658 294 132 270 764 620 747 118 344 164 
162 9 772 706 643 669 625 494 587 441 487 
163 11 205 91 357 350 65 147 231 106 254 608 149 
164 11 434 569 764 344 620 270 161 566 652 323 300 
165 11 206 760 226 60 244 23 106 280 415 108 386 
166 11 10 201 203 241 114 378 26 263 335 180 411 
167 11 337 122 129 397 508 437 583 220 130 398 491 
168 11 684 609 745 667 711 688 482 490 491 398 551 
169 11 541 573 516 533 507 173 78 404 536 301 44 
170 11 103 238 32 239 136 93 59 381 292 613 85 
171 11 662 751 453 460 211 472 157 448 461 112 617 
172 11 385 38 252 137 417 413 681 139 147 231 321 
173 11 533 516 404 169 301 541 573 78 44 507 160 
174 11 297 365 273 94 126 377 412 373 43 445 18 
175 11 272 86 107 44 195 110 596 3 202 173 516 
176 11 74 256 301 67 328 39 160 332 404 173 533 
177 11 99 75 56 197 233 353 266 218 223 288 403 
178 11 610 375 450 518 750 246 391 538 578 680 320 
179 11 271 260 763 338 546 638 433 116 331 368 185 
180 11 728 263 335 26 114 50 411 251 241 394 135 
181 11 289 372 191 313 117 240 92 318 222 46 424 
182 11 284 217 604 248 352 245 394 148 584 432 13 
183 11 489 704 629 523 639 777 11 435 653 671 442 
184 10 351 599 737 521 730 528 559 759 571 650 
185 11 116 298 338 131 77 267 433 638 145 682 546 
186 11 105 768 613 292 345 322 361 93 381 649 747 
187 11 484 34 100 290 12 269 47 247 4 239 374 
188 11 200 219 367 127 360 212 326 275 225 525 333 
189 11 70 89 347 25 232 101 359 763 225 406 179 
190 11 222 318 379 424 240 117 92 393 561 224 342 
191 11 313 372 46 181 289 92 117 240 318 424 222 
192 11 19 35 52 151 630 218 419 391 233 288 120 
193 11 330 399 229 293 408 607 121 143 668 661 142 
194 11 68 405 146 701 566 652 647 720 618 724 499 
195 11 107 86 110 272 3 596 202 175 44 608 84 
196 11 740 37 632 545 622 28 565 579 666 734 530 
197 11 56 99 177 75 353 227 266 233 218 403 288 
198 11 63 210 71 265 276 325 61 358 58 69 72 
199 11 309 534 76 592 286 727 427 585 645 214 258 
200 11 188 219 367 127 212 360 326 275 525 225 316 
201 11 10 166 203 241 114 378 263 445 373 412 26 
202 11 3 596 608 65 314 195 722 107 44 350 110 
203 11 241 114 201 166 10 263 26 378 335 180 445 
204 11 36 364 570 640 753 214 408 236 366 29 644 
205 11 163 91 357 147 231 252 350 106 65 681 149 
206 11 165 760 226 244 386 280 60 371 72 23 106 
207 11 503 716 682 754 458 615 574 440 339 729 267 
208 11 315 752 343 7 406 367 275 326 531 80 188 
209 11 48 54 310 401 40 420 64 109 79 213 287 
210 11 265 198 69 776 63 325 276 355 358 259 138 
211 11 472 157 453 617 171 282 751 655 460 662 448 
212 11 127 360 219 525 200 316 188 367 326 275 29 
213 11 420 287 48 303 423 54 310 109 43 209 40 
214 11 199 364 204 753 570 778 721 366 309 36 640 
215 11 718 277 13 410 584 149 83 51 432 604 284 
216 11 368 333 268 331 62 366 418 721 644 236 778 
217 11 182 284 604 245 352 248 394 148 584 432 13 
218 11 233 266 52 288 19 353 35 223 403 177 75 
219 11 127 200 367 188 212 326 360 525 275 316 531 
220 11 397 119 340 316 531 167 482 525 337 122 326 
221 11 400 291 141 416 79 40 317 310 134 312 54 
222 11 318 190 117 240 424 379 92 561 393 289 181 
223 11 120 17 233 218 630 75 266 19 177 363 388 
224 11 55 342 387 379 234 424 190 92 240 222 361 
225 11 359 333 25 368 188 101 200 216 347 232 367 
226 11 760 106 23 165 60 206 415 91 244 108 254 
227 11 353 312 403 56 336 288 266 197 177 99 233 
228 11 82 371 49 386 334 73 280 150 41 244 115 
229 11 607 121 193 143 253 668 330 399 661 293 27 
230 11 549 741 431 726 511 462 687 16 30 548 500 
231 11 147 357 681 417 413 252 149 248 205 410 163 
232 11 89 347 763 25 179 359 189 368 260 225 271 
233 11 218 266 52 288 353 177 19 223 75 403 35 
234 11 224 59 387 136 374 342 55 379 93 381 47 
235 11 591 512 392 124 425 407 348 640 96 753 281 
236 11 644 366 36 62 721 216 268 204 29 333 360 
237 11 382 354 377 126 18 273 321 69 297 139 557 
238 11 32 170 239 103 247 4 85 269 136 87 59 
239 11 247 269 238 136 59 100 290 170 47 32 4 
240 11 92 424 117 222 318 379 190 289 342 181 387 
241 11 114 203 263 166 201 10 26 180 335 378 445 
242 11 57 5 380 20 61 153 113 58 295 299 429 
243 11 283 296 481 779 409 743 686 595 683 88 594 
244 11 280 108 257 41 60 415 165 395 206 115 371 
245 11 148 432 217 604 284 182 486 584 13 461 465 
246 11 391 610 575 419 680 178 376 285 111 509 750 
247 11 269 239 100 290 47 34 238 136 484 4 59 
248 11 352 182 251 284 394 217 604 413 417 231 681 
249 11 111 659 509 717 676 680 95 422 575 370 538 
250 11 383 510 725 758 656 723 572 494 643 772 589 
251 11 352 394 248 137 180 413 182 263 417 217 681 
252 11 681 417 413 147 385 172 231 357 38 205 137 
253 11 121 607 143 695 229 15 327 307 661 675 429 
254 11 350 84 608 65 110 3 202 23 195 415 106 
255 11 602 553 774 128 714 572 594 600 616 656 771 
256 11 176 67 74 328 301 160 39 332 404 356 533 
257 11 108 395 41 244 115 280 415 154 85 60 341 
258 11 727 427 592 76 455 473 710 670 534 719 309 
259 11 355 498 138 517 776 358 66 425 677 69 210 
260 11 271 179 331 763 546 338 368 418 268 116 216 
261 11 699 478 580 133 522 97 771 616 611 742 501 
262 9 466 443 540 744 697 530 619 475 444 
263 11 114 241 203 166 180 201 10 26 335 137 251 
264 11 21 53 414 428 728 50 449 628 349 411 135 
265 11 325 69 210 321 276 776 354 198 63 237 139 
266 11 218 233 288 353 52 403 19 177 35 336 75 
267 11 77 682 185 116 145 574 207 131 338 546 298 
268 11 62 721 418 778 331 216 366 368 236 260 333 
269 11 247 100 290 239 34 47 484 187 4 238 12 
270 11 344 747 569 161 164 434 132 294 658 764 305 
271 11 260 179 546 338 763 331 116 638 418 77 433 
272 11 175 107 86 44 195 596 110 3 202 722 608 
273 11 297 174 365 126 377 94 139 237 354 445 382 
274 11 527 672 33 430 502 513 515 767 539 690 155 
275 11 326 531 367 525 316 219 80 343 315 220 127 
276 11 325 63 265 198 210 321 38 69 354 139 776 
277 11 215 718 13 584 410 149 51 432 83 148 604 
278 11 542 769 601 14 557 376 285 18 370 480 509 
279 11 144 482 119 340 27 684 168 711 22 156 609 
280 11 244 41 371 257 108 115 228 82 206 386 165 
281 11 66 113 392 299 20 425 517 358 348 235 512 
282 8 617 655 157 679 472 211 598 732 
283 11 243 296 481 409 743 779 595 686 683 118 88 
284 11 604 182 217 245 248 148 584 352 394 13 432 
285 11 376 14 601 140 769 575 509 680 246 278 542 
286 10 585 645 421 199 778 592 727 76 309 418 
287 11 420 423 213 48 43 109 54 303 373 412 209 
288 11 403 52 266 336 353 218 233 35 19 134 151 
289 11 181 313 191 117 92 240 372 318 424 222 46 
290 11 100 269 34 47 247 484 187 239 12 374 4 
291 11 416 141 221 317 400 123 303 79 40 310 384 
292 11 613 186 768 105 93 103 381 150 322 361 345 
293 11 661 380 193 429 330 143 229 607 57 142 299 
294 11 658 161 132 118 569 620 764 743 409 270 296 
295 11 58 72 61 71 153 81 389 24 242 5 386 
296 11 481 409 743 283 243 595 118 779 132 686 294 
297 11 174 273 365 126 94 377 412 43 373 18 445 
298 11 131 185 116 433 638 338 145 267 77 682 546 
299 11 281 348 392 142 20 113 66 293 425 380 235 
300 11 393 561 344 434 305 270 164 190 747 222 318 
301 11 404 74 173 176 533 160 39 328 67 256 78 
302 10 471 765 731 554 703 663 562 736 707 664 
303 11 213 423 287 420 54 48 310 378 416 123 40 
304 11 31 649 334 389 24 49 150 781 82 228 81 
305 11 322 393 300 344 747 361 270 55 768 105 381 
306 9 485 452 749 678 537 641 696 468 674 
307 11 15 675 327 2 695 308 446 576 470 555 253 
308 11 555 675 581 589 324 459 307 758 15 156 656 
309 9 534 199 76 427 592 727 495 258 585 
310 11 54 40 79 48 209 213 420 303 287 400 151 
311 10 588 436 492 567 467 529 654 547 78 693 
312 11 336 227 403 353 288 134 221 400 266 52 151 
313 11 191 289 181 372 46 92 240 117 424 318 222 
314 11 722 596 202 83 3 65 608 44 51 410 195 
315 11 208 752 343 7 367 275 406 326 531 80 200 
316 11 525 326 531 275 220 119 212 219 127 367 340 
317 11 123 141 384 42 416 291 378 221 303 400 135 
318 11 222 117 190 240 424 92 379 561 393 181 289 
319 11 454 635 664 505 532 558 653 703 563 671 731 
320 11 630 518 9 375 178 388 450 120 391 462 610 
321 11 354 139 265 325 237 69 38 276 273 776 210 
322 11 305 361 768 105 381 93 613 186 747 292 345 
323 11 146 390 68 164 434 194 566 652 701 561 764 
324 11 156 308 581 555 589 675 22 758 253 307 459 
325 11 265 276 321 210 63 69 354 198 38 776 139 
326 11 275 525 531 316 367 219 127 212 220 200 80 
327 11 15 695 307 496 2 253 143 675 429 607 661 
328 11 67 160 256 176 301 356 492 404 74 533 78 
329 11 514 447 577 735 599 184 571 559 756 650 528 
330 11 193 399 408 229 293 142 607 121 29 143 661 
331 11 368 268 216 418 260 62 271 721 778 179 333 
332 11 39 74 402 176 256 301 12 175 67 173 328 
333 11 216 368 225 331 62 644 268 366 236 359 188 
334 11 82 49 150 228 304 73 371 649 386 31 389 
335 11 26 411 135 50 180 166 114 241 378 203 263 
336 11 403 288 134 312 52 151 353 266 227 35 19 
337 11 122 167 508 437 583 129 397 130 398 491 220 
338 11 116 185 546 638 77 433 298 271 267 179 131 
339 10 440 346 615 754 729 716 702 746 503 590 
340 11 119 482 397 684 220 279 168 398 609 745 491 
341 11 87 4 402 395 115 257 85 154 41 108 12 
342 11 387 379 224 424 92 240 190 55 234 222 318 
343 11 315 752 208 7 275 80 531 367 326 406 525 
344 11 270 434 747 164 300 569 161 305 393 764 658 
345 11 105 118 768 186 132 747 595 743 409 481 294 
346 11 746 440 615 339 435 777 624 503 523 754 729 
347 11 25 232 359 89 101 189 225 70 763 368 333 
348 11 142 392 299 640 235 570 281 364 753 408 425 
349 11 694 449 628 660 428 414 486 465 483 45 264 
350 11 254 608 65 84 3 202 23 110 163 91 106 
351 10 737 184 521 599 730 759 528 650 559 700 
352 11 394 248 251 182 217 284 604 180 728 245 137 
353 11 403 266 288 227 233 218 177 56 336 52 99 
354 11 321 237 139 69 265 273 382 325 776 377 297 
355 11 259 498 138 776 517 69 358 557 677 210 425 
356 9 693 492 547 654 588 160 311 328 567 
357 11 147 231 205 163 91 252 681 417 149 413 410 
358 11 66 113 20 517 281 259 425 355 210 198 242 
359 11 225 25 101 347 333 232 368 406 763 188 216 
360 11 127 212 219 200 188 29 644 367 525 236 316 
361 11 381 93 322 613 55 305 768 292 105 103 186 
362 9 524 748 568 16 687 457 605 442 500 
363 11 388 9 17 462 120 320 630 431 223 741 518 
364 11 570 640 753 204 214 407 36 348 124 142 408 
365 11 174 297 412 273 373 445 94 43 126 377 423 
366 11 62 236 644 721 268 778 216 36 418 214 204 
367 11 219 200 275 326 188 525 127 212 531 316 315 
368 11 216 331 333 268 260 763 62 418 271 225 721 
369 11 762 438 770 451 564 155 426 158 651 552 692 
370 11 8 480 766 422 520 560 659 249 509 676 677 
371 11 228 82 49 386 280 73 41 244 334 206 115 
372 11 46 191 181 313 289 104 117 240 92 318 222 
373 11 412 445 365 423 43 174 201 287 297 10 94 
374 11 47 234 59 136 290 100 247 269 239 187 34 
375 11 450 518 178 750 726 578 538 610 320 493 230 
376 11 285 14 601 575 140 509 769 680 246 278 542 
377 11 126 18 94 297 382 174 273 237 365 557 542 
378 11 166 10 201 26 123 203 335 241 114 42 135 
379 11 424 342 240 92 190 387 222 224 318 117 55 
380 11 57 5 429 661 293 242 143 496 299 695 607 
381 11 93 361 322 613 103 292 768 55 105 305 186 
382 11 237 18 377 126 557 354 138 542 273 69 297 
383 11 250 510 725 723 494 572 656 758 643 772 162 
384 11 42 317 123 135 141 378 416 411 291 335 26 
385 11 172 252 417 38 413 137 681 147 139 231 251 
386 11 49 371 228 82 206 389 280 334 24 72 165 
387 11 342 224 379 424 92 234 240 55 190 222 318 
388 11 363 9 462 17 120 320 630 431 518 741 230 
389 11 24 81 31 386 153 304 49 295 72 334 82 
390 11 323 104 561 434 300 164 146 393 318 68 117 
391 11 246 610 419 178 575 680 320 518 375 630 192 
392 11 281 425 235 348 299 512 66 517 591 113 142 
393 11 300 561 305 190 344 434 222 318 270 55 117 
394 11 352 251 248 217 182 284 728 604 180 428 414 
395 11 108 154 257 415 84 244 60 341 110 115 41 
396 11 642 683 488 476 586 686 593 88 779 470 594 
397 11 167 220 337 340 122 398 119 491 482 130 583 
398 11 491 688 609 745 684 130 168 551 490 482 397 
399 11 330 193 408 29 229 668 27 121 607 293 142 
400 11 221 79 291 40 416 141 310 134 54 303 151 
401 11 64 209 109 419 140 48 420 43 54 287 310 
402 11 332 341 39 87 175 12 4 86 154 272 107 
403 11 288 353 336 266 52 227 218 233 312 134 35 
404 11 533 78 173 301 160 169 573 541 516 328 492 
405 11 720 647 194 701 618 756 98 159 68 652 724 
406 11 7 752 101 208 315 343 25 359 225 347 367 
407 11 124 753 96 657 591 570 640 235 364 512 495 
408 11 330 399 193 142 29 36 204 348 640 293 364 
409 11 743 481 296 283 595 243 118 132 294 779 658 
410 11 149 215 83 718 277 13 584 314 51 231 357 
411 11 135 335 50 26 180 728 21 264 53 114 166 
412 11 373 445 365 423 43 174 201 297 287 10 273 
413 11 417 681 252 147 231 385 248 137 172 357 251 
414 11 428 21 264 53 728 628 449 50 349 694 394 
415 11 60 108 84 395 23 154 244 257 106 254 226 
416 11 291 141 317 123 221 400 303 42 384 79 310 
417 11 413 681 252 147 231 385 172 137 248 357 251 
418 11 268 778 721 331 62 216 260 286 366 271 368 
419 11 64 391 246 401 610 285 140 376 192 575 680 
420 11 287 48 213 423 54 109 43 209 303 310 401 
421 10 574 585 645 286 458 670 207 716 710 77 
422 11 370 8 766 520 659 480 249 676 95 623 509 
423 11 287 213 420 43 373 412 303 109 48 445 54 
424 11 379 92 240 190 222 342 318 117 387 224 289 
425 11 517 392 281 66 512 235 591 113 358 299 20 
426 9 552 158 780 692 651 464 698 738 637 
427 8 76 592 727 258 534 309 455 495 
428 11 414 21 264 628 449 728 53 349 694 50 394 
429 11 661 57 143 380 695 5 293 607 496 327 253 
430 11 767 515 527 513 6 274 603 672 502 734 666 
431 11 741 230 462 549 726 9 16 687 511 30 548 
432 11 148 245 13 584 461 277 718 604 215 486 662 
433 11 638 298 116 185 338 131 77 179 546 267 271 
434 11 164 344 300 270 569 764 323 393 561 161 620 
435 11 777 746 704 125 346 183 489 523 624 639 629 
436 9 529 467 311 567 588 536 732 492 654 
437 11 508 122 583 337 130 167 129 537 674 397 398 
438 11 564 451 770 369 762 155 651 426 33 158 672 
439 5 623 506 646 497 95 
440 11 615 346 339 503 746 716 754 729 624 435 777 
441 8 669 487 625 526 162 587 519 730 
442 9 605 639 568 629 500 704 183 489 457 
443 9 466 262 540 744 530 697 475 619 444 
444 5 475 530 466 443 262 
445 11 412 373 365 201 10 174 423 203 297 241 273 
446 11 470 576 2 781 488 476 396 307 586 642 675 
447 11 577 329 514 735 756 599 650 720 184 700 647 
448 10 453 751 112 171 579 626 28 662 211 157 
449 11 349 694 628 428 660 414 486 264 465 21 483 
450 11 375 750 178 518 578 538 726 493 610 663 562 
451 11 564 438 155 369 770 762 651 426 158 552 692 
452 7 306 485 749 678 641 696 468 
453 10 751 211 448 171 157 472 662 617 655 460 
454 11 319 635 664 532 703 505 653 558 731 563 671 
455 11 473 258 719 477 427 713 727 691 710 685 755 
456 7 550 739 90 633 463 648 733 
457 10 125 748 362 442 605 435 524 624 568 777 
458 9 754 670 716 729 590 710 207 702 339 
459 11 128 553 758 656 589 555 602 510 572 581 593 
460 11 171 662 472 211 751 157 453 461 51 448 617 
461 11 662 465 112 751 171 486 432 148 460 448 245 
462 11 9 431 741 230 388 363 549 726 518 320 375 
463 11 633 90 637 738 474 733 550 464 543 456 582 
464 9 637 738 715 474 698 780 463 633 90 
465 11 486 112 461 626 148 660 448 662 751 45 245 
466 9 262 443 540 530 744 697 475 444 619 
467 6 567 436 588 529 311 654 
468 8 696 641 712 678 749 306 571 452 
469 11 757 775 723 667 725 490 711 494 519 250 383 
470 11 446 576 488 2 476 781 396 586 642 307 593 
471 9 554 302 736 707 731 562 765 703 663 
472 11 211 157 617 282 453 171 460 655 751 662 679 
473 11 719 455 755 685 691 709 713 477 710 152 544 
474 9 637 715 582 738 463 464 90 633 733 
475 5 444 530 466 443 262 
476 11 488 396 642 593 683 88 470 586 128 686 459 
477 9 713 691 719 685 152 597 473 631 755 
478 11 261 699 580 133 97 742 501 522 771 616 673 
479 6 665 606 761 102 654 547 
480 11 8 370 766 560 422 520 677 659 249 509 278 
481 11 296 409 743 283 595 243 118 132 779 686 294 
482 11 340 684 168 119 609 745 279 398 491 688 711 
483 11 660 694 349 449 627 45 628 428 634 53 264 
484 11 187 34 100 290 12 269 247 47 4 239 87 
485 9 306 452 749 537 678 641 696 674 468 
486 11 465 461 148 112 245 628 432 626 660 349 449 
487 7 587 441 669 759 706 730 162 
488 11 476 396 642 470 586 593 683 446 686 576 88 
489 11 183 704 523 629 639 777 11 435 653 671 442 
490 10 551 667 688 745 609 168 491 684 711 469 
491 10 398 688 745 609 684 551 168 490 130 482 
492 11 311 588 356 160 567 654 693 547 436 78 467 
493 11 663 578 562 302 765 538 30 471 726 548 554 
494 11 643 723 772 725 383 162 250 510 625 572 669 
495 6 534 309 427 76 657 592 
496 11 327 5 695 15 429 2 57 81 307 661 781 
497 9 506 646 95 623 439 707 736 676 554 
498 11 138 355 259 557 776 677 69 517 560 382 278 
499 11 724 98 742 159 97 652 701 566 478 620 720 
500 9 568 773 511 605 442 548 30 687 532 
501 7 705 673 689 133 97 700 742 
502 10 539 690 619 33 513 274 527 648 697 744 
503 11 207 615 716 440 339 754 346 729 458 682 746 
504 11 624 125 615 440 503 346 145 746 435 682 207 
505 9 563 671 319 558 653 454 532 635 664 
506 8 646 497 623 439 95 707 676 736 
507 11 541 573 169 536 516 78 533 529 173 404 51 
508 11 437 122 337 583 130 167 129 537 397 674 398 
509 11 249 111 575 680 376 601 14 659 422 285 370 
510 11 383 250 572 725 656 758 494 643 723 772 553 
511 10 548 30 500 773 549 568 687 765 230 726 
512 11 591 235 425 124 708 392 517 96 407 657 535 
513 11 515 603 767 430 6 527 734 666 502 622 274 
514 10 329 577 447 735 571 559 599 756 184 528 
515 11 767 430 513 6 603 527 734 666 274 622 502 
516 11 169 173 541 573 533 507 404 44 78 301 536 
517 11 425 66 259 281 358 392 113 512 355 20 235 
518 11 375 450 178 320 726 750 610 9 578 230 462 
519 8 526 625 669 441 162 494 723 643 
520 8 422 766 8 659 370 623 439 480 
521 7 730 351 184 528 737 559 599 
522 11 771 616 611 580 594 133 774 255 714 600 779 
523 11 489 183 704 11 777 629 639 435 746 671 653 
524 9 362 748 16 568 687 605 457 442 500 
525 11 316 326 275 531 212 219 127 367 220 119 200 
526 8 519 625 441 669 162 487 494 723 
527 11 274 430 767 515 672 513 33 502 603 6 539 
528 7 559 571 521 184 351 599 737 
529 7 436 467 536 732 311 567 588 
530 7 475 444 466 443 262 540 744 
531 11 275 326 316 525 220 80 367 119 219 343 397 
532 11 653 319 454 505 635 664 671 563 703 773 558 
533 11 404 78 169 173 573 541 516 301 160 507 536 
534 8 309 495 76 427 592 727 199 258 
535 5 708 657 96 520 495 
536 11 507 529 573 541 436 78 169 311 732 467 282 
537 10 674 485 306 452 130 583 749 551 678 641 
538 11 578 750 663 717 493 562 450 111 302 676 736 
539 8 690 648 502 33 739 619 456 550 
540 7 443 262 744 466 697 619 530 
541 11 573 169 507 516 78 533 536 404 173 529 311 
542 11 278 769 14 601 557 18 285 140 376 382 377 
543 8 733 582 90 463 633 474 637 738 
544 10 612 614 597 636 152 685 709 755 691 713 
545 11 632 37 634 28 740 196 45 579 565 627 626 
546 11 338 77 271 116 574 185 267 260 179 421 638 
547 8 654 693 588 567 479 356 606 311 
548 11 30 511 773 765 500 703 302 731 454 493 635 
549 11 230 741 511 431 726 30 687 548 16 500 568 
550 7 456 739 90 633 463 648 733 
551 10 490 688 674 491 745 609 398 667 168 684 
552 9 158 426 692 780 651 464 698 102 556 
553 11 128 602 255 656 459 572 593 758 510 774 594 
554 7 736 707 471 302 731 562 497 
555 11 308 581 589 459 675 758 324 656 250 128 510 
556 10 761 102 692 158 552 780 426 698 665 606 
557 11 542 278 382 498 138 18 769 237 355 377 601 
558 7 563 505 319 635 664 454 671 
559 7 571 528 521 184 351 599 468 
560 11 677 480 766 8 370 708 422 520 535 278 498 
561 11 300 393 318 390 222 190 434 117 344 164 323 
562 11 663 736 471 554 302 707 493 538 717 578 765 
563 7 505 671 558 653 319 621 454 
564 11 451 438 155 770 369 762 651 426 158 552 692 
565 11 666 734 622 603 196 6 632 37 513 515 545 
566 11 652 701 724 499 620 764 194 98 405 164 68 
567 8 588 467 654 436 311 547 529 693 
568 9 605 500 687 442 524 362 748 16 511 
569 11 161 764 620 270 658 164 294 344 747 132 434 
570 11 364 640 753 204 407 348 124 214 36 235 142 
571 7 559 528 184 521 468 696 641 
572 11 656 510 383 250 725 553 602 758 255 643 128 
573 11 541 169 78 507 533 516 536 404 173 529 311 
574 10 421 207 77 458 267 682 716 546 585 645 
575 11 680 509 111 376 246 285 610 249 601 14 750 
576 11 446 470 2 781 488 476 307 396 586 642 15 
577 11 735 447 514 329 756 618 599 647 720 650 571 
578 11 538 750 493 663 562 450 717 726 375 302 471 
579 9 740 28 444 37 196 475 530 448 545 
580 11 522 699 261 611 771 616 478 133 594 779 88 
581 11 589 555 308 324 758 459 675 250 656 383 510 
582 10 474 715 733 543 637 738 463 90 633 464 
583 11 130 437 508 122 337 674 537 398 491 167 397 
584 11 13 718 277 215 432 604 148 245 284 410 149 
585 10 645 286 421 727 592 670 258 76 199 427 
586 11 686 396 642 683 488 476 593 88 470 446 779 
587 3 487 706 162 
588 9 567 311 654 547 436 467 492 693 529 
589 11 581 555 758 308 459 250 656 510 383 324 725 
590 10 702 729 710 754 458 670 339 709 716 636 
591 11 512 235 124 407 96 708 657 392 425 535 753 
592 10 76 727 427 258 309 534 455 645 199 585 
593 11 88 476 642 683 396 128 594 488 553 602 255 
594 11 611 88 616 771 522 779 255 593 602 683 580 
595 11 481 409 296 743 283 243 118 686 132 649 345 
596 11 202 3 722 44 314 195 107 608 272 65 86 
597 11 152 544 614 685 612 691 636 713 755 621 709 
598 4 679 655 732 282 
599 11 184 737 351 650 521 700 329 730 528 759 559 
600 7 714 774 673 689 133 255 706 
601 11 14 376 769 285 278 542 509 140 575 680 370 
602 11 255 553 128 656 572 593 774 594 714 459 88 
603 11 513 734 666 515 622 6 767 565 430 527 502 
604 11 284 182 217 245 584 248 148 13 432 718 352 
605 9 442 568 639 500 629 748 704 183 457 
606 7 665 479 761 102 547 556 654 
607 11 143 121 253 229 661 695 429 193 327 668 293 
608 11 65 3 202 350 254 596 195 314 110 722 84 
609 10 745 688 684 491 168 398 490 551 667 482 
610 11 178 246 391 680 575 450 375 750 518 111 538 
611 11 616 771 522 594 580 779 88 255 774 133 602 
612 10 614 544 636 597 709 152 755 685 691 11 
613 11 292 186 768 105 93 381 322 361 103 345 150 
614 10 612 544 636 597 152 685 709 755 621 691 
615 11 440 346 339 503 746 716 754 729 207 624 435 
616 11 771 522 611 594 580 255 774 779 88 714 133 
617 8 655 282 157 679 211 472 598 453 
618 11 647 405 720 735 756 577 447 194 514 329 68 
619 8 744 697 540 502 262 690 443 466 
620 11 764 569 161 566 652 658 294 724 164 499 701 
621 4 631 597 152 563 
622 11 666 734 603 565 196 513 697 262 744 6 515 
623 6 646 439 506 497 95 676 
624 11 125 746 435 504 346 440 615 777 457 339 503 
625 11 669 441 162 519 526 772 487 494 643 706 587 
626 11 112 45 634 28 448 465 545 660 37 579 632 
627 11 545 45 632 634 37 565 28 196 740 660 626 
628 11 449 349 694 428 414 486 660 465 264 21 245 
629 11 639 183 489 704 523 653 442 532 671 11 777 
630 11 320 120 388 9 518 363 192 223 391 178 375 
631 2 621 152 
632 11 545 37 634 740 196 28 565 579 622 627 666 
633 11 90 463 738 637 550 733 456 474 543 739 464 
634 11 545 28 632 37 45 740 626 196 579 627 448 
635 11 664 454 319 703 731 558 505 532 653 563 765 
636 9 612 544 614 709 755 597 152 685 691 
637 9 738 474 464 463 715 90 633 582 698 
638 11 433 116 298 338 185 131 179 546 77 271 267 
639 10 629 704 183 489 442 605 523 777 653 435 
640 11 570 364 753 348 204 407 124 142 235 214 36 
641 7 678 696 749 468 712 452 306 
642 11 396 683 476 488 593 686 88 586 779 594 128 
643 11 494 772 162 723 725 383 510 706 250 572 625 
644 11 236 366 62 36 216 333 360 268 721 29 204 
645 10 585 286 421 727 592 670 258 76 199 427 
646 8 506 497 623 439 95 676 707 736 
647 11 618 405 720 756 194 735 577 447 159 68 701 
648 9 539 690 739 550 456 651 633 90 463 
649 11 304 595 31 334 345 481 150 186 409 586 296 
650 11 700 705 599 737 184 351 159 501 759 447 756 
651 9 426 552 158 780 464 648 738 155 637 
652 11 566 701 724 499 620 764 194 98 405 159 742 
653 10 532 671 505 319 563 454 558 635 629 664 
654 8 547 693 588 567 467 479 311 492 
655 7 617 282 679 157 598 211 472 
656 11 572 510 758 250 383 553 128 602 459 725 255 
657 8 96 535 124 708 407 495 591 534 
658 11 294 161 132 569 118 620 764 743 409 270 296 
659 11 676 95 249 422 623 717 646 506 497 520 439 
660 11 45 694 349 626 449 465 112 486 628 634 483 
661 11 429 143 293 380 607 57 695 253 5 229 121 
662 11 171 751 460 461 453 211 448 472 112 157 432 
663 11 562 493 302 471 578 538 554 736 707 765 717 
664 11 635 454 319 703 731 558 532 505 653 765 563 
665 7 606 479 761 102 556 547 654 
666 11 734 622 565 603 513 196 6 697 515 767 744 
667 10 711 168 490 469 609 684 745 757 688 775 
668 11 27 121 229 144 607 399 156 253 193 22 143 
669 11 625 441 162 487 706 587 772 519 526 643 494 
670 9 710 458 590 729 754 702 258 473 716 
671 8 505 563 653 319 532 558 11 454 
672 11 274 527 33 430 502 155 767 515 539 513 690 
673 4 689 133 501 600 
674 10 537 130 551 485 583 306 452 491 398 688 
675 11 308 307 555 15 324 581 589 327 2 459 470 
676 10 95 659 717 497 646 506 623 249 439 736 
677 11 560 708 480 766 498 8 535 370 512 259 355 
678 7 749 641 696 468 452 306 485 
679 6 655 598 617 282 475 157 
680 11 575 111 509 249 610 246 750 376 178 717 285 
681 11 417 413 252 147 231 385 357 172 248 137 251 
682 11 267 207 77 145 503 574 185 716 131 615 116 
683 11 642 396 88 686 593 586 779 476 488 594 243 
684 11 168 609 745 482 688 491 398 667 711 490 340 
685 11 691 152 755 713 597 719 544 709 477 614 612 
686 11 586 683 396 642 488 88 779 243 476 593 283 
687 9 16 568 524 362 500 748 511 549 741 
688 10 745 609 491 398 684 490 168 551 667 482 
689 4 673 133 501 587 
690 8 539 648 502 739 619 33 456 550 
691 11 713 685 152 719 477 597 755 544 709 473 614 
692 9 158 552 426 780 556 102 698 651 761 
693 8 547 654 356 588 567 492 606 311 
694 11 349 449 628 660 428 414 483 486 465 45 264 
695 11 327 15 143 253 307 429 607 496 661 121 675 
696 7 468 641 678 712 749 306 452 
697 9 744 262 540 443 466 619 530 622 666 
698 9 715 464 780 474 637 738 102 582 552 
699 11 261 478 580 133 522 97 771 611 616 742 501 
700 11 650 705 599 737 501 351 759 184 97 159 742 
701 11 652 566 724 194 499 405 98 159 720 68 620 
702 10 590 729 754 339 636 709 710 612 755 458 
703 11 731 664 635 454 765 319 302 471 532 558 773 
704 11 183 489 523 629 639 777 435 11 442 746 653 
705 9 700 650 501 759 737 97 599 742 351 
706 5 587 162 772 487 669 
707 6 736 554 471 497 562 302 
708 10 535 657 96 591 512 677 124 560 235 766 
709 10 755 636 544 685 612 152 614 691 719 597 
710 10 670 590 473 702 455 709 458 755 258 729 
711 11 667 168 22 684 490 469 609 757 745 775 688 
712 8 468 696 641 678 749 571 559 306 
713 10 691 477 685 152 719 597 755 544 709 473 
714 8 774 600 255 572 133 522 602 673 
715 9 474 464 637 698 738 582 463 90 633 
716 11 754 207 503 458 729 339 615 440 590 702 346 
717 11 676 95 538 562 249 659 663 111 497 578 736 
718 11 215 277 13 584 410 149 83 432 604 51 284 
719 11 691 473 685 713 755 477 152 709 455 544 597 
720 11 756 405 647 159 98 618 447 577 650 701 742 
721 11 778 268 62 418 366 331 216 214 286 236 368 
722 11 314 596 202 3 83 44 65 608 51 195 272 
723 11 494 725 383 643 250 510 772 775 469 757 162 
724 11 499 98 652 701 159 566 742 97 620 405 720 
725 11 383 250 723 510 494 643 572 656 758 772 775 
726 11 230 549 493 30 450 511 578 375 548 431 741 
727 11 592 76 258 427 455 309 534 645 710 473 585 
728 11 21 50 414 428 180 264 53 394 411 135 352 
729 10 754 590 702 339 458 716 670 710 440 615 
730 7 521 351 759 737 184 487 441 
731 9 703 635 664 302 765 471 454 319 554 
732 6 598 529 282 679 467 655 
733 10 543 582 90 463 633 474 637 738 715 456 
734 11 666 622 603 565 513 6 196 515 697 767 744 
735 11 577 447 514 329 756 618 647 720 599 571 650 
736 7 707 554 471 562 497 302 731 
737 10 351 184 599 730 759 521 650 700 705 528 
738 9 637 464 474 463 633 715 90 582 698 
739 8 550 456 648 633 90 463 690 539 
740 9 37 28 196 579 632 545 634 444 530 
741 11 431 230 549 462 16 687 511 726 500 9 548 
742 11 97 98 159 499 724 501 705 700 478 650 261 
743 11 409 481 296 283 118 243 595 132 294 658 779 
744 7 540 697 262 443 466 619 530 
745 10 609 688 491 684 168 398 490 551 667 482 
746 11 346 435 777 440 615 339 523 624 704 125 183 
747 11 270 344 161 132 345 569 294 118 305 658 105 
748 9 362 524 457 568 605 442 16 687 500 
749 8 678 641 452 306 696 468 485 712 
750 11 538 578 450 178 375 717 493 663 111 562 680 
751 11 171 453 662 448 211 460 472 157 461 112 617 
752 11 208 315 7 343 406 275 367 80 326 531 101 
753 11 570 364 640 407 124 204 214 235 348 591 96 
754 10 729 716 339 458 590 702 615 440 503 207 
755 11 709 685 544 636 719 152 691 597 612 614 713 
756 11 720 447 577 647 735 329 159 405 650 618 514 
757 11 469 775 723 667 725 711 250 494 383 490 519 
758 11 656 250 510 383 589 459 572 725 553 581 128 
759 7 730 737 351 487 587 184 521 
760 11 226 165 106 23 60 206 415 244 108 91 254 
761 9 102 556 665 479 606 698 692 780 158 
762 11 369 438 770 451 564 155 426 158 651 552 692 
763 11 179 260 271 232 368 331 638 89 216 338 546 
764 11 620 569 161 566 652 164 658 294 724 499 701 
765 11 302 703 731 471 664 30 635 548 454 554 773 
766 10 8 480 370 422 520 560 659 677 535 249 
767 11 515 430 6 513 527 603 274 734 666 622 502 
768 11 105 186 613 322 292 345 361 747 93 381 305 
769 11 542 14 601 278 140 285 376 18 557 509 377 
770 11 438 369 762 564 451 155 672 33 274 651 426 
771 11 616 522 611 594 580 255 774 133 714 779 88 
772 9 643 162 494 706 669 625 723 725 587 
773 11 548 30 500 532 454 511 703 765 635 664 319 
774 8 714 600 255 522 602 572 771 133 
775 11 757 469 723 725 494 667 250 383 519 711 490 
776 11 69 138 355 210 259 498 265 237 354 382 325 
777 11 435 704 746 183 523 489 346 639 629 11 125 
778 11 721 418 268 62 286 366 331 214 199 216 585 
779 11 88 594 611 243 683 283 616 771 522 686 593 
780 9 552 158 426 464 698 692 715 738 637 
781 11 576 446 2 470 31 488 586 307 396 476 496 
DEPOT_SECTION
   1
   -1
EOF
