NAME :  X-n895-kX-w89-c7.cctp
COMMENT : 	Adapted by Maziero, Usberti and Cavellucci from the Uchoa, Pecin, Pessoa, Poggi, Subramanian, and Vidal (2013)
TYPE :  CCTP
DIMENSION :    514
EDGE_WEIGHT_TYPE : 	EUC_2D	
CAPACITY : 	1816
VERTICES_WITHIN_COVERAGE :  7
VERTICES_WITH_DEMAND : 	89
NODE_COORD_SECTION
1 706 137
2 392 662
3 692 274
4 944 370
5 726 945
6 869 43
7 621 770
8 112 402
9 523 374
10 619 178
11 553 457
12 95 814
13 696 130
14 27 417
15 940 487
16 943 965
17 670 435
18 931 752
19 307 776
20 404 101
21 199 526
22 117 312
23 762 505
24 433 864
25 868 155
26 832 870
27 488 624
28 686 782
29 585 89
30 268 339
31 248 344
32 22 776
33 89 614
34 75 271
35 882 646
36 6 656
37 449 27
38 857 362
39 809 774
40 403 626
41 559 145
42 667 945
43 524 737
44 683 777
45 641 798
46 514 495
47 102 813
48 517 591
49 748 330
50 859 127
51 699 41
52 281 442
53 257 106
54 116 99
55 41 732
56 555 95
57 378 1
58 155 308
59 942 955
60 619 205
61 646 910
62 796 791
63 785 49
64 958 817
65 424 240
66 311 226
67 37 119
68 761 866
69 404 417
70 929 432
71 743 535
72 418 679
73 107 379
74 329 868
75 22 432
76 24 474
77 380 83
78 145 135
79 576 209
80 877 859
81 901 0
82 464 473
83 181 35
84 976 331
85 672 617
86 324 264
87 193 341
88 525 782
89 527 935
90 218 529
91 594 432
92 805 123
93 959 266
94 348 776
95 458 247
96 841 361
97 675 306
98 856 199
99 300 792
100 172 589
101 609 928
102 738 18
103 693 307
104 468 585
105 594 172
106 563 205
107 271 783
108 374 383
109 775 530
110 913 512
111 943 941
112 247 374
113 347 51
114 8 111
115 321 825
116 854 335
117 605 66
118 241 509
119 845 106
120 451 217
121 955 319
122 432 662
123 704 73
124 418 205
125 817 754
126 570 429
127 11 516
128 737 62
129 697 638
130 343 830
131 231 539
132 827 658
133 142 648
134 530 874
135 305 312
136 189 506
137 863 149
138 173 12
139 839 829
140 674 882
141 554 231
142 298 757
143 650 2
144 580 122
145 779 332
146 770 491
147 703 930
148 539 28
149 714 181
150 120 134
151 301 361
152 277 407
153 126 331
154 564 510
155 177 346
156 265 422
157 928 367
158 894 965
159 523 620
160 894 67
161 482 729
162 990 18
163 98 362
164 513 920
165 54 777
166 401 696
167 282 796
168 97 129
169 289 226
170 806 742
171 737 534
172 235 539
173 335 13
174 218 573
175 544 714
176 841 879
177 229 474
178 786 899
179 857 774
180 373 117
181 444 64
182 392 214
183 884 652
184 455 410
185 384 134
186 309 192
187 255 115
188 102 622
189 704 407
190 110 315
191 490 778
192 991 811
193 545 940
194 398 279
195 984 276
196 644 223
197 420 61
198 121 281
199 409 392
200 62 236
201 172 307
202 755 949
203 204 115
204 553 947
205 640 395
206 408 699
207 77 370
208 647 45
209 101 363
210 724 896
211 80 300
212 422 903
213 89 43
214 759 567
215 55 272
216 54 601
217 491 26
218 952 878
219 740 917
220 934 527
221 878 622
222 506 952
223 56 100
224 666 148
225 311 177
226 805 38
227 840 619
228 610 233
229 549 234
230 717 345
231 441 849
232 507 580
233 152 247
234 959 525
235 665 922
236 560 104
237 24 789
238 180 505
239 537 611
240 12 721
241 913 124
242 798 911
243 698 642
244 659 716
245 50 737
246 676 138
247 27 719
248 9 732
249 717 497
250 684 116
251 790 121
252 334 100
253 713 827
254 734 265
255 877 355
256 905 619
257 509 761
258 49 237
259 970 982
260 452 208
261 314 488
262 697 265
263 654 904
264 880 966
265 105 180
266 712 781
267 283 778
268 984 484
269 62 771
270 256 155
271 830 384
272 924 883
273 710 801
274 203 86
275 946 896
276 558 219
277 551 407
278 170 569
279 822 356
280 918 925
281 514 119
282 603 438
283 55 709
284 65 734
285 364 436
286 638 194
287 65 701
288 988 726
289 328 755
290 327 312
291 631 37
292 629 240
293 212 564
294 642 201
295 911 208
296 993 799
297 648 607
298 662 962
299 117 776
300 819 723
301 685 781
302 538 786
303 649 263
304 618 152
305 97 306
306 481 737
307 71 451
308 705 252
309 473 340
310 902 482
311 891 180
312 218 68
313 564 128
314 838 393
315 327 422
316 503 930
317 414 19
318 857 314
319 905 657
320 736 179
321 746 547
322 79 359
323 611 871
324 747 25
325 317 246
326 479 411
327 663 953
328 277 365
329 48 695
330 602 104
331 25 664
332 480 25
333 113 381
334 884 645
335 998 717
336 366 683
337 71 282
338 608 939
339 463 27
340 857 993
341 549 404
342 577 32
343 251 66
344 780 353
345 925 23
346 229 298
347 151 320
348 405 567
349 266 302
350 737 994
351 979 446
352 709 111
353 773 865
354 98 770
355 122 275
356 818 874
357 581 90
358 675 767
359 233 115
360 523 829
361 258 116
362 530 493
363 504 936
364 919 829
365 456 683
366 114 174
367 869 350
368 648 215
369 852 391
370 925 58
371 896 356
372 414 107
373 319 3
374 428 407
375 287 377
376 345 908
377 395 17
378 515 475
379 249 19
380 110 785
381 524 721
382 408 696
383 559 740
384 813 23
385 113 360
386 5 103
387 24 381
388 439 83
389 120 789
390 291 865
391 884 797
392 39 789
393 105 650
394 974 818
395 278 318
396 277 353
397 705 598
398 10 683
399 349 880
400 654 921
401 287 871
402 651 137
403 108 383
404 796 535
405 741 55
406 567 356
407 948 484
408 898 609
409 333 274
410 48 119
411 755 16
412 680 28
413 516 164
414 413 855
415 465 342
416 207 306
417 450 698
418 76 260
419 689 652
420 456 653
421 166 505
422 297 183
423 674 941
424 806 739
425 879 332
426 328 738
427 60 626
428 771 498
429 773 764
430 246 489
431 44 716
432 125 308
433 465 68
434 61 613
435 505 443
436 591 180
437 298 472
438 808 917
439 80 442
440 534 945
441 971 304
442 508 967
443 318 272
444 884 385
445 664 720
446 516 762
447 853 785
448 686 79
449 990 418
450 775 966
451 52 500
452 972 304
453 580 766
454 639 292
455 688 616
456 926 405
457 683 889
458 590 217
459 80 441
460 949 339
461 366 878
462 189 316
463 213 379
464 435 486
465 484 727
466 231 474
467 832 385
468 900 15
469 127 103
470 176 136
471 160 67
472 584 219
473 495 809
474 383 299
475 947 391
476 822 909
477 976 477
478 610 193
479 46 858
480 505 89
481 585 737
482 553 402
483 300 459
484 867 678
485 492 616
486 690 820
487 803 123
488 134 392
489 6 687
490 8 147
491 859 27
492 553 65
493 695 997
494 407 480
495 399 411
496 510 499
497 608 240
498 900 358
499 466 485
500 763 376
501 950 497
502 693 594
503 768 305
504 154 151
505 148 376
506 417 672
507 781 526
508 128 92
509 669 575
510 843 769
511 298 862
512 966 953
513 37 837
514 711 961
DEMAND_SECTION
2 67
3 86
4 82
5 99
6 54
7 52
8 54
9 71
10 70
11 61
12 74
13 91
14 97
15 92
16 63
17 84
18 90
19 53
20 66
21 79
22 57
23 53
24 72
25 58
26 94
27 86
28 64
29 74
30 82
31 78
32 77
33 78
34 58
35 51
36 64
37 61
38 87
39 92
40 80
41 62
42 97
43 88
44 78
45 78
46 86
47 75
48 62
49 96
50 82
51 50
52 61
53 86
54 67
55 92
56 57
57 51
58 70
59 93
60 83
61 99
62 64
63 62
64 78
65 64
66 81
67 85
68 56
69 56
70 87
71 91
72 92
73 58
74 68
75 93
76 58
77 98
78 87
79 85
80 94
81 71
82 93
83 50
84 60
85 90
86 95
87 87
88 85
89 79
90 54
COVERAGE_SECTION
2 6 506 72 336 166 40 382 
3 7 262 308 103 97 254 303 454 
4 7 157 475 460 456 498 84 371 
5 7 514 147 202 219 210 350 423 
6 7 491 160 468 81 370 345 384 
7 6 45 453 481 358 44 301 
8 7 403 333 73 488 209 163 385 
9 6 341 482 277 406 326 309 
10 7 478 286 105 304 60 436 294 
11 7 126 378 362 91 277 435 282 
12 6 47 380 389 299 354 269 
13 7 250 246 352 224 402 448 149 
14 7 75 387 307 76 459 439 207 
15 7 407 501 110 477 310 220 234 
16 7 59 111 512 259 280 158 264 
17 3 189 205 282 
18 3 288 391 64 
19 7 99 142 267 289 167 107 94 
20 6 372 77 180 185 388 197 
21 7 90 136 238 131 172 421 293 
22 7 190 432 153 305 198 347 355 
23 7 428 146 109 507 71 171 321 
24 3 231 414 212 
25 6 137 50 311 98 119 241 
26 7 176 356 476 139 80 242 438 
27 7 485 159 420 48 104 232 239 
28 6 301 44 358 266 273 486 
29 7 357 330 236 117 56 144 492 
30 7 396 31 395 328 349 151 112 
31 7 30 112 396 328 395 349 463 
32 7 237 392 165 269 248 55 245 
33 5 188 434 427 216 393 
34 7 418 337 215 211 200 305 258 
35 7 334 183 221 319 256 484 408 
36 5 331 398 489 329 427 
37 7 339 332 317 181 217 433 197 
38 7 96 367 255 116 369 467 271 
39 7 62 125 170 510 424 429 447 
40 6 2 122 506 72 348 420 
41 7 313 144 236 105 413 436 56 
42 7 423 327 298 235 400 147 61 
43 7 381 446 257 175 383 465 161 
44 6 301 28 358 266 273 486 
45 6 7 358 44 301 28 486 
46 5 496 362 378 499 154 
47 6 12 380 389 299 354 269 
48 6 232 239 159 485 27 104 
49 5 145 503 230 344 500 
50 7 137 119 25 92 241 487 311 
51 7 412 123 448 128 405 102 324 
52 6 483 156 437 152 315 261 
53 6 187 361 359 343 270 203 
54 6 469 508 150 168 78 471 
55 7 245 431 247 284 283 240 248 
56 7 236 357 492 29 313 144 281 
57 6 377 317 173 113 373 197 
58 7 347 201 432 462 153 22 198 
59 6 16 111 512 280 259 158 
60 7 478 286 294 10 228 196 368 
61 7 263 400 235 140 42 101 423 
62 6 39 429 125 170 510 424 
63 7 226 384 405 324 411 128 102 
64 7 394 192 296 364 218 18 272 
65 6 95 120 124 182 260 194 
66 6 325 169 186 86 422 443 
67 6 410 223 114 386 490 168 
68 7 353 178 210 219 242 356 253 
69 7 495 199 374 285 108 184 494 
70 7 456 475 351 407 15 310 449 
71 7 171 321 109 23 214 507 249 
72 7 506 382 122 206 166 2 417 
73 7 403 333 209 163 385 8 488 
74 7 399 511 390 461 130 401 376 
75 6 14 76 387 307 439 459 
76 6 451 75 127 307 14 439 
77 6 20 180 372 113 197 252 
78 7 504 150 470 469 54 508 168 
79 7 472 106 458 276 141 436 229 
80 6 176 26 139 364 272 356 
81 6 468 345 491 6 370 160 
82 5 499 464 378 435 496 
83 7 138 471 312 274 379 343 508 
84 7 121 441 452 460 4 195 157 
85 7 455 297 502 129 243 397 419 
86 7 443 409 325 66 290 135 169 
87 7 155 462 416 201 463 347 58 
88 7 302 446 257 191 473 43 360 
89 7 440 193 164 363 316 222 204 
90 7 131 21 172 118 293 136 174 
91 5 282 126 11 277 482 
92 6 487 251 119 50 137 25 
93 6 195 441 452 121 84 460 
94 2 289 19 
95 4 120 65 260 124 
96 6 38 279 271 467 116 367 
97 5 103 3 454 262 303 
98 3 311 25 137 
99 6 19 167 267 107 142 115 
100 5 278 293 174 133 21 
101 3 338 61 400 
102 7 324 411 405 128 51 63 412 
103 4 97 3 262 230 
104 4 232 485 27 48 
105 7 436 10 478 304 60 79 41 
106 7 79 276 472 141 458 229 436 
107 5 267 167 99 19 142 
108 4 199 495 69 285 
109 6 507 404 23 71 428 321 
110 6 220 310 15 501 407 234 
111 6 59 16 512 280 275 259 
112 7 31 328 463 396 375 30 152 
113 3 173 77 252 
114 5 386 67 490 410 223 
115 5 130 99 74 511 167 
116 7 318 367 425 38 96 255 279 
117 6 29 357 330 291 342 208 
118 6 430 90 172 131 466 177 
119 7 50 92 487 137 25 251 160 
120 4 260 95 65 124 
121 7 460 441 452 84 4 195 93 
122 7 506 72 420 365 2 417 382 
123 7 448 51 128 352 405 250 412 
124 4 182 260 120 65 
125 5 170 424 39 510 300 
126 6 91 277 482 11 341 282 
127 2 76 451 
128 7 405 123 324 51 102 411 63 
129 5 243 419 455 85 397 
130 2 115 74 
131 6 172 90 293 118 21 174 
132 4 227 484 35 183 
133 3 393 188 33 
134 4 360 164 89 316 
135 6 290 395 349 443 30 409 
136 5 238 21 421 90 177 
137 7 25 50 311 119 98 241 92 
138 7 83 471 312 379 274 213 508 
139 7 26 447 80 176 356 391 62 
140 5 457 263 61 235 400 
141 5 229 276 106 79 472 
142 7 19 267 289 99 426 107 167 
143 6 291 412 208 51 117 342 
144 7 313 236 330 41 357 29 56 
145 5 344 503 49 500 279 
146 4 428 23 507 109 
147 7 5 423 514 42 219 235 210 
148 5 342 492 217 332 56 
149 3 320 13 246 
150 7 168 78 469 54 504 366 508 
151 4 375 328 396 30 
152 6 156 375 52 328 112 151 
153 7 22 190 432 347 385 58 305 
154 4 362 46 11 496 
155 7 87 462 347 201 505 58 463 
156 6 152 52 375 112 483 328 
157 7 4 498 475 371 460 456 444 
158 6 264 340 280 16 59 111 
159 6 239 48 485 27 232 104 
160 5 370 6 468 491 345 
161 6 465 306 257 43 381 417 
162 4 345 370 468 81 
163 7 209 385 73 322 207 403 333 
164 6 316 363 89 222 440 193 
165 6 269 392 32 237 245 284 
166 5 382 206 72 506 2 
167 4 107 99 267 19 
168 7 150 54 469 78 366 508 223 
169 4 66 325 186 422 
170 5 424 125 300 39 429 
171 6 71 321 23 109 214 249 
172 6 131 90 118 293 21 174 
173 4 373 113 57 377 
174 5 293 131 172 90 278 
175 6 381 43 383 481 446 257 
176 7 26 356 476 80 139 438 242 
177 6 466 430 118 136 90 238 
178 7 242 438 353 476 68 356 219 
179 6 447 510 391 125 39 139 
180 3 185 20 77 
181 7 388 433 197 37 339 372 332 
182 4 124 65 120 260 
183 6 35 334 319 221 484 256 
184 7 326 374 199 69 495 435 82 
185 3 180 20 372 
186 4 225 422 66 169 
187 6 361 53 359 270 343 203 
188 6 33 393 427 434 133 216 
189 1 17 
190 7 22 305 432 153 211 198 347 
191 5 257 446 473 88 306 
192 7 296 394 64 364 218 18 288 
193 5 204 440 89 164 222 
194 4 474 65 182 409 
195 6 93 452 441 121 84 460 
196 6 368 294 292 286 60 228 
197 7 181 388 317 20 37 77 372 
198 7 355 432 22 305 190 58 211 
199 6 495 374 69 108 184 285 
200 5 258 418 34 215 337 
201 7 58 462 347 416 155 87 432 
202 7 450 5 219 514 350 147 242 
203 6 274 359 470 312 187 53 
204 3 193 440 89 
205 3 17 282 91 
206 4 382 166 72 506 
207 6 322 163 209 73 403 385 
208 6 291 412 143 117 51 448 
209 7 163 385 73 403 322 333 207 
210 7 219 147 457 68 5 140 353 
211 6 305 337 34 190 215 22 
212 1 24 
213 2 54 508 
214 5 321 71 109 171 507 
215 6 337 34 418 258 200 211 
216 3 434 427 33 
217 5 332 339 37 148 433 
218 5 275 272 280 364 64 
219 7 210 5 202 147 178 514 68 
220 5 234 110 501 15 407 
221 7 35 334 408 256 183 227 319 
222 6 442 363 316 89 440 164 
223 5 410 67 114 168 386 
224 7 246 402 13 250 304 286 10 
225 4 186 422 66 169 
226 7 384 63 411 491 324 6 405 
227 4 221 132 35 334 
228 6 497 292 458 60 472 196 
229 5 141 276 106 79 472 
230 1 49 
231 3 24 414 212 
232 5 48 104 485 159 239 
233 3 355 198 58 
234 6 220 501 15 407 110 268 
235 7 400 263 423 61 42 327 457 
236 7 56 313 357 144 29 492 41 
237 6 32 392 165 269 513 245 
238 4 136 421 21 90 
239 5 159 48 232 485 27 
240 6 248 247 55 431 489 398 
241 3 50 25 137 
242 6 438 178 476 356 353 26 
243 5 129 419 455 85 397 
244 3 445 358 7 
245 7 55 284 431 283 247 269 287 
246 7 224 13 250 402 352 149 304 
247 6 240 431 55 248 245 283 
248 6 240 247 55 431 245 489 
249 3 171 23 71 
250 7 13 246 352 224 448 402 123 
251 6 487 92 119 50 63 137 
252 3 180 77 113 
253 4 486 273 266 28 
254 3 308 262 3 
255 7 367 371 38 425 498 116 444 
256 6 408 221 334 35 319 183 
257 7 446 191 88 43 306 302 161 
258 4 200 418 215 34 
259 6 512 16 59 111 280 158 
260 4 120 124 95 65 
261 3 437 483 52 
262 6 3 308 254 103 97 303 
263 7 61 400 235 140 457 423 42 
264 5 158 340 280 16 59 
265 5 366 150 168 504 78 
266 4 273 28 301 44 
267 5 107 167 99 19 142 
268 7 477 407 501 351 15 234 220 
269 6 165 392 245 354 284 32 
270 5 361 187 359 53 422 
271 6 467 314 369 96 279 38 
272 5 275 218 280 80 364 
273 6 266 253 486 28 301 44 
274 6 312 203 359 471 343 83 
275 5 218 272 280 111 59 
276 6 141 106 229 79 472 458 
277 7 341 482 126 9 11 91 406 
278 5 100 293 174 21 90 
279 6 96 271 467 38 116 314 
280 6 111 59 275 272 16 158 
281 3 480 413 56 
282 5 91 126 11 205 277 
283 6 287 431 329 55 284 245 
284 6 245 55 283 431 287 269 
285 4 315 495 69 108 
286 6 294 60 368 10 478 196 
287 6 283 329 431 284 55 245 
288 4 335 18 296 192 
289 5 426 94 19 142 99 
290 5 135 409 443 86 395 
291 6 208 117 143 412 342 51 
292 6 228 497 196 303 368 60 
293 7 174 131 172 90 21 278 100 
294 6 286 368 196 60 10 478 
295 3 311 98 25 
296 7 192 394 64 288 18 364 335 
297 4 85 509 455 502 
298 6 327 42 423 235 400 493 
299 6 380 389 354 47 12 269 
300 4 424 170 125 39 
301 6 28 44 358 266 273 486 
302 7 88 446 257 360 453 191 473 
303 6 292 454 196 3 497 262 
304 7 10 105 402 436 478 286 144 
305 7 190 211 22 432 198 337 153 
306 6 161 465 257 191 43 446 
307 6 439 459 76 75 451 14 
308 4 262 3 254 103 
309 2 415 9 
310 6 110 15 407 501 220 70 
311 5 25 295 98 137 241 
312 7 274 343 203 359 83 53 379 
313 7 144 41 236 56 357 29 330 
314 6 467 271 369 96 38 279 
315 4 285 483 52 152 
316 5 363 164 222 89 440 
317 7 377 37 57 197 339 181 332 
318 7 116 425 367 255 38 96 279 
319 6 183 334 35 256 484 221 
320 2 149 13 
321 7 71 171 214 109 507 23 404 
322 5 207 163 209 73 385 
323 5 61 263 101 140 400 
324 7 102 411 405 128 63 51 226 
325 6 86 66 443 409 169 186 
326 7 184 435 374 9 82 341 415 
327 6 42 298 423 235 400 61 
328 6 396 375 151 30 112 31 
329 5 283 287 431 247 55 
330 7 29 357 144 117 236 313 56 
331 5 36 398 489 329 427 
332 6 217 339 37 433 181 148 
333 7 403 73 8 385 209 163 488 
334 7 35 183 221 319 256 484 408 
335 4 288 18 296 192 
336 1 2 
337 6 34 215 211 418 305 200 
338 2 101 61 
339 7 37 332 217 433 181 317 197 
340 4 264 158 450 16 
341 7 277 482 126 9 406 11 91 
342 6 148 492 117 291 29 357 
343 6 312 53 379 187 361 274 
344 4 145 500 49 279 
345 6 468 81 370 160 6 162 
346 5 416 349 462 31 395 
347 7 58 201 153 432 22 155 462 
348 1 40 
349 5 395 30 346 135 31 
350 7 493 514 450 202 5 147 219 
351 7 449 477 268 407 70 15 501 
352 7 13 250 123 448 246 128 224 
353 7 68 178 356 242 210 26 219 
354 6 380 299 389 269 47 12 
355 7 198 432 22 305 233 190 34 
356 7 26 176 476 178 242 438 353 
357 7 29 236 330 56 144 117 492 
358 6 44 301 28 266 45 445 
359 6 187 361 53 203 274 270 
360 4 473 134 302 88 
361 6 187 53 359 270 343 203 
362 6 46 496 378 154 11 435 
363 5 316 222 164 89 440 
364 7 64 391 80 272 394 218 275 
365 7 417 420 122 72 506 382 206 
366 5 265 150 504 168 78 
367 7 255 38 116 425 371 96 498 
368 6 196 294 286 60 292 228 
369 7 314 467 271 38 96 444 255 
370 4 160 345 468 6 
371 7 498 255 367 425 444 157 38 
372 7 20 388 185 77 180 197 181 
373 3 173 113 57 
374 7 199 69 184 495 326 108 285 
375 6 328 151 396 152 112 30 
376 3 399 461 74 
377 7 317 57 197 37 113 173 77 
378 7 46 362 496 435 11 499 82 
379 3 343 312 83 
380 6 299 389 354 47 12 269 
381 7 43 175 383 465 446 161 257 
382 5 206 166 72 506 2 
383 6 481 175 453 43 381 446 
384 7 226 63 491 411 6 324 102 
385 7 209 163 73 333 403 153 322 
386 5 114 67 490 410 223 
387 4 14 75 207 322 
388 5 181 197 433 372 20 
389 6 380 299 354 47 12 269 
390 3 401 511 74 
391 7 447 179 364 510 139 80 18 
392 6 237 165 32 269 513 245 
393 4 188 133 33 427 
394 6 64 192 296 364 218 18 
395 7 349 30 135 396 31 328 151 
396 7 328 30 151 375 31 395 112 
397 6 502 455 85 129 509 243 
398 6 489 331 36 240 247 329 
399 4 461 74 376 130 
400 7 235 61 263 42 423 327 298 
401 3 390 511 74 
402 7 224 246 304 250 13 10 286 
403 7 73 333 8 209 163 385 488 
404 4 507 109 23 428 
405 7 128 324 102 123 411 51 63 
406 4 9 482 341 277 
407 7 15 501 477 268 234 110 220 
408 5 256 221 334 35 183 
409 7 86 443 325 290 135 66 474 
410 6 67 223 114 386 490 168 
411 7 324 102 405 63 128 226 384 
412 6 51 208 143 291 123 448 
413 3 281 41 313 
414 2 24 231 
415 3 309 9 184 
416 7 462 346 201 87 155 58 31 
417 7 365 72 122 206 382 506 161 
418 7 34 337 215 200 258 211 355 
419 5 243 129 455 85 397 
420 7 122 365 27 506 417 72 485 
421 3 238 136 21 
422 4 186 225 169 66 
423 7 42 327 235 298 400 147 61 
424 5 170 125 300 39 429 
425 7 367 255 116 318 371 498 38 
426 4 289 142 19 94 
427 5 434 216 33 188 393 
428 5 146 23 507 109 404 
429 4 62 39 170 424 
430 6 118 466 177 90 172 131 
431 7 283 55 247 329 245 287 284 
432 7 22 190 153 198 305 347 58 
433 5 181 388 339 37 480 
434 4 427 216 33 188 
435 7 378 326 11 82 46 362 496 
436 7 105 478 10 79 458 60 106 
437 3 483 261 52 
438 6 242 476 178 356 176 26 
439 5 459 307 8 14 75 
440 5 89 193 204 222 363 
441 7 452 121 84 195 93 460 4 
442 4 222 363 440 89 
443 6 86 409 325 290 135 66 
444 7 255 371 498 369 38 367 314 
445 3 244 358 44 
446 7 257 88 43 191 302 381 306 
447 7 179 510 391 39 139 125 62 
448 6 123 250 352 51 412 13 
449 7 351 475 477 70 456 4 268 
450 5 202 350 5 438 219 
451 2 76 127 
452 7 441 121 84 195 93 460 4 
453 7 481 383 7 302 88 43 175 
454 4 303 97 292 3 
455 7 85 502 129 397 243 419 297 
456 7 475 70 157 4 444 498 371 
457 5 140 263 235 210 61 
458 7 472 79 228 497 106 60 478 
459 5 439 307 8 14 75 
460 7 121 84 4 157 441 452 475 
461 3 399 376 74 
462 7 201 416 87 155 58 347 346 
463 6 112 87 31 155 505 328 
464 3 494 499 82 
465 6 161 306 381 43 257 417 
466 6 177 430 118 136 90 52 
467 6 271 314 369 96 279 38 
468 6 81 345 6 491 370 160 
469 7 508 54 150 78 168 471 504 
470 5 504 78 203 150 274 
471 7 83 508 274 469 54 138 312 
472 7 458 79 106 276 228 141 497 
473 6 191 360 88 302 257 446 
474 4 194 409 290 86 
475 7 4 456 157 70 449 460 498 
476 6 438 242 356 176 178 26 
477 7 268 407 351 501 15 234 449 
478 7 60 10 436 105 286 458 294 
479 4 513 12 392 47 
480 3 281 433 56 
481 5 383 453 175 7 43 
482 7 341 277 126 9 406 91 11 
483 5 437 52 261 315 156 
484 3 183 35 334 
485 7 27 159 48 104 232 239 420 
486 4 253 273 28 301 
487 6 92 251 119 50 137 25 
488 7 505 8 333 403 73 385 209 
489 6 398 331 36 240 247 329 
490 5 114 67 386 410 223 
491 7 6 468 384 81 160 226 345 
492 6 56 357 29 148 236 342 
493 7 514 350 298 327 42 423 5 
494 2 464 82 
495 6 69 199 374 108 285 184 
496 4 46 362 378 499 
497 6 228 292 458 472 60 196 
498 7 371 255 157 444 367 425 38 
499 4 82 464 496 46 
500 3 344 145 49 
501 7 407 15 234 477 220 268 110 
502 5 397 455 85 509 129 
503 4 145 49 344 254 
504 6 78 470 150 366 469 265 
505 7 488 333 385 73 403 155 8 
506 7 72 122 382 2 206 166 365 
507 6 109 404 23 428 146 71 
508 6 469 54 471 150 78 168 
509 3 502 297 85 
510 6 179 447 125 39 170 424 
511 4 390 401 74 115 
512 6 59 16 111 259 280 275 
513 6 479 392 237 12 165 32 
514 7 5 147 493 350 423 202 42 
DEPOT_SECTION
   1
   -1
EOF
