NAME :  X-n819-kX-w163-c7.cctp
COMMENT : 	Adapted by Maziero, Usberti and Cavellucci from the Uchoa, Pecin, Pessoa, Poggi, Subramanian, and Vidal (2013)
TYPE :  CCTP
DIMENSION :    687
EDGE_WEIGHT_TYPE : 	EUC_2D	
CAPACITY : 	358
VERTICES_WITHIN_COVERAGE :  7
VERTICES_WITH_DEMAND : 	163
NODE_COORD_SECTION
1 500 500
2 174 325
3 49 34
4 543 815
5 42 920
6 545 80
7 681 950
8 664 944
9 61 68
10 609 259
11 116 500
12 482 911
13 708 930
14 93 57
15 642 940
16 487 619
17 511 63
18 330 52
19 529 831
20 586 862
21 503 839
22 713 994
23 28 939
24 9 111
25 203 347
26 31 115
27 414 352
28 521 982
29 121 304
30 600 26
31 506 772
32 624 39
33 205 328
34 218 104
35 22 959
36 657 188
37 72 978
38 434 815
39 487 107
40 22 987
41 599 870
42 201 402
43 726 961
44 51 7
45 35 922
46 182 331
47 577 233
48 672 906
49 485 852
50 543 849
51 574 991
52 120 166
53 592 877
54 422 762
55 26 695
56 52 953
57 673 848
58 66 393
59 165 162
60 824 928
61 462 135
62 520 759
63 25 807
64 483 808
65 600 549
66 196 76
67 420 719
68 348 480
69 531 837
70 157 347
71 273 259
72 526 18
73 373 29
74 39 211
75 398 49
76 451 211
77 693 949
78 518 106
79 451 981
80 629 687
81 731 830
82 599 866
83 202 772
84 217 285
85 102 404
86 481 771
87 601 864
88 123 963
89 467 217
90 62 8
91 532 256
92 57 914
93 640 193
94 502 823
95 197 59
96 4 824
97 110 938
98 439 838
99 543 808
100 51 34
101 94 672
102 55 46
103 420 46
104 666 997
105 186 414
106 398 883
107 103 942
108 482 816
109 62 137
110 11 840
111 37 54
112 537 858
113 745 914
114 183 279
115 703 953
116 762 726
117 485 54
118 64 920
119 74 352
120 560 178
121 283 179
122 496 834
123 660 886
124 589 160
125 650 963
126 565 36
127 241 338
128 446 971
129 638 817
130 193 372
131 752 955
132 511 904
133 411 5
134 780 925
135 536 781
136 53 168
137 495 777
138 42 892
139 488 80
140 793 984
141 201 317
142 531 985
143 181 240
144 530 802
145 576 942
146 654 903
147 634 953
148 612 71
149 334 119
150 155 811
151 35 956
152 593 840
153 588 819
154 771 968
155 273 325
156 561 46
157 113 88
158 23 813
159 49 38
160 162 152
161 611 778
162 297 479
163 627 78
164 559 818
165 79 48
166 711 905
167 612 162
168 509 839
169 301 160
170 693 913
171 527 213
172 144 73
173 95 965
174 29 145
175 674 900
176 418 225
177 532 930
178 501 68
179 24 888
180 572 153
181 546 820
182 683 948
183 571 205
184 523 805
185 193 375
186 553 9
187 131 86
188 528 786
189 672 129
190 908 170
191 654 893
192 514 130
193 547 783
194 33 856
195 563 814
196 459 856
197 467 859
198 494 844
199 106 523
200 726 969
201 155 240
202 497 414
203 294 802
204 85 39
205 649 864
206 52 978
207 521 99
208 529 779
209 317 909
210 32 72
211 704 952
212 197 150
213 307 273
214 602 256
215 169 378
216 111 139
217 258 317
218 657 898
219 438 983
220 179 381
221 510 735
222 586 48
223 663 907
224 189 269
225 210 315
226 82 925
227 503 313
228 541 34
229 44 321
230 415 220
231 25 39
232 67 86
233 771 900
234 500 94
235 176 285
236 267 333
237 490 62
238 521 801
239 181 316
240 179 85
241 17 56
242 95 82
243 411 740
244 533 794
245 474 811
246 626 805
247 480 939
248 777 982
249 7 927
250 611 848
251 115 40
252 185 356
253 585 173
254 21 63
255 707 856
256 45 961
257 435 96
258 72 127
259 68 71
260 590 866
261 607 175
262 678 960
263 105 300
264 488 850
265 524 833
266 179 767
267 688 857
268 559 798
269 556 998
270 474 784
271 599 803
272 639 513
273 535 534
274 552 830
275 193 52
276 509 765
277 41 119
278 170 171
279 79 975
280 131 959
281 139 193
282 630 881
283 14 853
284 553 62
285 65 0
286 822 866
287 342 897
288 669 895
289 204 332
290 163 344
291 493 780
292 687 988
293 723 938
294 133 299
295 838 996
296 747 957
297 685 953
298 124 990
299 565 47
300 34 141
301 69 911
302 173 354
303 237 260
304 689 665
305 624 724
306 221 496
307 585 761
308 238 451
309 451 753
310 539 773
311 240 717
312 540 26
313 48 70
314 58 59
315 78 51
316 76 933
317 429 830
318 304 71
319 702 1000
320 695 79
321 142 327
322 90 319
323 572 857
324 552 866
325 473 856
326 183 84
327 625 834
328 529 922
329 518 746
330 694 842
331 715 979
332 690 911
333 671 971
334 157 358
335 171 949
336 560 81
337 534 40
338 137 848
339 50 965
340 137 291
341 315 146
342 481 82
343 193 265
344 72 4
345 675 981
346 61 941
347 0 670
348 36 58
349 257 667
350 525 819
351 579 919
352 653 935
353 762 807
354 241 306
355 129 408
356 603 95
357 421 948
358 596 837
359 199 342
360 229 317
361 198 350
362 727 827
363 534 892
364 196 105
365 169 341
366 618 853
367 65 415
368 687 953
369 597 972
370 158 345
371 168 332
372 569 28
373 499 805
374 428 894
375 121 992
376 539 750
377 688 899
378 172 491
379 369 479
380 49 891
381 256 770
382 415 937
383 87 86
384 505 783
385 208 462
386 507 272
387 473 946
388 129 174
389 44 120
390 484 88
391 275 224
392 386 351
393 761 965
394 418 252
395 33 233
396 270 216
397 583 939
398 454 75
399 90 999
400 572 51
401 580 870
402 487 213
403 174 502
404 196 806
405 752 26
406 489 858
407 563 88
408 749 944
409 568 369
410 612 959
411 580 142
412 601 848
413 587 132
414 425 906
415 645 972
416 200 307
417 63 913
418 592 757
419 573 812
420 703 818
421 727 924
422 465 800
423 11 954
424 178 743
425 24 106
426 319 914
427 144 326
428 545 810
429 29 49
430 523 798
431 279 346
432 381 237
433 45 58
434 287 764
435 376 828
436 61 589
437 24 440
438 4 968
439 519 601
440 159 419
441 689 943
442 589 806
443 488 64
444 193 365
445 660 952
446 126 365
447 135 1000
448 652 954
449 576 158
450 42 159
451 176 182
452 266 261
453 527 817
454 564 87
455 497 765
456 483 865
457 65 894
458 50 230
459 689 955
460 638 891
461 534 35
462 295 209
463 540 822
464 517 26
465 538 79
466 599 3
467 593 782
468 45 0
469 703 930
470 707 633
471 490 107
472 163 88
473 583 628
474 474 789
475 9 943
476 565 35
477 413 80
478 743 800
479 494 869
480 183 312
481 894 879
482 559 953
483 112 118
484 566 275
485 35 927
486 152 359
487 566 201
488 237 261
489 664 667
490 467 937
491 144 327
492 567 59
493 92 296
494 797 701
495 63 83
496 340 435
497 431 52
498 234 263
499 161 343
500 556 90
501 246 413
502 422 731
503 24 65
504 626 53
505 509 746
506 743 851
507 416 906
508 520 46
509 63 807
510 221 463
511 732 909
512 704 940
513 671 909
514 160 967
515 361 128
516 649 861
517 116 104
518 161 352
519 637 772
520 8 93
521 471 759
522 456 852
523 541 805
524 713 907
525 515 873
526 705 942
527 118 327
528 254 330
529 402 539
530 783 822
531 487 201
532 581 876
533 39 795
534 604 984
535 39 852
536 706 947
537 229 339
538 533 973
539 738 836
540 0 139
541 130 325
542 26 364
543 853 961
544 412 937
545 695 995
546 544 786
547 1 405
548 142 302
549 484 875
550 775 773
551 499 18
552 39 52
553 698 178
554 564 826
555 37 878
556 576 208
557 550 819
558 461 796
559 546 805
560 65 886
561 93 132
562 48 0
563 648 844
564 35 957
565 70 204
566 91 1000
567 741 913
568 659 627
569 529 786
570 197 355
571 643 157
572 297 284
573 7 211
574 635 908
575 533 136
576 548 625
577 715 919
578 102 917
579 491 40
580 452 801
581 460 779
582 694 940
583 823 947
584 462 123
585 481 179
586 506 826
587 531 827
588 258 186
589 537 51
590 188 88
591 655 42
592 124 310
593 573 805
594 44 925
595 381 213
596 65 691
597 82 929
598 540 156
599 219 340
600 638 784
601 742 699
602 611 651
603 522 748
604 236 388
605 605 842
606 671 852
607 637 21
608 255 311
609 486 81
610 577 814
611 630 923
612 147 226
613 560 55
614 168 823
615 547 796
616 506 74
617 581 763
618 840 991
619 553 816
620 902 947
621 680 942
622 183 310
623 16 909
624 745 841
625 601 802
626 174 323
627 480 80
628 792 924
629 642 135
630 251 48
631 509 90
632 574 870
633 750 919
634 86 444
635 780 938
636 564 172
637 599 791
638 594 200
639 102 646
640 278 137
641 543 833
642 316 283
643 40 828
644 676 214
645 236 811
646 546 814
647 607 95
648 300 72
649 63 228
650 46 24
651 145 435
652 733 741
653 692 956
654 748 914
655 107 344
656 570 963
657 207 354
658 794 926
659 542 797
660 692 925
661 601 845
662 726 947
663 36 904
664 0 507
665 577 986
666 529 574
667 545 845
668 525 912
669 795 692
670 663 944
671 82 952
672 589 192
673 506 93
674 126 419
675 31 881
676 525 897
677 525 786
678 649 937
679 794 915
680 402 111
681 433 838
682 261 258
683 248 400
684 51 910
685 96 62
686 635 837
687 666 855
DEMAND_SECTION
2 89
3 59
4 53
5 85
6 95
7 66
8 70
9 84
10 68
11 96
12 87
13 77
14 65
15 88
16 75
17 84
18 92
19 75
20 77
21 55
22 64
23 60
24 71
25 80
26 79
27 61
28 100
29 62
30 92
31 60
32 55
33 52
34 65
35 73
36 81
37 97
38 75
39 76
40 87
41 99
42 78
43 50
44 70
45 89
46 98
47 84
48 59
49 63
50 62
51 88
52 61
53 77
54 70
55 76
56 77
57 59
58 53
59 54
60 74
61 81
62 59
63 79
64 78
65 95
66 51
67 69
68 73
69 78
70 59
71 86
72 63
73 97
74 51
75 77
76 99
77 76
78 68
79 77
80 65
81 87
82 62
83 76
84 86
85 92
86 62
87 96
88 80
89 56
90 86
91 86
92 95
93 73
94 74
95 73
96 87
97 92
98 88
99 81
100 81
101 74
102 62
103 55
104 76
105 98
106 78
107 59
108 74
109 83
110 92
111 75
112 71
113 75
114 81
115 70
116 52
117 94
118 54
119 78
120 58
121 93
122 64
123 89
124 63
125 82
126 98
127 51
128 58
129 63
130 61
131 91
132 56
133 81
134 97
135 91
136 51
137 73
138 95
139 79
140 100
141 55
142 81
143 85
144 52
145 99
146 57
147 54
148 62
149 78
150 60
151 81
152 89
153 87
154 80
155 96
156 83
157 53
158 95
159 70
160 69
161 81
162 62
163 83
164 50
COVERAGE_SECTION
2 7 626 371 46 239 480 365 622 
3 7 100 159 650 102 552 111 433 
4 7 646 428 181 99 463 557 523 
5 7 594 45 485 684 92 663 118 
6 7 465 336 500 284 407 454 613 
7 7 182 297 368 621 459 262 441 
8 7 670 445 352 448 621 678 7 
9 7 259 314 313 495 232 433 102 
10 7 214 47 484 556 638 183 672 
11 7 199 378 403 634 651 674 440 
12 7 247 132 490 387 549 668 479 
13 7 469 512 526 577 293 536 582 
14 7 685 315 165 204 242 251 259 
15 7 678 352 147 448 611 670 8 
16 3 439 576 666 
17 7 178 616 508 237 443 631 117 
18 7 318 648 73 149 75 630 515 
19 7 587 265 69 350 453 463 641 
20 7 260 401 82 632 41 87 323 
21 7 168 122 198 586 94 264 49 
22 7 319 331 545 292 200 43 345 
23 7 485 45 151 475 564 35 594 
24 7 425 520 26 540 277 389 174 
25 7 359 361 657 570 289 599 33 
26 7 277 425 389 24 300 174 520 
27 4 392 227 394 202 
28 7 142 538 269 482 177 656 51 
29 7 592 294 263 340 548 527 541 
30 7 466 222 32 372 126 476 504 
31 6 276 384 455 137 291 62 
32 7 504 607 30 591 148 163 222 
33 7 289 141 225 359 599 25 416 
34 7 364 590 66 326 240 95 212 
35 7 423 151 564 438 23 475 256 
36 7 93 644 571 553 167 261 629 
37 7 279 206 173 339 399 671 566 
38 7 317 580 681 98 558 422 245 
39 7 471 234 390 673 342 609 139 
40 7 438 35 206 564 151 256 423 
41 7 82 87 53 260 20 401 532 
42 7 105 185 220 130 444 604 215 
43 7 200 662 296 331 293 115 211 
44 6 562 468 90 285 650 344 
45 7 485 5 594 23 663 684 92 
46 7 2 626 371 239 365 480 359 
47 7 556 183 214 487 638 10 484 
48 7 513 175 223 288 218 377 146 
49 7 264 406 198 325 456 197 479 
50 7 667 112 641 69 324 274 19 
51 7 665 269 656 369 534 482 142 
52 7 388 216 281 561 160 59 483 
53 7 41 260 532 82 401 20 87 
54 7 243 309 502 581 67 521 580 
55 7 347 596 101 639 533 63 436 
56 7 256 339 346 151 564 206 23 
57 6 606 687 267 330 563 516 
58 7 367 85 119 542 634 437 655 
59 7 160 278 451 212 388 281 52 
60 7 583 658 628 679 134 543 635 
61 5 584 39 471 257 585 
62 7 603 276 329 505 31 376 208 
63 7 158 533 643 96 110 509 283 
64 7 108 245 373 422 474 94 558 
65 6 272 273 666 473 576 439 
66 6 590 326 95 240 275 364 
67 5 502 243 54 309 521 
68 4 379 496 162 529 
69 7 19 265 587 641 667 50 463 
70 7 370 499 518 290 334 365 486 
71 7 452 682 391 572 303 488 213 
72 7 464 312 461 228 337 551 186 
73 7 75 133 18 103 497 477 318 
74 5 458 395 649 565 573 
75 7 103 73 497 477 133 257 398 
76 7 89 176 402 230 531 585 394 
77 7 368 441 459 653 297 582 182 
78 7 207 631 673 234 192 471 39 
79 6 128 219 387 357 490 247 
80 5 305 489 602 304 568 
81 7 362 539 624 506 420 478 255 
82 7 87 41 260 53 20 412 401 
83 7 266 404 424 645 381 150 614 
84 7 416 498 225 343 488 224 303 
85 7 355 674 58 367 634 446 651 
86 7 137 270 291 521 455 474 581 
87 7 82 41 260 20 53 412 250 
88 7 280 298 97 173 107 375 514 
89 6 76 402 531 585 176 230 
90 7 285 44 344 562 468 650 100 
91 7 386 484 171 47 402 183 227 
92 7 417 684 118 301 5 594 457 
93 7 36 571 261 167 644 638 672 
94 7 586 122 21 168 373 108 198 
95 6 275 66 326 590 240 472 
96 7 110 158 63 283 643 194 533 
97 7 107 578 88 597 280 173 226 
98 7 681 317 522 38 196 197 325 
99 7 428 523 559 4 646 659 181 
100 7 3 159 650 102 552 111 433 
101 7 639 596 55 436 347 424 266 
102 7 159 3 100 314 433 552 111 
103 7 497 75 477 133 398 73 257 
104 7 345 292 333 545 415 319 125 
105 7 42 440 220 185 215 130 651 
106 6 507 374 414 544 382 681 
107 7 97 671 173 578 597 226 316 
108 7 64 245 373 94 122 422 586 
109 7 258 389 277 300 450 561 136 
110 6 283 96 194 158 535 643 
111 7 552 348 429 433 503 254 210 
112 7 50 667 324 69 641 525 19 
113 7 654 567 633 511 421 233 408 
114 7 235 224 343 622 416 480 84 
115 7 211 536 77 526 653 512 459 
116 5 652 601 494 669 550 
117 7 237 443 579 178 139 627 609 
118 7 417 92 301 684 316 226 597 
119 6 655 322 58 229 542 527 
120 6 636 487 253 449 180 183 
121 7 169 588 462 396 640 341 391 
122 7 21 198 94 586 168 264 49 
123 7 191 218 288 146 175 223 48 
124 6 449 253 180 411 167 261 
125 7 448 415 445 147 333 670 8 
126 7 476 372 156 299 400 613 492 
127 7 537 528 599 360 236 217 608 
128 6 79 219 357 387 490 382 
129 5 246 686 327 563 600 
130 7 185 444 220 570 252 361 657 
131 7 296 408 393 154 43 662 200 
132 7 668 676 328 363 12 525 177 
133 7 103 73 75 497 477 398 579 
134 7 628 635 658 679 233 633 654 
135 7 208 188 310 546 569 193 677 
136 7 450 109 174 300 565 74 258 
137 7 291 31 384 455 86 276 270 
138 7 380 663 555 675 179 684 457 
139 7 609 342 627 390 443 178 234 
140 7 248 154 393 295 583 618 635 
141 7 225 416 33 289 480 622 239 
142 7 28 538 269 51 482 656 665 
143 5 201 343 224 612 114 
144 6 184 430 238 244 523 659 
145 4 397 482 656 351 
146 7 218 191 223 288 48 123 513 
147 7 15 448 125 415 678 410 352 
148 6 163 504 647 356 32 222 
149 7 515 341 169 318 648 640 18 
150 6 614 338 404 266 83 424 
151 7 564 256 35 56 339 23 423 
152 7 358 661 412 605 250 153 20 
153 7 610 442 419 271 358 593 625 
154 7 393 248 131 296 140 635 408 
155 7 236 217 528 431 608 127 354 
156 7 299 613 126 400 476 492 284 
157 7 517 187 242 383 483 685 172 
158 7 63 96 643 533 110 509 283 
159 7 3 100 102 650 552 111 433 
160 7 59 278 451 212 388 52 281 
161 7 467 637 625 519 271 418 600 
162 5 68 496 308 379 306 
163 6 148 504 647 356 32 591 
164 7 195 619 554 557 181 274 646 
165 7 315 204 14 685 102 314 259 
166 7 524 577 170 511 332 377 13 
167 6 261 124 253 571 449 411 
168 7 21 586 122 198 265 94 19 
169 7 341 121 640 462 588 149 396 
170 7 332 660 377 166 469 524 48 
171 6 402 487 531 91 183 120 
172 4 187 472 157 240 
173 7 671 279 107 37 88 97 399 
174 7 300 450 277 389 26 540 136 
175 7 48 288 513 223 377 218 332 
176 6 230 394 76 432 595 89 
177 5 328 668 132 676 482 
178 7 616 17 237 443 139 609 117 
179 4 675 555 138 663 
180 4 449 411 124 636 
181 7 557 4 463 646 619 428 99 
182 7 7 297 368 621 441 459 77 
183 7 487 556 672 638 47 120 636 
184 6 238 430 144 453 350 244 
185 7 130 444 220 570 252 215 361 
186 7 312 372 72 228 476 126 461 
187 6 157 172 517 472 242 483 
188 5 569 677 208 135 244 
189 6 629 571 320 553 36 163 
190 6 553 405 320 644 189 36 
191 7 218 123 146 288 460 223 175 
192 5 575 78 207 471 39 
193 7 546 135 310 615 659 208 244 
194 5 535 283 555 675 110 
195 7 164 419 619 554 593 557 610 
196 7 522 197 325 49 456 98 264 
197 7 325 196 522 456 49 406 264 
198 7 264 21 122 49 406 168 94 
199 7 11 403 378 436 634 651 674 
200 7 43 331 662 296 22 115 211 
201 2 612 143 
202 7 409 227 27 273 392 386 379 
203 7 434 381 645 435 83 404 311 
204 5 165 315 14 685 251 
205 5 516 687 563 123 282 
206 7 339 256 37 56 279 564 151 
207 7 78 631 673 234 465 616 6 
208 5 135 188 569 677 310 
209 6 426 287 106 507 544 435 
210 5 503 254 348 313 111 
211 7 115 536 526 77 512 653 459 
212 7 59 278 160 451 364 34 590 
213 6 642 572 71 452 682 391 
214 7 10 47 484 556 638 183 672 
215 7 220 334 185 302 130 486 252 
216 7 561 483 52 517 388 258 109 
217 7 608 528 155 236 354 127 360 
218 7 146 191 223 123 288 48 175 
219 6 79 128 357 382 387 544 
220 7 215 185 130 444 252 302 42 
221 5 505 329 603 62 276 
222 7 400 299 492 126 156 476 30 
223 7 513 48 146 218 175 288 191 
224 6 343 114 235 143 84 416 
225 7 141 416 33 289 360 480 599 
226 7 597 316 118 301 417 578 346 
227 7 386 91 484 409 27 202 402 
228 7 461 312 337 589 72 156 126 
229 2 119 322 
230 6 176 394 595 76 432 89 
231 5 429 111 241 552 348 
232 6 495 259 9 383 313 242 
233 7 134 654 679 633 113 628 567 
234 7 673 631 471 390 39 139 609 
235 7 114 224 343 622 480 239 416 
236 7 155 528 217 431 608 127 354 
237 7 443 117 178 139 609 616 17 
238 5 184 430 144 244 677 
239 7 480 622 626 2 46 141 371 
240 6 326 590 472 66 364 95 
241 7 254 503 429 231 348 111 210 
242 7 383 157 685 14 232 259 517 
243 6 502 67 54 309 521 581 
244 6 144 188 569 659 430 677 
245 7 64 108 422 558 474 580 373 
246 7 129 600 625 271 327 637 161 
247 7 387 490 12 128 132 79 328 
248 7 154 140 393 131 296 635 408 
249 6 475 623 23 423 45 485 
250 5 605 366 412 661 87 
251 3 14 685 204 
252 7 302 444 570 361 130 25 359 
253 7 124 449 672 636 261 180 120 
254 6 503 241 210 348 429 111 
255 6 267 330 57 81 362 506 
256 7 339 56 151 564 206 35 346 
257 7 477 398 680 584 497 61 342 
258 6 109 561 389 277 300 216 
259 7 9 495 232 314 313 315 383 
260 7 20 82 41 53 87 401 532 
261 7 167 253 124 672 638 449 93 
262 7 7 297 368 459 182 333 653 
263 6 493 29 592 322 294 527 
264 7 49 198 406 325 456 122 21 
265 7 19 69 587 350 168 453 463 
266 7 83 424 404 150 614 645 381 
267 7 330 57 606 255 687 516 123 
268 7 615 559 195 593 659 428 99 
269 7 51 665 142 538 28 656 482 
270 7 474 86 581 422 558 291 137 
271 6 625 442 637 153 467 610 
272 5 65 273 568 666 473 
273 6 666 65 439 576 16 272 
274 7 641 557 181 554 164 463 619 
275 5 95 66 326 240 590 
276 7 31 455 62 137 384 505 329 
277 6 389 26 425 300 109 174 
278 7 59 451 160 212 281 388 52 
279 7 37 173 671 399 206 566 339 
280 7 88 97 514 298 107 375 173 
281 7 388 52 612 278 451 59 160 
282 6 460 205 191 574 516 123 
283 5 110 194 535 96 675 
284 7 613 492 156 299 589 6 336 
285 6 344 90 44 562 468 650 
286 6 679 530 233 60 628 658 
287 7 209 426 106 507 435 544 382 
288 7 175 48 218 123 223 513 191 
289 7 33 359 25 141 599 225 361 
290 7 499 370 70 365 518 371 302 
291 7 137 384 31 86 455 270 474 
292 7 545 345 319 104 333 22 262 
293 7 662 421 13 526 512 536 577 
294 6 340 548 29 592 541 263 
295 7 618 543 140 583 248 60 154 
296 7 131 408 393 43 662 200 154 
297 7 368 459 7 182 653 77 262 
298 7 375 447 88 280 566 399 173 
299 7 156 400 613 126 476 492 284 
300 7 174 450 277 389 26 109 136 
301 7 417 118 92 457 684 226 597 
302 7 252 518 290 365 334 499 70 
303 7 488 498 682 452 84 71 343 
304 5 489 470 568 601 80 
305 3 80 418 519 
306 6 510 385 403 308 378 162 
307 5 617 418 467 161 637 
308 6 510 385 501 306 683 42 
309 7 521 581 54 86 502 270 243 
310 7 135 208 193 546 569 188 677 
311 7 349 381 434 83 424 266 645 
312 7 228 461 337 72 186 464 589 
313 6 433 9 314 210 348 111 
314 7 9 102 433 313 259 552 111 
315 7 165 204 14 685 259 314 9 
316 7 597 226 346 118 671 301 417 
317 7 681 98 38 522 580 196 422 
318 7 648 18 149 630 640 341 73 
319 7 545 22 292 331 345 104 200 
320 7 591 189 163 504 629 405 32 
321 7 427 491 541 370 527 70 499 
322 5 493 263 527 655 29 
323 7 632 20 401 260 532 324 152 
324 6 112 50 323 632 667 401 
325 7 197 49 456 196 264 406 522 
326 6 240 590 66 472 364 95 
327 5 686 250 366 129 605 
328 5 177 668 132 676 363 
329 7 603 505 62 221 276 376 455 
330 7 267 255 57 606 420 687 362 
331 7 22 200 43 319 545 115 211 
332 7 170 377 660 48 175 513 166 
333 7 345 262 125 445 7 292 297 
334 7 486 518 70 370 290 302 499 
335 3 514 280 88 
336 5 454 407 500 6 284 
337 7 461 228 589 312 508 464 72 
338 2 614 150 
339 7 256 56 206 151 564 37 346 
340 5 294 548 29 592 263 
341 7 169 149 640 121 515 462 588 
342 7 627 609 139 390 443 234 237 
343 6 224 114 235 143 84 498 
344 5 285 90 44 562 468 
345 7 333 292 104 262 545 297 368 
346 7 56 316 118 594 597 671 226 
347 7 55 596 101 436 639 533 63 
348 7 111 552 433 429 503 210 254 
349 7 311 434 381 424 83 266 203 
350 7 453 587 19 184 265 463 4 
351 2 397 145 
352 7 678 15 670 8 445 448 147 
353 7 478 530 550 539 624 81 362 
354 7 608 360 217 528 84 127 225 
355 7 674 85 651 440 446 215 486 
356 3 647 148 163 
357 6 382 544 128 219 414 507 
358 7 152 661 605 412 250 153 20 
359 7 25 361 289 570 657 33 46 
360 7 354 225 537 127 599 33 608 
361 7 570 25 359 657 252 444 289 
362 7 81 539 624 420 506 478 255 
363 6 676 668 132 525 328 324 
364 7 590 34 326 240 66 472 212 
365 7 290 499 371 370 70 302 518 
366 5 250 605 412 661 87 
367 7 58 634 85 437 674 119 355 
368 7 297 459 182 653 7 77 441 
369 7 534 410 665 656 51 397 145 
370 7 70 499 290 518 365 334 486 
371 7 2 365 626 290 499 46 370 
372 7 476 126 299 156 400 186 222 
373 7 64 94 108 238 586 384 184 
374 6 414 507 106 382 544 196 
375 7 298 447 88 566 399 280 173 
376 7 603 62 329 310 505 135 208 
377 7 332 175 170 48 288 513 166 
378 6 403 385 306 510 11 651 
379 4 68 496 529 162 
380 7 138 457 560 555 663 684 675 
381 7 434 645 203 83 311 404 266 
382 6 544 357 507 414 374 128 
383 6 242 232 259 495 157 685 
384 5 31 137 291 276 455 
385 6 510 308 306 378 403 105 
386 7 91 227 484 171 402 89 531 
387 6 247 490 12 128 79 219 
388 7 52 281 59 216 160 278 451 
389 6 277 26 300 425 109 174 
390 7 342 609 139 627 234 39 471 
391 6 396 462 71 682 452 588 
392 1 27 
393 7 154 131 296 248 408 635 43 
394 6 176 230 432 76 595 89 
395 4 458 74 649 573 
396 6 391 462 588 121 71 682 
397 4 145 351 656 482 
398 7 627 257 342 390 497 609 139 
399 7 566 279 37 375 173 298 206 
400 7 299 492 156 613 222 126 476 
401 7 532 632 20 260 53 323 41 
402 5 531 89 585 76 171 
403 6 378 306 385 11 510 199 
404 7 614 83 645 150 266 424 381 
405 6 320 591 607 32 504 189 
406 7 49 264 456 479 198 325 549 
407 4 454 500 336 6 
408 7 131 296 662 393 633 293 43 
409 7 202 227 484 386 10 214 91 
410 7 369 147 534 397 415 15 125 
411 4 413 180 449 124 
412 7 661 605 250 152 358 87 82 
413 4 411 180 124 449 
414 6 507 374 382 544 106 357 
415 7 125 448 147 445 333 345 15 
416 7 141 225 622 480 239 33 289 
417 7 92 301 118 684 457 5 226 
418 5 307 617 467 161 637 
419 6 610 593 195 164 153 442 
420 7 330 362 81 255 539 57 267 
421 7 577 293 511 567 13 113 524 
422 7 558 580 245 474 270 64 581 
423 7 475 35 438 23 151 564 249 
424 7 266 83 404 311 150 614 381 
425 5 26 24 277 520 389 
426 6 209 287 106 544 507 382 
427 7 491 321 541 370 499 548 70 
428 7 99 646 4 559 523 181 557 
429 7 111 552 231 348 241 254 503 
430 6 238 184 144 244 677 188 
431 4 236 155 528 217 
432 5 595 230 176 394 76 
433 7 552 111 348 313 314 102 429 
434 7 381 203 311 645 83 404 349 
435 7 317 681 38 106 98 287 54 
436 7 639 199 101 347 596 664 11 
437 7 547 367 634 58 664 542 85 
438 7 423 35 475 40 151 564 23 
439 5 666 16 576 273 473 
440 7 651 105 355 674 215 220 42 
441 7 582 77 182 621 368 7 297 
442 6 271 153 625 610 593 419 
443 7 237 117 178 139 609 627 342 
444 7 130 185 570 252 361 657 25 
445 7 448 8 670 125 352 678 262 
446 7 486 655 334 70 518 370 527 
447 7 298 375 88 280 514 566 399 
448 7 445 125 670 8 15 678 147 
449 5 180 124 411 253 636 
450 7 136 174 300 109 389 277 258 
451 7 278 59 160 212 281 388 612 
452 7 682 71 303 488 498 391 572 
453 7 350 587 184 19 463 144 4 
454 4 407 336 500 6 
455 7 31 137 276 291 86 384 505 
456 7 406 549 479 49 325 264 197 
457 6 560 380 301 417 684 92 
458 4 649 395 74 565 
459 7 368 653 297 77 7 182 262 
460 7 282 191 574 146 218 123 205 
461 7 337 228 312 589 508 72 464 
462 7 391 396 121 588 169 71 452 
463 7 181 4 557 587 646 641 428 
464 7 72 461 508 551 337 312 228 
465 7 6 500 336 284 207 407 454 
466 7 30 372 607 32 186 126 222 
467 6 637 161 271 307 617 625 
468 6 562 44 90 285 650 344 
469 7 13 512 526 660 582 577 536 
470 6 304 568 489 601 80 602 
471 7 39 234 390 673 631 609 139 
472 6 240 326 172 590 187 66 
473 4 576 602 439 80 
474 7 270 422 558 581 86 64 291 
475 7 423 249 23 35 438 151 564 
476 7 126 372 156 299 400 613 228 
477 7 257 497 680 75 103 398 73 
478 6 353 362 81 539 624 550 
479 7 406 456 549 49 264 525 198 
480 7 622 239 626 2 416 46 141 
481 4 620 286 60 543 
482 5 656 145 397 538 177 
483 7 517 216 561 157 187 242 258 
484 7 91 214 47 10 386 556 183 
485 7 45 594 5 23 663 684 92 
486 7 334 518 70 370 499 290 302 
487 7 183 556 120 672 638 636 47 
488 7 303 498 682 452 84 71 343 
489 6 304 80 568 470 602 305 
490 6 387 247 12 128 79 357 
491 7 427 321 541 370 499 70 290 
492 6 613 400 299 156 284 222 
493 3 263 322 29 
494 5 669 116 601 550 652 
495 6 232 259 9 313 383 314 
496 3 68 379 162 
497 7 103 75 398 477 257 133 117 
498 7 303 488 682 84 452 71 343 
499 7 290 370 70 365 518 371 302 
500 5 407 454 336 6 465 
501 5 683 604 308 42 510 
502 6 67 243 54 309 521 581 
503 6 254 210 241 348 111 429 
504 7 32 148 163 591 607 30 222 
505 7 329 221 603 62 276 455 31 
506 6 624 539 81 362 255 353 
507 6 414 374 106 382 544 357 
508 7 337 461 589 17 464 228 312 
509 5 533 643 63 158 535 
510 6 385 308 306 378 501 105 
511 7 567 113 421 654 524 577 166 
512 7 526 536 469 582 13 211 115 
513 7 48 223 175 288 146 218 332 
514 6 335 280 88 447 298 375 
515 7 149 680 341 169 477 257 318 
516 5 205 563 687 606 57 
517 7 483 157 187 242 383 216 561 
518 7 70 334 290 370 499 486 302 
519 2 600 161 
520 6 24 425 26 210 503 254 
521 7 86 309 581 270 455 137 291 
522 7 196 197 325 98 681 49 456 
523 7 99 559 428 659 4 646 144 
524 7 166 577 511 170 421 332 13 
525 7 479 676 112 363 406 132 549 
526 7 512 536 211 115 582 13 469 
527 7 541 592 655 29 321 427 491 
528 7 236 217 127 608 155 354 537 
529 7 379 68 16 162 496 439 666 
530 7 353 624 478 539 506 550 81 
531 5 402 585 89 76 171 
532 6 401 632 53 260 20 41 
533 6 63 158 509 643 96 110 
534 7 369 410 665 51 656 147 415 
535 5 194 643 283 555 110 
536 7 211 526 115 512 77 582 13 
537 7 599 127 360 33 289 25 528 
538 7 142 28 482 269 656 177 51 
539 6 81 624 362 506 478 255 
540 7 24 174 300 26 425 277 450 
541 7 321 527 427 491 592 29 294 
542 5 229 547 58 119 367 
543 7 583 618 295 60 620 140 658 
544 6 382 357 507 414 374 128 
545 7 319 292 22 345 331 104 333 
546 7 193 135 615 659 244 310 569 
547 6 437 542 367 58 119 229 
548 7 294 340 592 29 427 321 491 
549 7 456 479 406 325 49 197 264 
550 5 353 478 116 530 652 
551 7 464 579 72 508 117 461 337 
552 7 111 348 433 429 102 159 231 
553 7 36 644 189 571 93 629 167 
554 7 164 195 274 619 557 419 610 
555 5 675 138 179 380 194 
556 7 183 487 638 672 47 120 253 
557 7 181 619 646 4 164 428 463 
558 7 422 580 474 581 270 245 64 
559 7 99 428 523 615 646 659 4 
560 5 457 380 138 301 417 
561 6 216 258 483 109 517 52 
562 6 468 44 90 285 344 650 
563 6 686 516 205 687 606 57 
564 7 151 256 35 56 339 23 423 
565 5 649 74 458 136 395 
566 7 399 279 37 375 298 173 447 
567 7 113 654 511 633 421 577 524 
568 6 489 304 470 602 80 473 
569 5 188 677 208 135 244 
570 7 361 25 657 444 252 359 130 
571 6 629 167 36 93 189 261 
572 7 213 642 71 452 682 155 608 
573 6 74 395 458 649 136 450 
574 7 611 460 146 191 218 282 223 
575 3 192 598 78 
576 4 473 439 666 16 
577 7 524 13 421 166 469 511 293 
578 4 97 226 597 107 
579 7 117 237 551 443 17 178 464 
580 7 558 422 38 581 245 474 270 
581 7 270 474 558 86 422 521 580 
582 7 441 77 512 526 469 182 536 
583 7 60 543 658 628 679 635 618 
584 7 61 39 471 257 390 342 627 
585 3 531 402 89 
586 7 94 21 122 168 265 350 198 
587 7 19 265 69 350 463 453 641 
588 6 121 396 391 462 169 640 
589 7 337 461 228 508 284 613 156 
590 7 326 240 66 364 472 95 34 
591 7 607 32 504 163 148 320 30 
592 7 29 294 541 527 548 263 340 
593 6 419 610 195 268 442 164 
594 7 5 45 485 92 684 23 118 
595 5 432 230 176 394 76 
596 7 101 55 639 347 436 533 509 
597 7 226 316 118 301 578 671 346 
598 3 575 636 120 
599 7 537 25 289 33 657 359 127 
600 4 519 246 161 129 
601 6 116 652 669 494 304 470 
602 4 473 80 568 489 
603 7 329 62 505 376 221 276 31 
604 5 683 501 42 185 657 
605 6 661 412 250 358 152 366 
606 7 57 687 267 516 563 205 330 
607 7 32 591 504 30 466 148 163 
608 7 217 354 528 155 236 360 127 
609 7 139 342 627 390 443 234 237 
610 6 419 593 153 195 442 164 
611 7 574 15 678 352 147 146 460 
612 3 201 281 143 
613 7 492 156 299 284 400 126 476 
614 5 150 404 338 266 83 
615 7 659 559 546 523 268 99 193 
616 7 178 17 631 139 673 237 234 
617 5 307 418 467 637 161 
618 7 295 543 583 140 248 60 154 
619 7 557 164 646 181 4 195 428 
620 5 543 481 618 583 60 
621 7 182 7 441 297 368 582 77 
622 7 480 239 626 2 416 141 46 
623 4 249 663 179 45 
624 6 539 506 81 362 353 255 
625 6 271 637 442 153 467 246 
626 7 2 239 46 371 480 622 365 
627 7 342 609 139 390 443 237 178 
628 7 658 679 134 635 60 233 583 
629 6 571 189 167 261 647 36 
630 7 95 648 275 318 66 34 590 
631 7 673 234 207 616 78 139 178 
632 6 401 532 323 20 260 53 
633 7 654 113 567 511 421 408 233 
634 7 367 85 674 58 355 651 437 
635 7 134 628 658 679 154 408 131 
636 6 120 449 180 253 124 487 
637 6 467 625 271 161 442 153 
638 7 672 556 183 253 261 487 47 
639 7 101 596 436 55 347 199 424 
640 7 169 341 121 588 149 34 648 
641 7 274 463 667 69 181 587 19 
642 5 213 572 71 452 155 
643 5 158 535 63 194 110 
644 7 36 93 553 571 261 10 167 
645 7 404 381 83 203 434 614 266 
646 7 4 428 181 557 99 619 559 
647 3 356 148 163 
648 7 318 18 630 149 640 341 515 
649 4 458 565 74 395 
650 6 3 100 159 44 90 102 
651 7 440 674 355 105 85 634 215 
652 4 116 601 550 478 
653 7 459 368 77 297 115 182 7 
654 7 113 633 567 511 421 233 408 
655 7 527 446 322 541 119 592 321 
656 7 482 145 665 397 51 369 269 
657 7 25 361 570 359 444 599 252 
658 7 628 679 134 635 60 233 583 
659 7 615 523 244 559 99 546 144 
660 7 170 469 332 582 13 441 512 
661 7 412 605 152 358 250 87 366 
662 7 293 43 536 200 526 211 296 
663 6 138 684 5 45 380 179 
664 7 437 436 547 199 634 367 11 
665 7 51 269 369 656 534 482 145 
666 6 439 273 576 16 65 473 
667 7 50 641 112 69 274 19 324 
668 5 328 676 132 177 363 
669 5 494 116 601 652 550 
670 7 8 445 352 448 678 621 7 
671 7 173 316 107 279 597 346 226 
672 7 638 253 556 183 261 487 120 
673 7 631 234 207 78 616 471 139 
674 7 355 651 85 440 634 446 215 
675 4 555 179 138 380 
676 6 363 668 132 328 525 177 
677 5 188 569 208 244 135 
678 7 352 15 670 8 448 445 147 
679 7 628 658 134 233 635 60 583 
680 7 477 257 515 584 75 398 61 
681 7 98 317 38 522 196 197 580 
682 7 452 71 303 488 498 391 396 
683 4 501 604 42 308 
684 7 92 417 5 118 663 594 301 
685 7 14 242 315 165 204 383 251 
686 4 327 563 129 366 
687 6 606 57 516 205 563 267 
DEPOT_SECTION
   1
   -1
EOF
