NAME :  X-n837-kX-w334-c11.cctp
COMMENT : 	Adapted by Maziero, Usberti and Cavellucci from the Uchoa, Pecin, Pessoa, Poggi, Subramanian, and Vidal (2013)
TYPE :  CCTP
DIMENSION :    803
EDGE_WEIGHT_TYPE : 	EUC_2D	
CAPACITY : 	44
VERTICES_WITHIN_COVERAGE :  11
VERTICES_WITH_DEMAND : 	334
NODE_COORD_SECTION
1 940 231
2 721 848
3 618 44
4 993 145
5 636 512
6 274 496
7 245 945
8 449 812
9 29 650
10 399 8
11 548 19
12 769 717
13 221 850
14 980 233
15 477 922
16 498 720
17 136 832
18 351 663
19 58 67
20 889 569
21 28 334
22 804 928
23 900 138
24 393 403
25 982 609
26 79 299
27 684 582
28 169 252
29 405 925
30 875 191
31 674 112
32 576 537
33 539 63
34 338 657
35 210 209
36 676 568
37 949 826
38 572 890
39 210 615
40 737 46
41 30 527
42 131 724
43 671 842
44 727 566
45 507 497
46 524 134
47 167 665
48 819 108
49 929 582
50 713 738
51 352 626
52 887 547
53 176 645
54 611 289
55 457 532
56 11 147
57 958 60
58 587 187
59 790 956
60 974 63
61 306 225
62 961 969
63 238 736
64 758 840
65 88 44
66 507 811
67 768 476
68 51 914
69 494 445
70 953 33
71 922 45
72 748 111
73 544 867
74 477 596
75 322 79
76 439 150
77 586 764
78 214 599
79 168 480
80 925 138
81 797 107
82 751 783
83 738 913
84 703 73
85 681 886
86 627 27
87 887 310
88 478 345
89 571 600
90 834 858
91 549 370
92 657 233
93 126 769
94 317 934
95 237 55
96 851 409
97 838 426
98 477 559
99 542 94
100 370 432
101 520 621
102 666 178
103 631 484
104 733 255
105 820 918
106 687 877
107 752 983
108 157 720
109 709 898
110 300 878
111 728 617
112 66 59
113 991 657
114 717 47
115 463 177
116 586 397
117 792 307
118 100 392
119 438 722
120 43 247
121 71 476
122 69 560
123 211 73
124 471 14
125 115 806
126 194 337
127 921 320
128 104 495
129 36 456
130 500 152
131 782 316
132 881 374
133 277 601
134 962 575
135 588 181
136 941 728
137 108 931
138 11 814
139 209 800
140 129 525
141 126 149
142 31 219
143 97 324
144 495 122
145 759 480
146 859 782
147 780 669
148 786 769
149 759 159
150 282 633
151 361 17
152 957 103
153 711 939
154 544 544
155 27 318
156 665 656
157 523 586
158 842 429
159 539 783
160 769 347
161 937 386
162 824 841
163 738 391
164 833 988
165 16 637
166 91 472
167 41 388
168 623 780
169 660 155
170 700 658
171 946 783
172 607 815
173 87 771
174 658 874
175 527 853
176 459 577
177 352 829
178 427 235
179 937 639
180 554 438
181 833 692
182 421 999
183 908 447
184 469 163
185 737 238
186 509 61
187 246 352
188 488 408
189 600 359
190 510 460
191 342 691
192 95 216
193 787 465
194 700 873
195 659 568
196 478 525
197 988 980
198 303 119
199 241 353
200 28 661
201 724 842
202 2 660
203 210 180
204 840 841
205 843 9
206 430 92
207 265 453
208 209 673
209 20 952
210 673 659
211 185 335
212 138 655
213 263 155
214 769 741
215 325 260
216 831 678
217 401 625
218 212 360
219 118 426
220 192 520
221 596 376
222 449 679
223 579 295
224 333 352
225 837 944
226 377 500
227 797 97
228 65 235
229 440 877
230 849 769
231 439 326
232 407 621
233 550 241
234 169 68
235 253 243
236 76 852
237 642 116
238 598 124
239 564 374
240 997 660
241 14 98
242 845 303
243 774 9
244 791 671
245 299 800
246 575 109
247 865 708
248 290 897
249 953 348
250 906 692
251 895 790
252 25 242
253 761 886
254 909 336
255 501 846
256 731 4
257 337 71
258 106 973
259 400 229
260 846 368
261 623 580
262 978 669
263 884 559
264 10 910
265 390 602
266 451 134
267 324 221
268 569 98
269 735 341
270 411 220
271 672 867
272 69 790
273 584 520
274 193 416
275 954 912
276 761 734
277 192 875
278 88 353
279 777 38
280 98 68
281 642 658
282 838 305
283 824 694
284 238 825
285 344 138
286 137 683
287 357 593
288 541 423
289 537 99
290 137 539
291 719 213
292 68 173
293 788 339
294 939 69
295 826 300
296 86 779
297 492 174
298 96 108
299 674 364
300 566 830
301 371 935
302 119 629
303 840 180
304 678 310
305 979 466
306 970 249
307 975 291
308 298 94
309 192 630
310 560 724
311 310 503
312 506 445
313 720 806
314 259 450
315 156 388
316 81 518
317 597 384
318 388 967
319 399 787
320 11 859
321 688 276
322 721 451
323 3 300
324 983 902
325 184 404
326 984 221
327 514 801
328 887 476
329 106 208
330 356 238
331 552 923
332 318 297
333 803 145
334 974 602
335 316 566
336 73 473
337 448 186
338 422 51
339 86 398
340 653 3
341 548 316
342 239 470
343 717 351
344 762 276
345 434 39
346 420 378
347 141 122
348 805 572
349 769 874
350 909 440
351 875 676
352 393 561
353 38 852
354 105 958
355 504 740
356 840 804
357 62 24
358 360 375
359 199 310
360 661 252
361 484 955
362 481 777
363 208 145
364 74 749
365 277 225
366 223 388
367 353 272
368 504 527
369 242 931
370 801 74
371 538 483
372 510 183
373 377 842
374 244 834
375 115 811
376 37 611
377 570 338
378 30 147
379 658 235
380 109 856
381 950 351
382 34 512
383 937 779
384 840 77
385 541 308
386 470 783
387 890 127
388 672 450
389 321 779
390 132 77
391 658 358
392 875 663
393 719 972
394 893 283
395 86 437
396 45 423
397 119 237
398 199 550
399 221 723
400 613 950
401 357 566
402 582 795
403 815 464
404 329 481
405 223 90
406 144 199
407 819 300
408 778 769
409 960 581
410 891 760
411 869 582
412 762 952
413 129 544
414 891 765
415 341 202
416 279 754
417 152 677
418 262 932
419 114 684
420 563 354
421 128 42
422 527 584
423 322 73
424 562 370
425 392 609
426 402 184
427 407 91
428 269 94
429 736 268
430 598 496
431 292 92
432 108 661
433 433 748
434 331 889
435 240 788
436 536 312
437 341 127
438 258 809
439 519 923
440 326 931
441 391 274
442 117 800
443 353 801
444 202 115
445 323 190
446 44 588
447 326 102
448 446 362
449 469 593
450 117 93
451 764 469
452 595 304
453 511 582
454 552 544
455 267 814
456 355 95
457 82 52
458 505 535
459 232 30
460 234 71
461 339 189
462 296 920
463 39 226
464 348 79
465 513 307
466 528 254
467 333 16
468 382 971
469 532 444
470 451 579
471 380 524
472 64 69
473 95 739
474 483 514
475 750 328
476 497 64
477 286 695
478 248 949
479 375 378
480 465 221
481 665 270
482 366 0
483 254 885
484 237 52
485 573 528
486 355 35
487 326 743
488 147 77
489 120 742
490 247 1
491 542 619
492 352 892
493 366 80
494 91 80
495 538 87
496 902 274
497 654 479
498 313 817
499 106 673
500 195 998
501 115 52
502 364 134
503 274 243
504 174 77
505 213 892
506 128 133
507 449 314
508 556 888
509 321 786
510 600 669
511 324 50
512 342 957
513 286 100
514 430 128
515 207 933
516 468 125
517 175 709
518 118 633
519 162 859
520 51 47
521 53 761
522 134 680
523 442 125
524 616 462
525 444 691
526 40 840
527 464 616
528 127 21
529 285 942
530 79 85
531 164 732
532 802 300
533 601 607
534 310 162
535 340 363
536 133 689
537 414 154
538 77 257
539 413 193
540 964 400
541 410 533
542 461 585
543 134 80
544 298 981
545 410 716
546 181 164
547 150 224
548 446 55
549 241 697
550 395 26
551 441 90
552 451 196
553 136 5
554 270 851
555 507 75
556 398 622
557 352 730
558 305 69
559 322 743
560 349 122
561 395 83
562 387 251
563 105 616
564 355 120
565 751 566
566 249 494
567 209 637
568 345 960
569 413 673
570 130 914
571 274 911
572 780 402
573 140 61
574 482 279
575 246 922
576 282 106
577 356 96
578 245 939
579 484 170
580 542 595
581 331 165
582 534 437
583 139 685
584 780 618
585 689 306
586 22 4
587 436 370
588 304 987
589 171 660
590 764 567
591 594 247
592 255 840
593 495 395
594 579 590
595 86 560
596 378 926
597 114 692
598 540 352
599 249 45
600 601 470
601 723 669
602 457 108
603 77 759
604 289 292
605 136 898
606 213 165
607 455 745
608 278 80
609 642 706
610 608 601
611 556 353
612 515 475
613 263 868
614 186 643
615 443 30
616 246 21
617 634 512
618 655 385
619 144 764
620 693 342
621 460 151
622 555 359
623 327 83
624 345 249
625 115 82
626 530 192
627 114 674
628 213 657
629 597 751
630 277 98
631 518 599
632 414 97
633 324 43
634 102 914
635 603 302
636 480 125
637 189 49
638 561 541
639 424 174
640 542 198
641 276 191
642 263 655
643 468 282
644 199 7
645 336 851
646 59 564
647 521 545
648 516 627
649 554 621
650 313 731
651 300 98
652 412 189
653 242 77
654 201 388
655 371 154
656 503 99
657 384 327
658 512 898
659 278 136
660 375 11
661 339 132
662 318 181
663 482 548
664 137 621
665 67 799
666 620 405
667 45 758
668 155 793
669 249 50
670 205 733
671 559 485
672 554 130
673 599 693
674 365 919
675 544 449
676 297 100
677 355 64
678 38 710
679 473 164
680 34 929
681 150 787
682 543 575
683 178 253
684 690 409
685 55 99
686 242 68
687 535 315
688 230 108
689 112 800
690 195 119
691 519 123
692 255 885
693 346 372
694 55 79
695 470 430
696 109 474
697 121 716
698 46 87
699 276 162
700 388 31
701 627 292
702 105 831
703 196 879
704 136 70
705 70 101
706 462 77
707 182 429
708 644 337
709 461 727
710 611 551
711 250 928
712 330 168
713 605 605
714 116 708
715 257 883
716 593 306
717 335 249
718 113 146
719 631 430
720 397 76
721 251 203
722 349 223
723 348 93
724 549 148
725 99 354
726 65 569
727 446 265
728 218 903
729 174 66
730 571 482
731 599 697
732 546 563
733 294 994
734 197 184
735 316 899
736 603 611
737 792 373
738 182 925
739 240 583
740 142 783
741 684 693
742 269 748
743 646 519
744 268 693
745 213 33
746 111 771
747 61 608
748 246 114
749 658 591
750 370 288
751 312 448
752 210 48
753 679 342
754 180 107
755 539 169
756 18 18
757 248 946
758 565 83
759 198 787
760 518 10
761 71 769
762 554 356
763 64 665
764 301 987
765 219 644
766 637 463
767 415 133
768 190 59
769 301 863
770 747 120
771 274 803
772 422 236
773 469 369
774 591 776
775 657 311
776 375 17
777 496 587
778 332 242
779 571 590
780 236 921
781 554 485
782 439 545
783 114 190
784 324 21
785 656 228
786 526 747
787 340 132
788 202 580
789 238 966
790 513 551
791 163 299
792 141 898
793 306 117
794 264 956
795 575 460
796 95 725
797 60 249
798 415 82
799 667 557
800 266 960
801 567 423
802 348 955
803 345 144
DEMAND_SECTION
2 7
3 9
4 6
5 7
6 6
7 8
8 9
9 5
10 8
11 10
12 7
13 5
14 7
15 10
16 6
17 5
18 5
19 7
20 6
21 10
22 8
23 10
24 9
25 6
26 10
27 10
28 10
29 10
30 5
31 7
32 8
33 9
34 5
35 7
36 10
37 9
38 6
39 7
40 6
41 7
42 7
43 9
44 6
45 8
46 6
47 5
48 7
49 6
50 7
51 6
52 10
53 6
54 7
55 6
56 7
57 5
58 6
59 9
60 7
61 7
62 8
63 9
64 10
65 10
66 8
67 8
68 5
69 9
70 9
71 10
72 9
73 7
74 10
75 5
76 5
77 10
78 8
79 8
80 10
81 6
82 6
83 8
84 8
85 5
86 9
87 7
88 8
89 6
90 6
91 6
92 9
93 7
94 10
95 10
96 10
97 10
98 7
99 6
100 8
101 6
102 8
103 8
104 10
105 10
106 7
107 7
108 9
109 7
110 10
111 7
112 5
113 9
114 5
115 5
116 9
117 8
118 7
119 9
120 5
121 5
122 8
123 7
124 9
125 10
126 10
127 6
128 8
129 5
130 10
131 10
132 10
133 7
134 9
135 8
136 7
137 6
138 7
139 9
140 9
141 10
142 8
143 6
144 10
145 6
146 7
147 8
148 5
149 9
150 6
151 9
152 7
153 10
154 8
155 10
156 5
157 10
158 8
159 5
160 10
161 10
162 8
163 7
164 8
165 7
166 5
167 6
168 10
169 6
170 6
171 10
172 10
173 8
174 6
175 6
176 9
177 5
178 7
179 10
180 6
181 8
182 6
183 8
184 7
185 8
186 8
187 8
188 5
189 8
190 9
191 8
192 7
193 5
194 8
195 9
196 8
197 5
198 8
199 10
200 5
201 5
202 6
203 8
204 9
205 6
206 9
207 7
208 8
209 5
210 9
211 10
212 10
213 6
214 7
215 7
216 8
217 8
218 5
219 5
220 9
221 10
222 6
223 6
224 5
225 10
226 9
227 8
228 7
229 7
230 10
231 9
232 9
233 8
234 5
235 7
236 10
237 5
238 6
239 7
240 9
241 7
242 9
243 5
244 9
245 8
246 7
247 8
248 9
249 7
250 7
251 7
252 9
253 9
254 5
255 5
256 5
257 5
258 5
259 8
260 9
261 8
262 7
263 5
264 5
265 5
266 9
267 7
268 5
269 5
270 7
271 7
272 7
273 5
274 9
275 8
276 7
277 9
278 7
279 7
280 6
281 7
282 5
283 5
284 7
285 6
286 6
287 8
288 7
289 5
290 6
291 8
292 6
293 7
294 8
295 6
296 6
297 5
298 5
299 6
300 5
301 6
302 7
303 8
304 7
305 5
306 5
307 10
308 8
309 9
310 5
311 6
312 6
313 7
314 6
315 10
316 8
317 8
318 7
319 10
320 8
321 7
322 8
323 7
324 7
325 6
326 8
327 8
328 8
329 6
330 5
331 8
332 6
333 8
334 10
335 5
COVERAGE_SECTION
2 11 201 194 64 313 106 43 109 271 85 253 349 
3 11 86 340 758 268 11 237 246 33 238 31 84 
4 11 152 80 326 60 14 57 23 294 387 306 70 
5 11 617 743 103 497 430 710 766 273 524 600 799 
6 11 566 311 207 342 314 404 751 335 220 398 739 
7 11 757 478 578 369 711 418 789 794 575 780 800 
8 11 386 362 319 66 255 229 327 433 607 373 709 
9 8 200 165 202 763 376 747 678 446 
10 10 550 660 700 776 482 151 345 338 615 486 
11 11 760 33 186 758 476 495 555 3 99 124 86 
12 11 276 214 147 244 408 148 50 283 601 82 181 
13 11 374 284 592 277 703 505 613 483 554 692 715 
14 11 326 306 307 496 4 394 127 80 30 249 87 
15 11 361 439 658 229 29 331 255 175 508 73 182 
16 11 355 709 786 607 362 119 525 310 222 386 433 
17 11 375 702 125 380 442 519 689 668 681 740 236 
18 11 34 191 51 556 217 569 557 425 232 287 265 
19 11 472 112 694 520 698 457 530 685 494 705 65 
20 11 263 52 411 49 409 134 348 179 334 328 392 
21 11 155 323 167 26 278 143 725 339 120 396 538 
22 11 105 59 225 412 253 349 164 83 90 107 162 
23 11 387 80 30 152 303 294 48 384 4 71 57 
24 11 479 100 346 358 587 693 535 448 657 224 695 
25 11 334 409 134 113 240 179 49 262 20 263 52 
26 11 143 538 797 155 278 725 21 120 228 397 323 
27 11 36 749 195 799 44 111 261 565 743 156 170 
28 11 683 547 791 397 35 406 359 734 329 192 203 
29 11 596 301 674 318 468 229 492 802 568 512 15 
30 11 303 23 387 80 333 496 394 48 306 14 326 
31 11 237 169 84 102 770 72 238 114 3 40 86 
32 11 485 638 273 454 154 710 732 430 682 594 779 
33 11 495 186 99 758 555 289 476 11 268 656 760 
34 11 18 51 191 150 477 287 556 217 425 557 642 
35 11 734 203 721 606 546 683 235 28 547 363 406 
36 11 799 27 195 749 44 261 743 710 5 617 111 
37 11 171 383 251 324 414 275 410 136 146 204 356 
38 11 508 73 331 175 300 658 439 400 172 255 174 
39 11 78 567 309 765 788 614 628 739 53 208 589 
40 11 114 279 256 84 243 72 370 770 227 81 31 
41 11 382 646 122 316 726 446 121 595 336 129 128 
42 11 697 489 714 108 531 536 597 796 473 583 286 
43 11 271 174 106 194 85 2 201 313 109 172 168 
44 11 565 590 27 36 111 799 195 749 584 348 145 
45 11 612 474 368 371 190 458 196 781 647 312 671 
46 11 691 724 130 672 144 289 755 656 99 636 495 
47 11 589 417 53 614 212 583 286 522 536 208 309 
48 11 81 227 384 370 333 72 387 770 303 149 279 
49 11 409 134 20 334 263 52 179 25 411 113 392 
50 11 276 741 214 82 12 313 601 408 609 148 170 
51 11 287 34 18 425 265 556 217 232 401 191 150 
52 11 263 20 411 49 328 134 409 348 183 334 179 
53 11 614 589 47 309 567 212 628 417 208 765 39 
54 11 635 701 452 716 223 591 775 481 708 360 377 
55 11 196 782 663 474 98 176 368 470 541 458 542 
56 11 378 241 292 685 698 142 705 694 463 530 19 
57 11 60 294 70 71 152 80 4 387 23 384 205 
58 11 135 640 755 724 626 591 238 233 672 372 246 
59 11 412 22 107 105 225 164 83 393 253 153 349 
60 11 57 294 70 152 71 4 80 23 387 384 205 
61 11 267 365 778 503 717 445 215 415 722 641 624 
62 11 197 275 324 225 164 37 105 22 90 59 204 
63 11 399 670 742 549 416 435 744 477 759 208 517 
64 11 201 349 2 253 313 82 162 194 408 83 109 
65 11 457 280 112 501 357 472 494 520 19 421 530 
66 11 327 255 159 362 386 175 8 300 73 786 355 
67 11 451 145 193 403 322 572 97 158 163 590 565 
68 11 680 264 209 634 137 353 236 320 354 526 570 
69 11 312 190 695 188 612 469 582 593 675 288 45 
70 11 57 71 60 294 152 80 205 387 23 4 384 
71 11 294 70 57 60 152 205 384 387 80 23 48 
72 11 770 81 149 227 84 333 370 40 48 114 31 
73 11 175 508 38 300 658 255 331 439 66 327 402 
74 11 449 542 777 527 176 470 98 453 631 157 663 
75 11 423 623 257 558 447 464 308 511 651 723 431 
76 10 266 621 514 523 537 639 767 184 115 337 
77 11 774 629 402 168 310 159 172 786 731 300 673 
78 11 39 788 739 309 567 765 398 614 628 53 133 
79 11 220 707 696 140 128 290 274 342 219 413 166 
80 11 23 387 152 4 294 30 57 60 71 303 326 
81 11 227 48 370 333 72 384 770 149 279 303 40 
82 11 408 148 313 214 276 64 50 201 12 2 356 
83 11 109 253 153 412 349 194 106 393 85 2 59 
84 11 114 40 31 72 770 256 237 279 340 86 3 
85 11 106 271 194 174 109 43 2 153 201 83 253 
86 11 3 340 11 758 84 237 114 268 33 31 246 
87 11 394 254 127 496 242 282 295 132 407 260 381 
88 11 773 448 507 231 587 465 593 598 188 643 687 
89 11 779 594 649 580 533 713 736 491 610 682 732 
90 11 204 162 356 105 349 22 64 253 146 225 230 
91 10 424 622 762 239 611 598 420 377 116 221 
92 11 379 785 360 481 321 102 291 591 701 54 169 
93 11 746 619 740 489 681 442 689 668 125 173 296 
94 11 440 462 529 512 735 802 568 248 434 571 674 
95 11 484 669 686 460 599 653 459 752 123 745 616 
96 11 97 158 260 132 350 403 183 737 572 328 193 
97 11 158 96 403 260 572 193 132 328 737 350 183 
98 11 663 176 542 470 55 196 777 449 74 458 790 
99 11 289 495 758 268 33 246 691 672 656 555 46 
100 11 24 479 358 751 404 693 226 346 535 224 587 
101 11 648 491 631 580 649 157 422 453 777 74 682 
102 11 169 785 92 379 291 31 237 360 135 58 238 
103 11 766 497 524 5 617 600 430 743 388 719 273 
104 11 429 185 344 291 321 585 481 360 475 131 304 
105 11 22 225 59 90 253 349 412 164 162 204 83 
106 11 85 194 271 174 109 43 2 201 83 153 253 
107 11 412 393 59 153 83 22 164 105 225 109 253 
108 11 531 517 42 697 536 583 286 417 489 714 522 
109 11 194 85 106 83 153 271 2 253 174 201 349 
110 11 769 248 735 434 613 554 462 571 715 645 692 
111 11 170 44 584 601 27 565 590 210 36 147 156 
112 11 472 19 457 520 694 65 530 280 494 698 357 
113 11 240 262 25 179 334 409 134 136 250 49 392 
114 11 40 84 256 279 243 72 31 340 770 370 86 
115 11 184 679 337 552 579 621 297 76 639 480 130 
116 11 317 221 239 801 666 424 189 91 420 622 180 
117 11 532 131 407 293 295 344 160 282 475 242 269 
118 11 339 219 725 278 395 315 167 396 143 166 696 
119 11 709 433 545 607 525 222 569 16 355 386 362 
120 11 797 252 463 228 142 538 192 26 323 155 329 
121 11 336 166 128 696 129 395 316 382 396 41 219 
122 11 726 646 595 446 316 747 41 382 376 413 563 
123 11 405 460 752 768 653 686 95 484 637 504 729 
124 11 615 345 760 548 476 186 338 706 555 10 11 
125 11 375 442 689 702 17 740 746 93 296 681 668 
126 11 211 359 218 791 199 654 187 366 315 325 274 
127 11 254 87 381 249 394 496 307 132 161 242 282 
128 11 696 166 316 121 336 140 290 413 395 79 595 
129 11 396 121 336 395 382 166 167 41 696 316 339 
130 11 297 579 46 144 679 184 372 636 691 621 516 
131 11 117 293 532 160 475 407 344 295 269 282 737 
132 11 260 96 254 161 87 97 127 158 350 381 249 
133 11 150 739 335 642 78 39 765 567 788 51 287 
134 11 409 334 49 25 179 20 52 263 113 240 411 
135 11 58 640 755 724 238 626 672 591 233 246 169 
136 11 250 383 171 410 414 262 251 247 351 113 240 
137 11 634 354 570 258 605 792 68 680 738 380 236 
138 11 526 320 353 665 272 667 521 236 761 296 603 
139 11 759 435 284 374 438 13 668 455 681 592 771 
140 11 290 413 128 316 595 696 79 220 166 122 398 
141 11 718 506 347 783 298 406 450 546 329 292 625 
142 11 463 252 120 228 797 292 538 192 378 56 329 
143 11 278 725 26 118 21 155 538 791 339 797 167 
144 11 636 656 691 516 130 46 602 621 266 679 289 
145 11 67 451 193 322 403 572 565 590 163 44 388 
146 11 230 356 414 251 410 204 162 148 247 383 90 
147 11 244 12 283 584 216 601 181 276 214 111 170 
148 11 408 214 82 276 12 230 356 146 64 313 50 
149 11 770 333 72 81 291 227 48 185 303 102 370 
150 11 642 133 34 477 744 765 739 51 567 628 39 
151 10 776 660 482 486 467 700 550 784 10 633 
152 11 294 57 60 80 4 23 71 70 387 30 384 
153 11 393 83 109 412 107 85 106 194 253 59 271 
154 11 454 638 732 647 682 790 32 485 458 368 422 
155 11 21 323 26 143 278 167 120 252 797 538 725 
156 11 210 281 170 741 609 601 749 510 111 27 673 
157 11 422 453 631 580 682 777 732 101 790 491 647 
158 11 97 96 403 260 328 193 132 183 350 572 737 
159 11 327 786 66 402 77 774 300 355 362 310 629 
160 11 293 475 131 269 737 117 343 163 572 532 407 
161 11 540 381 249 132 254 350 127 183 96 305 87 
162 11 204 90 356 349 64 146 230 105 253 148 408 
163 11 572 343 269 684 160 737 322 475 620 299 293 
164 11 225 59 22 105 412 107 393 83 253 62 90 
165 9 9 200 202 376 747 446 763 678 726 
166 11 336 696 121 128 395 316 219 129 140 396 382 
167 11 396 339 21 118 278 395 725 129 155 143 219 
168 11 774 172 629 77 402 300 609 43 159 310 731 
169 11 102 237 31 238 785 135 92 58 379 291 84 
170 11 601 210 156 741 111 281 609 27 749 50 147 
171 11 383 37 251 136 414 410 146 230 250 356 247 
172 11 402 168 774 300 77 629 43 159 174 73 38 
173 11 296 603 761 746 272 364 473 665 521 689 93 
174 11 271 85 106 43 194 109 2 201 172 153 38 
175 11 73 255 300 508 66 658 327 38 439 159 331 
176 11 470 542 449 98 74 663 777 782 527 55 453 
177 11 645 373 443 498 509 389 245 769 319 492 434 
178 11 772 270 259 727 480 562 539 552 652 337 441 
179 11 262 334 25 113 49 250 409 240 392 134 351 
180 11 675 288 582 801 469 795 671 730 781 371 190 
181 11 283 216 247 351 244 392 147 12 250 230 214 
182 11 318 468 29 361 301 568 596 802 512 15 674 
183 11 350 328 158 161 96 97 305 540 132 403 260 
184 11 679 115 621 579 297 337 76 130 266 516 552 
185 11 104 429 291 344 321 360 379 481 92 149 785 
186 11 476 555 33 656 495 99 289 706 760 11 124 
187 11 199 218 366 126 654 211 359 604 325 274 224 
188 11 593 695 69 312 773 582 288 190 469 448 88 
189 10 221 317 377 420 239 116 424 611 622 762 
190 11 312 612 69 469 582 371 675 45 288 180 695 
191 11 18 34 557 650 487 477 559 51 545 569 744 
192 11 329 397 783 228 538 797 292 406 547 463 120 
193 11 67 451 403 145 572 97 158 322 96 163 737 
194 11 106 85 109 271 2 201 43 174 83 253 64 
195 11 799 36 749 27 261 710 743 5 610 617 713 
196 11 474 55 663 368 458 98 45 782 790 647 176 
197 11 62 275 324 164 225 37 105 22 90 59 171 
198 11 793 676 651 308 513 576 431 447 659 630 661 
199 11 187 218 366 126 654 211 359 325 604 274 224 
200 7 9 202 165 763 678 376 747 
201 11 2 64 313 194 106 43 349 253 109 271 85 
202 8 200 165 9 376 678 763 747 446 
203 11 734 606 35 546 363 721 213 690 444 641 699 
204 11 162 90 356 146 230 251 349 105 64 148 253 
205 11 384 243 279 370 71 227 48 81 40 256 70 
206 10 551 632 798 427 602 523 706 514 561 720 
207 11 314 342 6 566 751 311 404 366 274 707 654 
208 11 628 765 567 614 549 589 47 53 309 517 399 
209 11 680 264 68 354 258 137 634 320 353 526 236 
210 11 156 170 281 741 601 609 111 749 510 27 673 
211 11 126 359 218 791 654 199 315 187 366 325 274 
212 11 522 417 286 518 583 47 432 627 302 589 536 
213 10 699 659 641 748 534 721 606 576 198 363 
214 11 276 12 408 148 82 50 283 147 244 181 313 
215 11 717 778 624 367 330 332 267 61 722 604 750 
216 11 181 283 244 351 247 392 147 12 250 584 214 
217 11 556 232 425 265 51 569 287 18 352 527 470 
218 11 126 199 366 654 187 211 325 359 274 315 707 
219 11 395 118 339 696 166 315 707 336 121 128 325 
220 11 398 79 290 788 140 566 413 342 739 78 6 
221 11 317 189 116 239 424 666 420 622 377 611 91 
222 11 525 569 119 709 545 16 527 607 433 217 232 
223 10 452 716 635 54 341 385 377 436 687 701 
224 11 535 693 358 479 332 657 604 750 24 367 187 
225 11 105 22 164 59 412 90 107 253 349 204 83 
226 11 471 541 404 352 311 100 401 782 751 55 335 
227 11 81 370 48 384 333 72 770 279 149 40 243 
228 11 797 120 538 463 192 142 252 329 397 292 26 
229 11 15 29 8 255 373 658 596 674 492 175 301 
230 11 146 356 414 410 251 148 247 408 204 162 181 
231 11 507 448 88 587 773 643 346 657 727 574 441 
232 11 217 556 425 265 569 51 287 527 470 352 542 
233 11 466 591 640 626 223 58 385 372 135 436 755 
234 11 729 504 768 488 637 573 704 543 390 754 123 
235 11 503 365 721 35 61 641 604 215 267 203 683 
236 11 380 702 353 526 665 375 125 272 17 689 320 
237 11 31 169 238 102 246 84 268 3 758 135 672 
238 11 246 268 672 237 758 724 135 58 99 289 169 
239 11 424 91 622 420 762 611 116 221 598 317 377 
240 11 113 262 25 334 179 409 136 134 250 49 392 
241 11 698 685 694 56 378 19 705 472 520 112 530 
242 11 282 295 407 87 532 394 117 131 496 260 293 
243 11 279 256 40 114 205 370 227 384 84 81 72 
244 11 147 283 216 181 12 584 601 276 214 111 247 
245 11 498 771 509 389 455 438 416 443 554 592 177 
246 11 268 238 758 672 99 289 495 724 46 33 691 
247 11 351 181 283 250 216 392 410 230 414 146 136 
248 11 110 571 462 735 715 769 692 483 613 434 418 
249 11 381 161 127 254 540 307 87 132 394 496 306 
250 11 351 392 247 136 179 410 181 414 216 262 283 
251 11 414 410 146 383 171 230 356 37 204 136 162 
252 11 120 463 142 797 228 538 323 192 155 26 292 
253 11 349 83 64 109 2 201 22 194 412 105 153 
254 11 127 87 381 249 132 394 161 496 260 242 282 
255 11 175 66 327 73 658 8 300 229 508 386 362 
256 11 40 243 114 279 84 340 370 86 72 205 227 
257 11 464 423 623 75 677 511 723 456 493 577 633 
258 11 354 137 634 570 68 605 792 680 209 738 500 
259 10 270 772 562 178 539 652 330 426 441 722 
260 11 132 96 737 97 158 282 242 293 87 254 295 
261 11 610 710 713 533 736 749 195 594 799 779 36 
262 11 113 240 179 25 334 136 250 409 134 49 351 
263 11 20 52 411 49 409 134 348 328 179 334 392 
264 11 680 68 209 320 353 526 236 634 138 137 354 
265 11 425 556 217 232 287 352 51 401 470 18 541 
266 10 523 516 621 76 514 602 636 184 767 679 
267 11 61 778 415 722 717 445 461 624 330 215 662 
268 11 246 758 99 289 495 672 238 33 724 691 46 
269 11 475 343 160 620 163 131 293 753 585 299 304 
270 11 259 772 178 539 652 426 562 552 639 337 480 
271 11 174 106 85 43 194 109 2 201 313 83 153 
272 11 665 296 761 173 603 521 667 364 689 746 125 
273 11 485 32 430 638 454 730 710 671 781 154 617 
274 11 325 707 654 366 315 218 79 342 314 219 126 
275 11 324 62 197 37 225 171 90 105 204 383 251 
276 11 214 12 408 148 50 82 147 244 283 601 181 
277 10 703 505 519 13 728 738 792 515 605 483 
278 11 725 143 118 339 26 167 21 155 315 219 396 
279 11 243 40 370 256 114 227 81 205 384 72 48 
280 11 494 625 457 501 530 65 450 112 472 390 543 
281 11 156 210 510 609 673 741 170 731 736 533 713 
282 11 242 295 407 532 117 87 131 394 293 260 496 
283 11 181 216 244 247 147 351 12 392 214 276 230 
284 11 374 592 438 13 455 435 139 554 771 613 759 
285 10 803 787 661 437 560 502 564 581 655 712 
286 11 583 522 536 417 419 597 627 212 499 714 47 
287 11 401 51 265 425 352 335 556 217 232 34 18 
288 11 582 180 469 675 801 312 190 795 69 116 91 
289 11 99 495 691 268 758 656 672 33 46 555 246 
290 11 413 140 128 595 220 316 398 79 122 696 788 
291 11 185 104 429 102 92 379 785 149 321 360 344 
292 11 378 783 192 329 718 142 463 228 56 141 298 
293 11 160 131 117 737 475 532 407 269 295 282 572 
294 11 57 71 60 152 70 80 387 23 4 384 205 
295 11 407 282 242 532 117 131 293 87 344 394 260 
296 11 173 761 272 603 746 665 364 689 442 521 125 
297 11 579 372 679 130 184 115 621 626 337 552 755 
298 11 450 705 494 530 625 280 506 685 718 347 543 
299 11 391 753 618 620 708 343 684 304 775 585 269 
300 11 402 73 172 175 159 508 38 327 774 66 255 
301 11 596 674 802 29 318 512 568 468 440 492 94 
302 10 518 563 664 212 432 627 499 522 419 286 
303 11 30 333 23 387 48 149 81 227 80 384 770 
304 11 585 775 753 321 620 481 708 391 299 701 343 
305 11 540 183 350 161 328 134 409 381 249 52 49 
306 11 14 326 307 496 394 127 249 87 381 254 4 
307 11 306 14 127 249 381 326 496 254 394 87 161 
308 11 651 431 676 513 576 630 608 793 198 558 75 
309 11 614 567 53 39 765 628 589 78 47 208 788 
310 11 786 629 731 77 673 355 774 16 159 510 402 
311 11 404 6 751 566 335 207 226 471 314 342 401 
312 11 69 190 469 582 612 675 695 188 288 180 371 
313 11 201 82 2 64 43 50 408 194 148 106 271 
314 11 207 342 566 6 751 366 274 311 404 707 654 
315 11 325 654 274 707 219 118 211 218 126 725 366 
316 11 128 595 121 122 336 166 382 140 646 41 696 
317 11 221 116 189 666 239 424 420 622 801 91 611 
318 11 468 301 596 802 568 29 182 512 674 440 94 
319 11 443 433 8 373 177 607 386 545 557 119 389 
320 11 353 526 138 264 236 68 680 665 272 209 380 
321 11 481 585 304 360 775 429 104 379 92 785 185 
322 11 451 145 388 684 67 163 193 497 572 766 719 
323 11 155 21 252 120 26 797 463 142 538 228 167 
324 11 275 62 197 37 171 383 251 225 90 204 105 
325 11 274 654 707 315 366 218 126 211 219 199 79 
326 11 14 306 307 4 496 80 394 30 127 23 152 
327 11 66 159 362 255 386 175 786 300 355 8 402 
328 11 183 350 158 97 52 403 96 263 20 305 193 
329 11 192 783 397 406 547 228 292 538 141 718 797 
330 11 624 722 717 778 367 562 267 215 415 259 441 
331 11 439 508 38 658 73 400 175 15 361 255 300 
332 11 604 215 367 717 750 624 224 778 330 503 535 
333 11 81 48 149 227 303 770 72 370 384 30 387 
334 11 25 409 134 49 179 113 240 262 20 263 52 
335 11 401 287 133 311 51 150 352 471 739 6 265 
336 11 121 166 696 128 395 129 316 382 396 219 41 
337 11 552 115 639 184 679 539 652 76 621 480 579 
338 10 345 548 615 798 720 550 700 206 561 427 
339 11 118 395 219 278 167 725 396 315 166 143 336 
340 11 86 3 114 256 84 40 11 31 237 758 243 
341 10 385 436 687 377 465 223 598 611 762 420 
342 11 566 314 207 6 220 707 274 79 751 311 366 
343 11 269 620 753 475 163 299 160 585 304 391 684 
344 11 429 104 117 131 185 532 475 407 293 295 269 
345 10 615 338 548 550 124 10 700 706 798 551 
346 11 587 448 24 479 773 231 358 657 88 507 695 
347 11 506 141 718 450 754 543 488 390 298 625 704 
348 11 590 584 565 411 44 263 20 52 111 147 244 
349 11 253 64 83 2 201 22 162 109 90 105 194 
350 11 183 328 161 96 158 540 97 132 305 260 403 
351 11 392 247 250 216 181 283 179 136 244 410 414 
352 11 541 401 471 265 287 425 782 470 556 232 226 
353 11 526 320 236 138 665 68 264 272 702 380 680 
354 11 258 137 634 570 605 68 792 680 738 209 500 
355 11 16 786 362 709 607 159 386 310 327 119 66 
356 11 146 230 204 162 90 251 148 414 410 408 64 
357 11 520 65 457 112 19 756 472 586 694 280 501 
358 11 693 479 535 224 24 657 100 346 587 448 751 
359 11 126 211 791 218 199 683 187 28 654 366 235 
360 11 379 481 92 785 321 701 775 304 585 54 591 
361 11 15 439 658 331 182 29 229 318 508 468 73 
362 11 386 327 607 66 355 8 709 786 433 159 16 
363 11 606 690 444 546 203 734 688 754 748 213 405 
364 8 603 761 473 521 173 667 296 796 
365 11 503 61 235 641 721 267 445 778 215 662 699 
366 11 654 218 199 274 325 187 707 126 211 315 314 
367 11 750 624 717 215 330 778 441 562 332 722 267 
368 11 458 474 647 196 790 45 663 98 154 55 454 
369 10 578 711 575 780 7 757 478 418 794 515 
370 11 227 81 48 384 279 72 40 243 333 770 205 
371 11 781 671 612 730 45 675 190 469 795 582 180 
372 11 297 626 579 755 130 640 679 184 115 46 724 
373 11 177 645 443 492 319 434 498 229 8 674 509 
374 11 284 592 13 438 455 554 613 771 435 139 715 
375 11 125 442 689 702 17 740 746 681 93 296 668 
376 11 446 747 165 9 726 200 646 122 202 763 563 
377 10 420 611 762 622 341 424 598 239 189 91 
378 11 56 292 241 685 705 698 142 694 298 530 463 
379 11 92 785 360 481 321 102 291 591 701 54 775 
380 11 702 236 17 375 125 605 519 792 689 442 634 
381 11 249 161 127 254 540 307 132 87 394 496 350 
382 11 41 316 121 336 129 646 122 726 166 595 128 
383 11 171 251 414 37 410 136 146 230 250 356 247 
384 11 48 370 227 81 205 387 279 333 23 71 243 
385 10 436 687 341 465 223 377 598 611 762 420 
386 11 362 8 607 66 327 433 355 709 786 16 119 
387 11 23 80 30 152 384 48 303 294 71 333 57 
388 11 497 766 684 719 322 103 524 618 666 5 617 
389 11 509 245 487 559 443 498 416 650 771 557 177 
390 11 543 704 488 573 625 450 501 280 421 234 494 
391 11 299 708 753 618 620 775 304 189 343 666 684 
392 11 351 250 216 247 181 283 179 411 244 136 20 
393 11 153 107 412 83 59 109 85 22 253 106 194 
394 11 496 87 127 242 254 282 295 407 307 306 249 
395 11 219 166 336 339 121 396 696 118 129 128 167 
396 11 129 167 395 339 336 121 118 166 219 278 696 
397 11 192 329 547 406 538 783 28 228 797 683 26 
398 11 788 220 78 739 290 39 413 140 566 79 309 
399 11 670 63 549 517 208 742 744 531 108 416 628 
400 11 331 38 508 174 85 439 153 271 106 73 393 
401 11 287 352 335 471 265 425 51 541 226 556 217 
402 11 774 77 172 300 168 159 629 327 310 786 66 
403 11 193 97 158 67 451 145 96 572 328 737 183 
404 11 311 751 226 6 100 471 207 314 566 335 401 
405 9 688 123 460 653 686 444 748 95 484 
406 11 547 783 329 397 546 192 141 734 28 718 683 
407 11 295 532 282 242 117 131 293 344 87 160 260 
408 11 148 214 82 276 12 313 230 356 50 64 146 
409 11 134 334 49 25 179 20 263 52 113 240 262 
410 11 414 251 146 230 383 247 136 171 356 250 351 
411 11 20 263 52 49 348 392 179 409 134 351 584 
412 11 59 107 83 393 22 153 253 105 225 109 349 
413 11 290 140 595 128 316 122 220 726 398 646 696 
414 11 410 251 146 230 383 171 136 247 356 250 37 
415 8 461 445 722 267 662 712 581 330 
416 11 742 650 559 63 487 389 771 245 435 509 438 
417 11 583 286 522 47 536 589 212 627 419 517 53 
418 11 711 578 575 369 757 7 478 571 794 529 780 
419 10 597 627 499 522 536 286 432 714 583 697 
420 10 611 622 762 424 377 239 91 598 189 221 
421 11 501 528 573 704 390 543 553 65 280 488 625 
422 11 157 453 631 682 580 732 777 790 101 491 647 
423 10 75 623 257 558 511 464 447 633 308 651 
424 10 239 91 622 420 762 611 598 377 221 116 
425 11 265 556 217 232 287 51 352 401 470 569 18 
426 7 652 539 639 537 270 655 259 
427 6 632 798 561 720 206 551 
428 9 630 608 513 576 431 308 676 748 651 
429 11 104 344 185 321 291 585 475 131 117 481 304 
430 11 600 273 730 103 524 617 5 485 671 795 781 
431 11 308 676 513 651 630 576 608 428 558 198 793 
432 9 499 627 419 518 212 522 597 302 286 
433 11 607 119 709 545 386 319 362 525 8 16 222 
434 11 735 492 110 645 769 248 440 674 94 462 596 
435 11 438 139 284 455 771 759 374 742 63 416 592 
436 10 687 385 341 465 598 377 223 611 762 420 
437 10 661 787 560 285 564 803 502 447 577 456 
438 11 455 771 284 435 374 592 245 554 139 13 498 
439 11 658 331 15 361 508 73 38 175 255 229 400 
440 11 94 512 462 802 735 568 674 434 529 301 492 
441 11 562 750 367 259 772 330 624 178 657 727 270 
442 11 689 125 375 740 746 93 702 681 17 296 668 
443 11 177 509 389 498 319 373 645 245 487 559 557 
444 11 690 754 688 363 405 123 748 504 606 546 460 
445 9 662 461 415 712 581 267 534 61 722 
446 11 376 747 646 726 122 595 165 41 9 563 200 
447 11 623 75 723 793 651 198 308 423 437 676 456 
448 11 587 773 346 88 231 507 593 188 24 657 695 
449 11 74 542 176 470 527 777 98 453 663 631 157 
450 11 625 543 390 298 494 704 280 488 347 530 573 
451 11 67 145 193 322 403 572 163 97 158 388 684 
452 10 716 635 223 54 701 377 341 385 189 591 
453 11 157 422 777 631 790 682 580 74 647 101 732 
454 11 154 638 732 32 485 647 682 273 790 422 458 
455 11 438 771 592 374 284 245 435 554 498 613 13 
456 8 577 723 464 493 564 560 257 447 
457 11 65 112 280 472 19 494 520 501 530 357 694 
458 11 368 790 647 663 196 474 98 45 154 453 55 
459 11 616 745 484 599 95 669 752 490 686 644 460 
460 10 686 653 95 484 405 123 669 599 752 688 
461 8 415 445 662 712 581 267 722 534 
462 11 248 571 94 529 735 440 418 110 434 711 794 
463 11 142 120 252 228 797 538 192 292 329 378 397 
464 9 257 723 456 677 493 577 623 75 423 
465 10 687 436 385 341 574 643 88 598 466 611 
466 11 233 574 465 385 640 436 687 626 223 341 591 
467 8 784 151 633 486 511 482 660 776 
468 11 318 301 802 568 512 596 182 29 674 440 94 
469 11 582 675 180 288 312 190 612 69 371 801 795 
470 11 176 542 449 74 98 782 527 663 777 55 196 
471 11 226 541 352 401 782 404 287 311 55 335 265 
472 11 19 112 694 530 457 698 520 494 685 705 280 
473 8 796 364 489 603 173 697 746 714 
474 11 196 368 45 458 55 663 98 790 647 612 782 
475 11 269 160 131 293 343 117 344 532 620 429 737 
476 11 186 555 656 706 33 495 548 289 99 124 144 
477 11 744 549 650 642 191 742 416 559 150 487 63 
478 11 757 7 578 794 369 789 711 800 418 575 780 
479 11 358 693 24 535 346 224 657 100 587 448 231 
480 11 552 337 178 115 772 727 270 297 579 184 679 
481 11 360 321 379 92 304 775 585 785 701 54 104 
482 10 660 151 776 10 467 486 700 550 784 633 
483 10 692 715 613 571 248 554 575 728 780 505 
484 11 95 669 599 686 460 459 653 752 745 616 123 
485 11 32 273 638 454 154 430 710 732 671 730 781 
486 11 151 776 467 677 660 633 700 511 784 482 257 
487 11 559 650 557 389 509 416 191 742 477 245 443 
488 11 543 704 390 573 234 504 729 625 450 421 501 
489 10 42 473 697 93 746 796 619 714 108 173 
490 8 616 459 599 745 644 669 484 95 
491 11 649 101 580 648 631 89 157 422 779 682 594 
492 11 434 674 735 596 645 301 440 110 94 373 769 
493 8 464 456 577 677 723 561 257 720 
494 11 530 280 625 298 450 457 472 705 112 19 65 
495 11 99 289 33 758 268 555 656 186 691 246 672 
496 11 394 87 127 254 242 282 306 307 295 30 407 
497 11 766 103 388 5 617 743 524 600 719 430 322 
498 11 245 509 389 177 645 771 443 455 769 554 438 
499 9 627 432 419 597 522 536 286 583 714 
500 11 789 515 478 7 738 757 578 794 800 369 780 
501 11 421 280 573 65 704 390 625 457 528 543 494 
502 8 564 560 285 655 803 437 787 661 
503 11 365 235 61 721 604 641 215 267 778 717 332 
504 11 234 729 768 488 754 637 123 573 704 543 390 
505 10 728 703 277 780 515 483 13 692 575 715 
506 11 141 347 718 298 450 543 625 390 754 488 783 
507 11 231 643 88 448 574 727 587 773 465 657 346 
508 11 38 73 331 175 658 439 300 255 400 15 172 
509 11 389 245 498 443 487 559 771 177 416 650 455 
510 11 673 731 281 609 736 533 713 156 649 310 610 
511 9 633 423 257 558 75 784 623 486 677 
512 11 568 802 440 94 301 468 674 318 588 596 544 
513 10 576 630 431 676 308 651 428 608 198 793 
514 10 523 767 266 76 537 602 632 206 516 621 
515 11 738 780 728 369 578 7 505 575 711 757 478 
516 11 636 266 602 523 144 621 76 184 514 679 130 
517 11 108 531 670 417 583 47 42 286 536 399 589 
518 10 302 563 664 212 432 627 499 522 419 286 
519 11 277 17 703 792 605 380 13 505 570 702 668 
520 11 112 19 357 472 457 694 65 698 756 530 280 
521 9 667 761 364 603 272 173 296 665 473 
522 10 286 583 536 417 419 627 597 212 499 432 
523 10 514 266 602 76 516 767 621 206 551 636 
524 11 600 766 103 719 430 795 497 730 617 5 388 
525 11 222 119 569 709 545 607 433 16 355 527 217 
526 11 353 320 236 138 665 272 702 380 68 264 296 
527 11 74 449 542 176 470 777 648 101 232 631 98 
528 11 553 421 501 573 65 704 280 457 390 488 543 
529 11 418 462 794 800 94 571 757 478 711 7 578 
530 11 494 705 472 280 694 19 685 112 298 457 698 
531 11 108 517 42 619 670 489 697 93 536 583 714 
532 11 117 407 295 131 282 293 242 344 160 475 429 
533 11 713 736 610 594 89 779 261 649 710 749 491 
534 11 581 662 712 445 699 803 461 659 285 661 787 
535 11 693 224 358 479 657 24 332 100 346 750 604 
536 11 286 583 522 597 419 417 627 714 697 499 212 
537 8 767 639 76 514 426 652 539 523 
538 11 797 228 120 26 192 397 463 252 329 142 143 
539 10 652 426 639 270 337 259 552 537 178 772 
540 11 161 381 249 305 350 183 254 132 127 328 307 
541 11 471 782 352 55 226 401 470 176 196 98 265 
542 11 176 449 470 74 98 527 777 663 782 453 55 
543 11 390 704 488 625 573 450 501 234 280 421 504 
544 11 764 588 733 800 529 794 512 94 568 802 440 
545 11 119 433 525 569 709 222 607 557 191 319 18 
546 11 734 606 203 363 690 406 444 35 141 754 347 
547 11 406 28 397 683 329 783 192 35 734 546 203 
548 11 345 338 615 706 551 206 798 124 476 427 632 
549 11 744 399 63 208 477 642 628 670 765 742 517 
550 10 700 10 776 660 151 338 482 345 486 615 
551 11 206 602 706 798 632 427 523 548 514 338 516 
552 11 337 115 480 639 184 539 679 652 579 178 621 
553 11 528 421 501 573 65 644 704 637 234 390 457 
554 11 613 592 374 769 715 455 692 483 110 284 438 
555 11 186 476 656 495 33 289 99 706 144 691 636 
556 11 217 232 425 265 51 287 569 352 18 527 470 
557 11 487 559 650 191 389 545 509 18 443 34 319 
558 8 423 75 308 431 623 511 608 651 
559 11 487 650 557 389 509 416 742 191 477 245 443 
560 10 564 437 787 661 285 502 803 577 456 723 
561 6 720 427 798 632 493 206 
562 11 441 259 330 772 270 367 750 624 178 722 717 
563 9 302 518 664 432 747 212 499 595 627 
564 9 560 437 502 787 661 285 577 456 803 
565 11 590 44 348 111 584 27 36 799 145 67 195 
566 11 6 342 207 314 311 220 398 751 404 79 739 
567 11 765 309 628 39 614 53 208 78 589 47 642 
568 11 512 802 440 301 94 468 318 674 596 588 544 
569 11 222 525 545 217 232 556 119 18 425 709 191 
570 11 605 792 137 634 354 738 380 258 519 277 703 
571 10 248 418 462 711 575 692 483 529 715 369 
572 11 737 163 160 97 193 293 158 451 96 403 260 
573 11 704 488 390 543 421 501 234 625 729 504 450 
574 11 643 727 465 507 466 480 436 231 687 88 385 
575 10 711 369 780 578 418 7 757 478 571 728 
576 9 513 630 676 431 428 308 651 198 608 
577 8 456 723 464 493 564 560 257 447 
578 11 7 757 369 478 711 575 418 780 794 789 800 
579 11 297 679 184 115 130 372 621 337 552 636 516 
580 11 422 682 157 491 631 89 649 779 732 101 453 
581 10 712 534 662 461 803 445 285 661 787 415 
582 11 469 288 675 180 312 190 801 69 612 371 795 
583 11 286 522 536 417 419 597 627 212 714 47 499 
584 11 147 111 348 590 244 565 44 601 216 283 170 
585 11 304 321 775 620 753 481 343 708 269 299 429 
586 11 756 357 520 112 19 65 457 472 694 698 241 
587 11 448 346 773 231 88 24 507 479 188 593 657 
588 11 764 544 733 800 512 529 568 794 802 94 440 
589 11 47 53 614 417 212 309 208 286 583 522 628 
590 11 565 44 348 584 111 27 145 36 67 451 799 
591 11 233 54 223 635 701 452 716 58 92 379 785 
592 11 374 554 284 455 613 438 13 771 715 483 692 
593 11 188 773 695 69 312 88 288 582 448 91 469 
594 11 779 89 533 713 610 736 580 682 649 732 261 
595 11 122 726 646 316 413 446 747 140 290 563 41 
596 11 301 674 29 318 802 492 468 568 512 440 434 
597 10 419 714 627 536 499 522 286 697 583 432 
598 10 762 611 622 91 420 424 239 377 341 687 
599 8 669 484 95 459 616 686 460 653 
600 11 524 430 795 730 103 766 671 781 719 273 617 
601 11 170 741 210 111 147 156 12 244 50 276 584 
602 11 516 523 551 266 636 206 706 514 144 621 632 
603 10 364 761 173 296 521 473 272 667 746 796 
604 11 332 215 503 235 717 778 367 365 61 624 187 
605 11 792 570 634 137 519 380 738 277 703 17 354 
606 11 203 363 734 546 35 690 213 444 721 688 748 
607 11 709 433 119 362 386 355 16 545 525 222 8 
608 8 428 431 630 513 308 576 651 676 
609 11 731 741 673 281 156 210 510 629 170 168 50 
610 11 713 533 736 261 594 89 779 710 749 649 195 
611 10 762 622 420 598 91 424 377 239 341 687 
612 11 190 45 371 312 469 69 675 781 582 671 474 
613 10 715 554 483 692 592 110 769 374 248 571 
614 11 53 309 589 567 47 628 765 39 208 417 212 
615 10 345 548 338 124 550 10 706 700 798 551 
616 8 459 490 599 669 484 95 745 752 
617 11 5 743 103 430 497 710 766 273 524 600 799 
618 11 391 299 666 684 708 753 719 620 317 221 189 
619 11 93 740 681 668 489 746 531 42 442 108 689 
620 11 753 343 299 304 585 391 269 775 708 618 475 
621 11 184 679 266 76 115 516 579 523 636 337 514 
622 10 762 611 420 91 424 239 598 377 221 341 
623 11 75 423 257 447 464 723 558 456 308 651 577 
624 11 717 778 330 215 367 722 267 562 61 750 415 
625 11 450 390 543 280 494 704 501 298 488 573 530 
626 11 640 372 755 297 724 130 579 233 58 46 135 
627 10 499 419 432 597 522 536 286 583 212 714 
628 11 765 208 567 614 309 53 39 589 47 549 642 
629 11 77 774 168 310 402 731 673 609 172 159 786 
630 9 428 513 576 431 608 676 308 651 198 
631 11 157 422 453 101 580 777 648 491 682 74 649 
632 8 427 798 206 561 720 551 514 767 
633 8 511 784 467 423 257 486 558 75 
634 11 137 570 605 792 354 68 380 258 236 680 519 
635 11 452 716 54 223 701 377 708 775 591 189 341 
636 11 516 144 602 266 621 130 656 523 691 184 679 
637 11 768 752 729 234 745 504 123 644 459 95 484 
638 11 454 32 154 485 732 273 682 647 790 779 710 
639 10 652 537 539 426 337 76 552 115 767 621 
640 11 626 755 372 233 58 135 724 297 466 130 579 
641 11 721 699 365 213 662 61 534 445 503 659 235 
642 11 150 744 765 477 549 628 133 208 567 39 78 
643 11 574 727 507 465 231 480 178 88 772 466 436 
644 11 745 459 752 637 490 616 768 484 95 553 599 
645 11 177 769 434 498 373 492 110 735 443 245 248 
646 11 726 122 595 446 747 41 316 376 382 563 413 
647 11 790 458 154 368 454 732 682 453 422 663 638 
648 11 101 491 631 649 580 157 422 453 777 74 527 
649 11 491 89 580 101 779 648 594 631 422 157 682 
650 11 559 487 557 416 477 742 191 389 509 744 245 
651 11 308 676 431 513 576 793 198 630 447 608 75 
652 8 539 426 639 270 537 337 552 259 
653 9 686 460 95 405 484 669 123 428 599 
654 11 366 325 274 218 315 707 126 199 211 187 359 
655 4 502 803 285 564 
656 11 144 555 691 289 636 476 495 186 99 46 516 
657 11 750 479 441 358 231 224 535 693 346 367 507 
658 11 439 15 73 508 175 331 255 38 361 229 66 
659 10 213 699 198 576 793 513 630 748 534 676 
660 10 776 482 151 10 700 550 486 467 784 677 
661 10 787 437 285 803 560 564 502 447 581 793 
662 10 445 712 534 581 461 415 267 641 61 699 
663 11 98 196 458 55 368 790 474 176 647 777 542 
664 11 302 518 563 212 53 432 589 47 614 309 417 
665 11 272 296 761 173 521 603 689 667 125 375 526 
666 11 719 317 116 221 618 189 801 524 391 766 239 
667 9 521 761 364 603 272 173 296 665 678 
668 11 681 740 619 93 442 125 17 759 375 689 746 
669 8 599 484 95 686 459 460 653 616 
670 11 399 63 517 531 108 549 759 208 435 742 139 
671 11 781 730 371 795 675 430 273 485 600 612 180 
672 11 724 46 246 268 289 691 99 755 238 495 758 
673 11 731 510 609 310 281 629 77 156 210 736 774 
674 11 596 301 492 29 802 440 512 434 568 94 318 
675 11 469 180 582 288 795 371 801 190 781 312 612 
676 11 651 308 431 513 576 793 198 630 608 428 447 
677 10 464 257 493 486 723 456 577 423 511 623 
678 5 667 200 763 364 521 
679 11 184 579 115 621 297 130 337 76 266 516 552 
680 11 68 209 264 634 137 320 353 354 258 236 526 
681 11 668 740 619 93 442 125 689 375 746 17 759 
682 11 732 422 580 157 154 454 779 453 631 647 89 
683 11 28 547 791 35 359 397 406 734 235 203 211 
684 11 618 388 299 163 322 391 719 343 620 753 666 
685 11 698 705 694 530 472 19 112 241 494 298 520 
686 10 460 653 95 484 669 599 405 123 428 608 
687 10 436 385 341 465 598 377 611 762 223 420 
688 9 748 405 444 653 460 690 123 428 686 
689 11 442 125 375 746 702 296 93 740 173 17 681 
690 11 444 754 363 688 405 504 546 123 606 748 347 
691 11 46 144 656 289 130 672 99 636 724 495 555 
692 10 483 715 613 571 248 554 575 728 780 505 
693 11 535 358 224 479 24 657 100 346 332 751 750 
694 11 19 698 472 685 112 530 705 520 494 457 280 
695 11 69 188 312 593 190 773 469 582 612 587 288 
696 11 166 128 336 121 395 219 316 140 79 290 413 
697 11 714 42 597 489 796 536 419 473 108 583 286 
698 11 694 685 19 472 705 530 112 241 520 494 457 
699 11 213 659 641 534 662 721 198 712 793 445 581 
700 10 550 776 660 10 151 486 482 338 720 345 
701 11 54 635 452 775 716 481 223 708 360 304 591 
702 11 375 380 125 17 689 442 236 665 272 296 746 
703 10 277 505 728 13 519 738 515 483 780 792 
704 11 390 543 573 488 625 501 421 450 234 280 729 
705 11 685 530 298 694 698 494 472 19 112 280 450 
706 11 551 548 602 206 476 555 345 656 798 338 516 
707 11 274 325 654 315 79 366 219 342 218 314 207 
708 11 391 775 753 299 304 701 189 618 620 635 585 
709 11 607 119 433 16 525 355 222 545 362 386 786 
710 11 261 32 273 485 617 5 743 594 610 195 638 
711 10 575 369 578 418 780 7 757 478 571 794 
712 10 581 662 534 445 461 803 285 415 661 787 
713 11 533 610 736 594 261 89 779 649 710 749 510 
714 11 697 597 42 419 536 796 286 522 583 489 627 
715 10 692 483 613 571 554 248 575 110 592 780 
716 10 452 635 223 54 701 377 341 385 189 420 
717 11 778 624 215 330 367 267 722 61 415 332 562 
718 11 141 506 347 298 783 292 450 406 329 705 625 
719 11 666 766 524 388 600 618 103 497 116 317 684 
720 7 561 427 798 632 493 338 206 
721 11 641 365 235 35 503 203 699 213 606 734 61 
722 10 330 415 267 778 624 717 461 445 61 215 
723 8 456 577 464 493 623 447 257 564 
724 11 672 755 46 691 246 626 130 289 640 135 372 
725 11 278 143 118 339 26 315 167 21 219 155 395 
726 11 646 122 595 446 747 376 316 41 563 382 413 
727 11 643 178 772 574 480 507 441 270 259 231 562 
728 10 505 780 515 703 575 369 277 483 692 711 
729 11 234 504 768 637 488 573 123 704 752 754 543 
730 11 671 781 795 430 600 371 273 675 485 180 524 
731 11 673 510 609 310 629 281 77 156 774 210 741 
732 11 682 154 454 638 422 647 580 157 790 779 32 
733 11 764 588 544 800 794 529 512 568 789 94 478 
734 11 203 606 546 35 363 406 721 547 690 444 213 
735 11 434 110 248 462 440 94 492 769 571 645 529 
736 11 533 713 610 594 89 261 779 649 510 749 281 
737 11 572 293 160 260 163 131 475 269 117 96 97 
738 10 515 728 505 703 792 277 570 605 780 369 
739 11 78 788 133 39 398 567 150 765 309 642 335 
740 11 681 668 619 93 442 746 689 125 375 489 17 
741 11 210 170 156 609 601 50 281 673 731 276 510 
742 11 416 63 650 435 559 399 744 771 477 487 549 
743 11 5 617 103 497 799 710 195 430 36 766 273 
744 11 477 549 642 63 742 399 650 150 208 416 628 
745 11 752 459 637 644 484 95 616 768 599 123 669 
746 11 93 173 296 689 442 489 740 619 125 473 603 
747 11 376 446 726 646 563 122 9 165 595 763 200 
748 9 688 428 405 630 576 653 659 513 213 
749 11 195 27 36 799 261 610 713 533 736 710 156 
750 11 367 441 562 657 624 330 717 215 332 778 259 
751 11 404 207 314 311 100 6 342 566 226 693 358 
752 11 745 637 768 123 484 95 459 460 686 599 669 
753 11 620 299 391 304 708 585 775 343 618 269 321 
754 11 690 444 504 234 729 347 488 123 405 363 768 
755 11 724 626 640 372 46 672 130 297 135 691 58 
756 11 586 357 520 19 112 472 694 457 698 65 241 
757 11 7 478 578 369 711 794 418 789 800 575 780 
758 11 268 99 495 246 289 33 672 238 555 186 691 
759 11 139 435 668 681 670 284 740 619 438 63 531 
760 11 11 124 186 33 476 555 615 495 548 99 706 
761 10 603 173 296 364 521 272 667 665 473 746 
762 10 622 611 420 91 598 424 239 377 341 687 
763 4 200 9 499 432 
764 11 588 544 733 800 529 794 512 568 94 802 440 
765 11 567 628 39 309 208 614 53 78 642 589 47 
766 11 524 103 497 719 388 600 5 617 430 743 666 
767 5 514 537 523 76 266 
768 11 637 729 234 752 504 123 745 405 460 95 488 
769 11 110 554 248 645 613 735 434 498 715 592 692 
770 11 72 149 81 227 333 84 370 31 48 40 114 
771 11 455 438 245 435 498 284 592 374 554 416 509 
772 11 178 270 259 562 727 539 480 652 441 552 337 
773 11 448 88 587 593 188 346 231 507 695 598 465 
774 11 77 402 629 168 172 159 300 310 786 731 327 
775 11 304 708 585 701 753 481 321 391 620 54 635 
776 10 660 151 482 700 550 10 486 467 677 784 
777 11 453 74 631 157 449 422 98 542 176 790 663 
778 11 717 624 215 267 330 722 61 367 415 445 461 
779 11 594 89 580 682 533 649 713 732 736 610 491 
780 10 575 369 711 578 728 7 418 757 478 515 
781 11 671 371 730 795 675 612 430 273 180 469 485 
782 11 55 541 470 176 98 663 196 542 352 474 449 
783 11 329 406 192 141 718 397 292 547 506 228 546 
784 6 467 633 511 486 151 482 
785 11 92 379 360 481 102 321 291 591 701 169 54 
786 11 355 159 16 310 362 327 77 66 386 709 607 
787 10 661 437 285 560 803 564 502 447 581 712 
788 11 78 398 39 739 309 567 220 614 765 53 290 
789 11 478 7 757 578 794 800 369 711 418 515 575 
790 11 647 458 368 453 663 154 732 157 422 98 682 
791 11 359 211 28 683 126 143 397 547 218 26 725 
792 11 605 570 634 519 137 738 380 277 703 17 354 
793 11 198 676 651 308 447 513 576 431 659 630 437 
794 11 800 478 757 7 418 529 578 789 711 369 575 
795 11 730 600 180 671 675 781 801 524 430 371 469 
796 6 473 714 697 489 364 42 
797 11 228 120 538 463 252 142 192 26 397 329 155 
798 8 427 632 206 720 561 551 338 548 
799 11 36 195 27 749 743 261 5 617 710 44 610 
800 11 794 478 757 7 529 418 789 578 711 369 544 
801 11 180 288 116 675 582 795 469 239 317 424 221 
802 11 512 568 301 440 94 468 674 318 596 588 544 
803 11 285 661 787 437 502 560 581 564 655 712 534 
DEPOT_SECTION
   1
   -1
EOF
