NAME :  X-n801-kX-w80-c9.cctp
COMMENT : 	Adapted by Maziero, Usberti and Cavellucci from the Uchoa, Pecin, Pessoa, Poggi, Subramanian, and Vidal (2013)
TYPE :  CCTP
DIMENSION :    519
EDGE_WEIGHT_TYPE : 	EUC_2D	
CAPACITY : 	20
VERTICES_WITHIN_COVERAGE :  9
VERTICES_WITH_DEMAND : 	80
NODE_COORD_SECTION
1 0 0
2 674 825
3 549 534
4 43 315
5 542 420
6 45 580
7 180 450
8 369 618
9 287 721
10 36 426
11 680 338
12 42 81
13 942 119
14 247 68
15 432 549
16 514 857
17 554 976
18 103 728
19 271 73
20 310 859
21 874 538
22 358 642
23 989 42
24 538 271
25 854 443
26 596 563
27 827 228
28 380 40
29 152 224
30 726 258
31 981 544
32 600 381
33 629 799
34 488 12
35 100 542
36 37 272
37 847 980
38 949 124
39 787 917
40 111 958
41 571 968
42 2 409
43 95 2
44 318 447
45 271 856
46 873 697
47 34 274
48 733 17
49 620 125
50 611 334
51 66 848
52 507 711
53 993 152
54 596 683
55 605 980
56 372 833
57 968 699
58 36 620
59 518 566
60 138 457
61 828 421
62 467 39
63 626 645
64 192 923
65 56 363
66 252 349
67 202 896
68 999 331
69 843 462
70 83 975
71 475 135
72 601 55
73 578 43
74 480 854
75 124 825
76 121 228
77 355 326
78 291 944
79 784 563
80 260 251
81 472 918
82 539 592
83 79 779
84 114 765
85 948 685
86 550 915
87 541 935
88 216 85
89 106 843
90 174 744
91 699 379
92 721 10
93 18 53
94 755 58
95 928 666
96 347 805
97 360 600
98 422 848
99 391 807
100 712 230
101 80 246
102 367 837
103 865 661
104 956 582
105 977 663
106 930 343
107 896 542
108 62 636
109 46 591
110 102 825
111 822 527
112 975 128
113 26 941
114 314 34
115 512 291
116 718 832
117 244 931
118 534 425
119 585 799
120 513 990
121 641 633
122 254 283
123 702 44
124 109 823
125 26 270
126 333 949
127 132 174
128 575 723
129 320 523
130 488 947
131 376 858
132 52 401
133 636 652
134 813 892
135 403 311
136 201 878
137 894 2
138 515 142
139 701 895
140 612 652
141 650 986
142 676 219
143 174 236
144 204 25
145 409 434
146 405 549
147 810 191
148 129 755
149 499 596
150 61 519
151 29 34
152 520 251
153 385 685
154 908 111
155 234 353
156 467 896
157 277 981
158 194 265
159 850 444
160 131 847
161 627 401
162 267 788
163 805 211
164 61 985
165 402 812
166 907 977
167 863 184
168 74 25
169 741 581
170 38 919
171 979 558
172 4 676
173 311 756
174 235 42
175 848 461
176 293 234
177 274 248
178 800 608
179 342 852
180 623 95
181 258 221
182 444 16
183 821 540
184 939 766
185 157 549
186 106 921
187 961 583
188 619 540
189 507 97
190 44 843
191 817 913
192 115 221
193 200 58
194 38 628
195 332 129
196 929 145
197 269 260
198 583 421
199 424 47
200 240 26
201 743 62
202 54 828
203 191 890
204 384 316
205 205 892
206 368 18
207 622 691
208 182 900
209 530 981
210 540 313
211 78 213
212 456 978
213 99 363
214 623 878
215 379 61
216 792 953
217 373 793
218 330 512
219 22 7
220 445 147
221 431 90
222 659 423
223 724 233
224 906 970
225 476 43
226 522 237
227 571 317
228 280 476
229 571 424
230 452 500
231 743 544
232 493 777
233 762 39
234 473 60
235 570 414
236 12 159
237 627 681
238 589 346
239 563 637
240 776 929
241 183 433
242 697 48
243 3 800
244 361 10
245 499 410
246 601 34
247 73 124
248 661 144
249 104 892
250 329 906
251 41 229
252 191 805
253 72 237
254 491 176
255 391 682
256 828 526
257 765 225
258 223 461
259 201 270
260 261 879
261 152 937
262 573 385
263 159 283
264 585 768
265 459 705
266 215 862
267 150 407
268 274 443
269 565 501
270 230 119
271 662 102
272 252 72
273 737 554
274 110 348
275 232 480
276 598 686
277 327 371
278 267 682
279 383 829
280 897 166
281 869 417
282 244 30
283 809 255
284 340 996
285 32 602
286 916 104
287 77 731
288 489 744
289 330 707
290 600 540
291 803 954
292 123 430
293 998 17
294 229 468
295 67 511
296 680 762
297 752 263
298 724 44
299 911 15
300 29 685
301 563 589
302 972 125
303 61 393
304 536 881
305 963 57
306 690 225
307 759 430
308 535 47
309 468 19
310 810 233
311 753 13
312 217 331
313 747 415
314 207 218
315 242 335
316 249 118
317 118 982
318 15 459
319 52 684
320 990 159
321 325 995
322 123 903
323 544 369
324 582 67
325 676 344
326 447 520
327 675 775
328 723 323
329 624 108
330 531 961
331 401 76
332 493 604
333 125 188
334 558 463
335 646 587
336 270 234
337 100 418
338 363 882
339 9 260
340 238 33
341 101 723
342 564 169
343 101 247
344 79 258
345 806 598
346 465 7
347 571 33
348 858 934
349 498 115
350 270 966
351 897 98
352 659 168
353 6 579
354 33 841
355 846 736
356 524 301
357 154 997
358 945 365
359 248 354
360 351 798
361 515 23
362 167 912
363 910 515
364 542 619
365 855 937
366 735 333
367 950 557
368 880 441
369 877 400
370 771 528
371 592 578
372 520 681
373 175 953
374 276 21
375 476 514
376 326 299
377 589 781
378 960 350
379 0 291
380 329 24
381 113 342
382 120 573
383 298 609
384 731 893
385 763 273
386 880 426
387 719 232
388 955 689
389 34 817
390 105 22
391 361 870
392 553 819
393 19 838
394 80 424
395 173 767
396 990 111
397 92 895
398 986 670
399 974 197
400 870 188
401 348 284
402 973 109
403 34 437
404 137 997
405 474 63
406 300 335
407 866 249
408 528 91
409 140 964
410 25 937
411 486 786
412 357 860
413 823 709
414 77 809
415 516 380
416 261 767
417 619 645
418 754 57
419 692 838
420 193 932
421 738 941
422 487 965
423 444 940
424 182 954
425 85 539
426 950 549
427 601 86
428 238 877
429 543 987
430 494 134
431 562 925
432 838 282
433 834 210
434 375 833
435 568 225
436 106 594
437 675 986
438 272 373
439 299 740
440 482 600
441 255 448
442 834 470
443 117 696
444 837 469
445 345 585
446 476 565
447 271 417
448 877 492
449 605 578
450 607 721
451 54 581
452 7 37
453 529 997
454 962 671
455 82 75
456 1000 703
457 607 536
458 764 227
459 827 744
460 788 463
461 450 136
462 72 466
463 119 348
464 32 58
465 178 910
466 686 207
467 276 358
468 707 282
469 141 999
470 403 688
471 315 671
472 827 880
473 641 950
474 611 668
475 313 616
476 928 521
477 350 295
478 260 800
479 302 615
480 653 302
481 5 126
482 512 800
483 541 691
484 559 690
485 24 21
486 465 522
487 125 178
488 868 947
489 636 919
490 790 245
491 244 833
492 870 543
493 606 359
494 532 975
495 555 276
496 537 457
497 120 51
498 859 508
499 42 675
500 999 300
501 908 736
502 735 980
503 459 564
504 49 877
505 483 587
506 945 557
507 602 2
508 633 936
509 814 486
510 193 411
511 40 10
512 334 499
513 443 482
514 262 691
515 814 908
516 171 930
517 205 410
518 115 986
519 77 338
DEMAND_SECTION
2 1
3 1
4 1
5 1
6 1
7 1
8 1
9 1
10 1
11 1
12 1
13 1
14 1
15 1
16 1
17 1
18 1
19 1
20 1
21 1
22 1
23 1
24 1
25 1
26 1
27 1
28 1
29 1
30 1
31 1
32 1
33 1
34 1
35 1
36 1
37 1
38 1
39 1
40 1
41 1
42 1
43 1
44 1
45 1
46 1
47 1
48 1
49 1
50 1
51 1
52 1
53 1
54 1
55 1
56 1
57 1
58 1
59 1
60 1
61 1
62 1
63 1
64 1
65 1
66 1
67 1
68 1
69 1
70 1
71 1
72 1
73 1
74 1
75 1
76 1
77 1
78 1
79 1
80 1
81 1
COVERAGE_SECTION
2 7 419 116 327 33 296 214 139 
3 8 269 59 290 26 301 457 82 371 
4 9 519 47 36 125 379 65 339 344 213 
5 9 118 229 235 496 198 245 334 262 415 
6 9 451 109 285 353 58 194 425 108 150 
7 9 241 510 60 258 517 267 294 275 292 
8 9 97 22 445 475 479 255 153 383 471 
9 7 439 514 173 278 289 416 471 
10 7 403 132 42 318 303 394 462 
11 9 325 91 480 328 366 468 50 493 161 
12 8 464 93 455 151 247 452 481 485 
13 9 38 196 286 302 402 112 154 396 351 
14 9 272 19 174 88 340 282 200 193 316 
15 9 146 503 326 486 446 230 375 505 513 
16 8 304 74 392 482 156 86 81 411 
17 9 429 41 494 209 330 453 87 120 55 
18 8 341 287 443 148 84 83 319 90 
19 9 272 14 174 316 282 340 374 88 200 
20 9 179 45 412 250 391 260 338 102 96 
21 9 492 107 498 363 448 256 111 183 476 
22 9 8 97 153 255 471 475 445 479 470 
23 9 293 305 396 402 299 302 112 13 38 
24 8 495 152 115 356 226 210 435 227 
25 9 159 175 69 368 281 386 444 61 442 
26 8 371 449 290 457 188 301 3 335 
27 9 310 433 163 283 147 490 407 432 167 
28 9 215 206 244 331 199 380 114 182 221 
29 9 143 76 192 333 487 127 314 343 158 
30 9 223 297 387 100 468 385 306 458 257 
31 7 171 426 367 506 187 104 476 
32 9 493 262 161 238 198 235 50 229 323 
33 8 119 377 2 327 264 296 419 214 
34 9 309 346 361 225 62 182 234 405 308 
35 7 425 382 150 295 436 185 451 
36 9 47 125 339 379 4 251 344 253 101 
37 8 488 365 348 291 166 224 216 191 
38 9 13 302 112 402 196 286 154 396 53 
39 9 240 515 191 134 216 291 472 421 384 
40 9 317 518 409 70 186 261 404 469 322 
41 9 17 429 55 494 330 209 431 87 453 
42 7 10 403 132 318 303 65 394 
43 8 390 168 497 511 151 219 485 455 
44 8 268 228 512 447 441 218 129 277 
45 7 260 491 20 428 266 478 162 
46 6 103 355 413 501 95 459 
47 9 36 125 339 379 4 251 344 253 101 
48 8 92 311 298 233 123 418 201 94 
49 9 329 180 427 248 271 352 324 342 72 
50 8 238 493 227 32 480 262 325 11 
51 9 190 202 354 504 89 414 110 389 393 
52 7 372 288 483 265 484 232 128 
53 9 320 112 302 396 402 399 38 13 196 
54 9 276 474 207 237 140 484 450 417 128 
55 9 41 141 473 17 508 429 489 431 437 
56 9 434 102 279 131 412 99 179 165 96 
57 8 388 85 454 456 398 105 95 501 
58 9 194 285 108 109 6 451 353 499 172 
59 9 82 149 505 446 3 332 440 301 364 
60 8 292 7 241 267 337 394 462 510 
61 9 159 25 281 69 175 442 444 386 369 
62 9 225 309 234 405 346 182 34 199 361 
63 9 417 133 140 121 474 237 207 54 276 
64 9 420 465 516 208 362 67 203 424 205 
65 9 303 519 132 213 4 274 381 463 10 
66 9 359 315 155 467 438 312 406 122 447 
67 9 205 203 136 208 465 64 266 420 362 
68 4 500 378 358 106 
69 9 175 444 442 159 25 509 368 61 448 
70 9 164 40 518 317 404 409 186 469 113 
71 8 430 461 349 220 138 254 189 221 
72 9 246 324 73 427 347 180 507 329 308 
73 9 347 324 246 72 308 507 427 361 180 
74 8 16 156 98 304 482 81 411 232 
75 9 124 110 160 89 414 84 51 83 148 
76 9 192 343 29 333 101 211 253 487 344 
77 7 204 477 376 401 135 277 406 
78 8 350 157 126 117 250 321 284 260 
79 8 370 345 183 231 169 178 273 111 
80 9 197 177 336 181 122 176 259 314 158 
81 9 156 130 423 422 212 74 87 330 16 
82 8 301 364 59 149 332 239 371 505 
83 9 414 84 287 110 124 148 202 18 389 
84 9 148 83 18 341 287 414 124 395 75 
85 7 388 454 57 95 105 398 456 
86 7 431 87 304 330 41 17 494 
87 9 86 431 330 494 17 41 209 429 130 
88 8 193 14 270 272 174 316 19 340 
89 9 110 124 75 160 51 414 249 202 397 
90 5 395 148 252 84 18 
91 7 325 11 366 222 313 328 161 
92 7 48 311 298 123 242 233 201 
93 9 464 452 151 485 12 219 511 168 455 
94 6 418 201 233 298 311 48 
95 7 85 454 388 105 57 398 46 
96 7 360 217 56 102 434 279 99 
97 8 8 445 22 475 479 383 146 471 
98 8 165 279 131 434 99 56 102 74 
99 8 165 217 279 434 56 102 360 96 
100 9 387 223 306 30 466 142 297 458 468 
101 9 253 344 343 211 192 251 76 36 47 
102 9 56 434 279 131 412 179 391 96 99 
103 2 46 95 
104 6 187 367 506 171 426 31 
105 7 398 454 388 85 57 456 95 
106 3 358 378 68 
107 8 21 492 363 476 498 506 448 426 
108 7 194 58 499 285 109 319 451 
109 9 6 451 285 58 194 353 108 436 425 
110 9 124 89 75 414 160 51 202 83 84 
111 8 256 183 498 509 370 492 79 21 
112 9 302 402 396 38 53 13 320 196 286 
113 9 410 170 164 70 504 397 186 40 249 
114 9 380 374 244 206 19 28 215 282 272 
115 6 356 24 210 152 495 226 
116 4 419 2 384 139 
117 9 350 78 420 64 428 67 205 260 157 
118 8 5 496 229 235 245 334 415 198 
119 4 377 264 392 33 
120 9 453 209 494 429 330 422 17 130 212 
121 8 63 133 417 140 335 474 237 207 
122 9 197 80 177 336 315 259 312 181 158 
123 5 242 298 92 48 201 
124 9 110 75 89 160 414 51 83 202 84 
125 9 47 36 339 379 251 4 344 253 101 
126 5 78 250 321 284 157 
127 4 487 333 192 29 
128 7 450 484 276 54 264 483 207 
129 5 218 512 228 445 44 
130 9 422 81 212 330 423 120 494 87 209 
131 8 391 412 102 56 434 338 279 179 
132 9 303 10 394 65 403 42 337 213 462 
133 9 63 417 121 140 237 474 207 54 276 
134 7 515 472 191 39 240 348 365 
135 4 204 77 477 401 
136 7 205 203 67 266 208 428 465 
137 4 299 305 351 23 
138 7 430 349 71 254 189 408 342 
139 7 384 419 421 116 489 2 508 
140 9 417 63 474 133 237 54 121 276 207 
141 8 437 473 55 508 489 41 502 17 
142 8 306 466 100 387 223 352 30 468 
143 8 29 158 314 259 263 76 192 333 
144 7 193 174 340 200 282 14 88 
145 3 513 230 44 
146 9 15 326 503 486 97 230 445 446 513 
147 6 163 433 27 310 167 257 
148 8 84 18 341 90 395 83 287 443 
149 8 332 440 505 59 446 82 364 503 
150 4 295 425 35 462 
151 9 485 93 452 464 511 219 168 12 455 
152 6 226 24 115 495 356 435 
153 4 255 470 22 289 
154 4 286 351 13 196 
155 8 359 66 315 312 467 438 517 406 
156 8 81 74 423 130 16 98 304 422 
157 8 350 78 321 117 126 284 250 420 
158 6 259 143 263 314 29 122 
159 9 25 175 69 444 368 442 61 281 386 
160 9 75 89 124 110 249 322 397 51 414 
161 8 32 222 493 198 262 235 229 238 
162 7 478 416 491 173 439 45 9 
163 8 147 310 27 433 490 257 283 458 
164 9 70 518 113 40 317 410 170 404 186 
165 7 99 279 434 217 56 98 102 
166 3 224 488 37 
167 6 400 280 433 147 27 163 
168 9 43 390 511 151 485 455 464 497 219 
169 3 273 231 79 
170 9 410 113 504 397 186 164 249 70 51 
171 7 31 367 426 187 104 506 476 
172 9 300 499 319 194 58 108 285 287 109 
173 5 439 9 416 289 162 
174 9 340 282 200 14 272 144 193 374 88 
175 9 69 444 159 442 25 368 448 509 61 
176 7 336 177 197 80 181 122 376 
177 8 197 80 336 176 181 122 314 376 
178 2 345 79 
179 9 412 391 102 20 131 56 338 434 96 
180 8 329 427 49 271 72 324 248 246 
181 7 336 80 177 176 197 314 122 
182 9 346 309 62 199 225 34 234 405 28 
183 8 111 256 79 492 498 370 21 509 
184 4 501 57 388 85 
185 2 382 35 
186 9 322 249 397 40 261 409 70 317 362 
187 6 104 367 171 506 426 31 
188 5 457 290 26 449 371 
189 9 349 408 430 138 405 71 234 308 225 
190 9 354 202 51 393 389 504 414 243 110 
191 7 515 134 39 472 291 240 365 
192 9 76 343 333 29 211 101 487 253 127 
193 7 88 144 174 340 14 200 282 
194 9 58 108 285 109 499 6 451 300 319 
195 2 19 215 
196 7 13 38 280 154 286 302 112 
197 9 80 177 336 122 176 181 259 376 158 
198 8 229 235 262 5 32 161 118 334 
199 9 182 331 62 221 28 215 234 225 309 
200 9 282 340 174 144 374 14 272 193 19 
201 6 418 94 298 233 123 48 
202 9 190 51 389 354 414 393 110 504 89 
203 9 67 208 205 136 465 64 362 266 420 
204 5 135 77 477 401 376 
205 9 67 203 136 208 266 465 64 428 420 
206 9 244 28 380 215 114 199 331 182 374 
207 9 237 276 474 54 450 140 133 63 417 
208 9 465 203 362 67 205 64 136 516 420 
209 9 494 429 453 120 330 17 41 422 87 
210 5 356 227 115 495 24 
211 7 253 101 192 251 343 344 76 
212 5 422 423 130 120 81 
213 6 274 381 463 519 65 303 
214 7 489 508 2 473 431 33 139 
215 8 28 331 206 199 244 221 380 114 
216 9 291 240 39 191 515 421 37 502 134 
217 6 99 360 96 165 279 56 
218 5 512 129 228 44 445 
219 9 485 511 151 452 93 464 168 43 12 
220 5 461 71 430 254 221 
221 9 331 199 461 405 234 220 215 62 71 
222 4 161 91 32 198 
223 9 387 100 30 306 458 297 257 466 142 
224 4 166 488 37 348 
225 9 62 234 405 309 34 346 182 361 199 
226 5 152 24 435 495 115 
227 7 210 238 50 495 356 493 24 
228 8 268 441 44 275 294 258 512 447 
229 8 235 198 5 118 262 334 496 32 
230 7 513 326 486 375 15 503 146 
231 4 273 370 169 79 
232 4 411 482 288 52 
233 7 94 418 311 201 48 298 92 
234 9 405 225 62 309 34 189 199 221 182 
235 9 229 198 5 262 118 32 334 323 496 
236 4 481 247 251 12 
237 9 207 474 276 133 54 140 63 417 450 
238 7 493 50 227 32 262 323 210 
239 9 364 301 82 140 484 54 417 474 483 
240 9 39 216 291 421 515 191 134 384 502 
241 9 7 510 517 267 258 60 294 292 275 
242 5 123 298 92 48 201 
243 9 389 393 354 202 190 414 51 83 504 
244 9 206 380 28 114 215 199 331 182 374 
245 3 415 118 5 
246 9 72 73 347 507 324 427 180 308 329 
247 2 455 12 
248 5 352 271 49 329 180 
249 9 397 322 186 89 160 504 51 40 261 
250 8 338 126 391 20 78 412 179 131 
251 8 253 211 36 101 125 339 47 344 
252 6 395 491 266 90 478 75 
253 8 101 344 211 343 251 192 36 76 
254 3 138 430 71 
255 4 153 470 22 289 
256 8 111 183 498 509 492 21 442 79 
257 9 458 490 297 163 223 310 387 385 30 
258 8 294 275 441 7 241 268 517 510 
259 7 158 143 263 314 122 80 312 
260 9 428 45 266 491 20 117 205 136 67 
261 9 516 373 362 409 424 465 420 64 322 
262 8 32 235 323 198 229 238 493 5 
263 6 158 259 143 29 76 343 
264 5 377 119 128 450 33 
265 5 52 288 470 372 255 
266 6 136 428 205 67 203 491 
267 6 292 241 510 60 337 7 
268 9 441 447 228 44 294 258 275 438 517 
269 4 3 334 290 496 
270 5 316 88 272 14 19 
271 5 329 180 248 49 427 
272 9 14 19 174 88 340 282 316 200 270 
273 4 231 169 370 79 
274 5 381 463 213 519 65 
275 7 294 258 441 228 268 7 241 
276 9 54 474 207 237 450 140 484 128 417 
277 9 406 77 467 438 376 447 44 66 204 
278 5 514 9 471 439 289 
279 8 434 56 102 99 165 131 217 412 
280 5 400 167 196 154 13 
281 7 386 369 368 25 159 61 175 
282 9 200 340 174 374 14 144 272 19 193 
283 6 490 310 27 432 163 385 
284 4 321 126 157 78 
285 9 58 109 6 194 451 353 108 436 499 
286 5 154 351 13 38 196 
287 9 341 18 83 84 319 443 148 300 499 
288 5 232 52 411 265 482 
289 5 471 9 439 173 153 
290 5 457 188 26 449 371 
291 9 216 240 39 191 515 37 365 348 134 
292 8 337 60 267 394 7 241 462 213 
293 8 23 305 299 396 402 137 302 112 
294 7 258 275 441 268 7 228 241 
295 4 150 425 35 462 
296 4 327 2 33 419 
297 8 385 30 458 257 223 490 387 468 
298 7 123 201 242 48 418 92 94 
299 4 137 305 23 351 
300 9 499 319 172 194 108 58 287 341 285 
301 9 82 371 364 26 449 239 59 3 290 
302 9 112 402 38 396 13 53 320 196 286 
303 9 132 65 394 10 337 213 403 519 42 
304 8 16 86 431 87 74 392 156 81 
305 8 23 293 402 396 13 286 299 38 
306 8 142 466 100 387 223 30 468 352 
307 3 313 460 61 
308 9 361 347 73 408 324 189 34 225 234 
309 9 346 62 34 182 225 234 405 361 199 
310 8 27 283 163 490 433 147 257 458 
311 8 48 233 92 298 418 94 201 123 
312 7 315 155 66 359 122 259 467 
313 4 307 91 460 61 
314 7 143 158 181 259 29 80 336 
315 8 66 155 359 312 467 438 122 406 
316 6 270 272 88 14 19 174 
317 9 518 404 40 409 469 70 357 261 164 
318 4 403 10 42 462 
319 8 499 300 108 172 287 194 341 58 
320 9 53 112 302 399 396 402 38 13 196 
321 5 284 126 157 78 350 
322 9 249 186 397 261 362 465 516 40 160 
323 4 415 262 5 238 
324 9 72 73 427 347 246 180 308 329 408 
325 9 11 91 480 328 366 50 468 493 161 
326 8 486 230 375 15 513 503 146 446 
327 5 296 2 33 419 116 
328 9 366 468 11 325 91 385 30 297 480 
329 8 180 49 427 271 248 72 324 352 
330 9 494 209 17 87 429 120 453 41 422 
331 8 215 221 199 28 206 182 234 405 
332 8 149 440 505 446 59 82 364 503 
333 6 487 127 192 76 29 211 
334 6 496 269 229 118 5 198 
335 8 449 121 188 26 371 63 417 457 
336 7 177 181 80 176 197 122 314 
337 8 394 292 303 132 267 60 213 462 
338 7 391 412 131 179 250 102 56 
339 9 125 47 36 379 251 4 253 344 101 
340 9 200 282 174 144 14 374 272 193 19 
341 8 18 287 443 148 84 83 319 90 
342 3 138 435 49 
343 9 101 344 76 192 253 211 29 251 333 
344 9 101 253 343 36 211 47 251 76 192 
345 2 178 79 
346 9 309 182 34 62 225 361 234 199 405 
347 9 73 246 324 72 308 507 361 427 408 
348 6 365 488 191 37 515 291 
349 9 430 189 71 138 408 461 405 234 254 
350 9 157 78 117 321 126 284 250 420 260 
351 3 154 286 13 
352 6 248 466 142 49 306 271 
353 8 285 6 109 451 58 194 108 150 
354 9 190 393 389 202 51 504 243 414 110 
355 4 459 413 46 501 
356 6 115 210 24 495 152 227 
357 9 469 404 409 317 518 373 424 40 261 
358 3 378 106 68 
359 9 66 155 315 467 438 312 406 447 122 
360 7 96 217 56 99 102 434 279 
361 9 34 308 225 309 62 346 234 347 405 
362 9 465 516 208 64 261 203 420 67 373 
363 8 476 107 448 21 492 498 426 506 
364 8 82 239 301 149 332 59 440 371 
365 6 348 488 37 191 515 291 
366 7 328 11 91 468 325 385 297 
367 7 506 426 104 187 171 31 476 
368 7 386 25 281 159 175 369 69 
369 4 281 386 368 25 
370 3 231 79 273 
371 9 449 26 301 290 457 188 82 335 3 
372 8 483 52 484 239 265 364 128 288 
373 9 424 516 261 420 64 409 362 465 357 
374 9 282 200 114 340 174 19 380 14 272 
375 7 486 230 326 513 446 503 15 
376 9 477 401 77 406 204 197 277 176 177 
377 4 264 119 33 392 
378 4 358 106 68 500 
379 9 339 125 47 36 4 251 344 253 519 
380 9 114 244 206 28 374 215 19 282 200 
381 5 274 463 213 519 65 
382 4 436 35 185 425 
383 6 479 475 445 97 471 22 
384 6 139 421 240 39 116 419 
385 6 297 490 30 458 257 283 
386 6 281 368 369 25 159 175 
387 9 223 100 30 306 466 142 297 458 257 
388 8 85 57 454 105 95 398 456 501 
389 9 202 354 393 190 243 414 51 83 504 
390 5 43 168 497 455 511 
391 8 412 338 131 179 102 56 434 279 
392 5 119 482 377 16 264 
393 9 354 190 389 202 243 51 504 414 170 
394 7 337 132 303 292 462 10 403 
395 5 90 252 148 84 75 
396 9 402 112 302 53 38 320 13 305 23 
397 9 249 186 322 504 51 89 170 160 40 
398 7 105 454 57 388 456 85 95 
399 6 320 53 112 196 302 38 
400 6 167 280 433 27 147 407 
401 7 477 376 77 204 135 406 176 
402 9 302 396 112 38 13 53 305 320 196 
403 7 10 318 132 42 394 462 303 
404 9 469 357 317 518 409 40 70 373 261 
405 9 234 225 62 309 189 221 199 34 182 
406 9 467 376 277 438 66 359 77 315 477 
407 6 432 27 433 283 310 400 
408 9 189 349 308 138 430 324 405 234 71 
409 9 317 40 261 404 518 469 357 373 424 
410 9 113 170 164 504 70 397 186 40 249 
411 4 232 482 288 74 
412 9 391 179 131 338 102 56 434 279 20 
413 4 355 459 46 103 
414 9 83 110 202 124 51 389 89 190 75 
415 4 323 245 5 118 
416 8 162 478 439 173 9 491 514 252 
417 9 63 140 133 474 121 237 54 207 276 
418 6 94 201 233 298 311 48 
419 6 2 116 139 327 384 33 
420 9 64 516 424 465 373 362 208 67 261 
421 8 502 240 384 39 216 139 291 437 
422 9 130 212 120 330 209 494 81 423 453 
423 5 81 212 130 156 422 
424 9 373 420 516 64 261 409 465 362 357 
425 6 35 150 295 382 451 6 
426 7 367 506 171 31 104 187 476 
427 9 180 324 72 329 49 73 246 347 271 
428 8 260 266 205 136 45 67 491 203 
429 9 209 17 494 453 330 120 41 87 422 
430 8 71 349 138 189 254 461 220 408 
431 7 86 87 41 330 304 17 494 
432 4 283 407 27 310 
433 8 27 163 147 310 167 400 407 283 
434 9 56 102 279 131 99 412 165 179 96 
435 5 226 495 24 152 342 
436 4 382 35 451 425 
437 8 141 473 502 508 55 421 489 139 
438 9 467 66 359 155 447 406 315 277 312 
439 6 173 9 289 416 162 514 
440 8 332 505 149 446 503 59 82 364 
441 9 268 294 258 447 228 275 44 517 510 
442 8 444 69 175 509 159 25 498 460 
443 6 341 18 287 148 319 84 
444 9 442 69 175 159 509 25 498 448 61 
445 7 97 8 475 479 383 22 129 
446 9 503 505 440 149 59 332 486 15 375 
447 9 268 441 438 44 467 228 258 294 517 
448 9 498 363 175 69 21 444 442 368 492 
449 9 371 26 290 188 335 457 301 121 82 
450 8 128 207 276 54 237 264 474 484 
451 9 6 109 285 58 353 194 425 436 108 
452 9 93 151 485 464 219 511 12 168 455 
453 9 209 120 429 494 17 330 41 422 87 
454 7 105 388 85 398 57 95 456 
455 3 12 497 247 
456 8 57 398 105 388 454 85 95 184 
457 5 290 188 26 449 371 
458 9 257 490 297 223 163 387 310 385 30 
459 3 355 413 46 
460 6 509 307 442 444 69 61 
461 6 220 71 430 221 349 254 
462 5 394 295 403 10 150 
463 5 381 274 213 519 65 
464 9 93 151 12 452 485 511 219 168 455 
465 9 208 362 64 516 203 420 67 205 261 
466 8 142 306 100 387 223 352 30 248 
467 9 438 66 359 406 315 155 277 447 312 
468 9 30 328 297 387 100 223 385 366 480 
469 9 404 357 317 518 409 40 373 424 70 
470 4 255 153 265 22 
471 8 289 278 22 475 9 479 514 383 
472 5 134 515 191 39 348 
473 6 508 489 141 55 437 41 
474 9 140 54 237 276 417 207 63 133 121 
475 7 479 383 445 97 22 471 8 
476 8 363 426 107 506 367 21 31 448 
477 6 401 376 77 204 135 406 
478 6 162 416 491 45 173 252 
479 7 383 475 445 471 97 22 8 
480 9 11 325 50 468 328 493 238 227 30 
481 5 236 12 247 464 93 
482 5 232 411 392 16 288 
483 7 484 372 52 128 54 276 239 
484 8 483 128 54 276 372 239 52 474 
485 9 151 219 511 452 93 464 168 12 43 
486 8 375 326 230 503 15 446 513 146 
487 4 127 333 192 76 
488 6 348 365 37 224 166 191 
489 6 508 473 214 55 141 139 
490 8 283 310 257 458 163 385 27 297 
491 6 45 478 266 428 260 162 
492 9 21 107 498 256 183 363 111 448 476 
493 8 238 32 50 262 161 227 323 198 
494 9 209 330 429 17 453 120 41 87 422 
495 8 24 210 356 152 227 115 226 435 
496 7 334 118 5 229 269 235 198 
497 4 390 455 168 43 
498 9 448 21 256 492 111 442 444 175 69 
499 8 319 300 172 108 194 58 287 285 
500 4 68 378 106 358 
501 7 184 46 355 85 388 57 95 
502 8 421 437 216 240 291 39 141 384 
503 9 446 15 505 486 440 326 149 332 375 
504 9 51 190 354 170 397 202 393 249 389 
505 8 440 149 332 446 503 59 82 15 
506 7 367 426 104 187 171 31 476 
507 9 246 347 73 72 324 308 427 361 180 
508 6 473 489 55 141 214 437 
509 7 442 444 460 69 111 175 256 
510 8 517 241 7 267 258 294 155 60 
511 9 219 485 151 168 452 93 464 43 390 
512 6 218 129 44 228 268 146 
513 6 230 326 375 486 145 15 
514 5 278 9 471 439 289 
515 7 191 134 39 472 240 291 216 
516 9 362 261 465 64 420 373 424 208 203 
517 9 510 241 7 258 267 294 441 155 447 
518 9 317 404 40 469 409 70 357 164 261 
519 7 65 213 274 381 4 463 303 
DEPOT_SECTION
   1
   -1
EOF
