NAME :  X-n895-kX-w178-c7.cctp
COMMENT : 	Adapted by Maziero, Usberti and Cavellucci from the Uchoa, Pecin, Pessoa, Poggi, Subramanian, and Vidal (2013)
TYPE :  CCTP
DIMENSION :    730
EDGE_WEIGHT_TYPE : 	EUC_2D	
CAPACITY : 	1816
VERTICES_WITHIN_COVERAGE :  7
VERTICES_WITH_DEMAND : 	178
NODE_COORD_SECTION
1 706 137
2 392 662
3 692 274
4 944 370
5 726 945
6 869 43
7 621 770
8 112 402
9 523 374
10 619 178
11 553 457
12 95 814
13 696 130
14 27 417
15 940 487
16 943 965
17 670 435
18 931 752
19 307 776
20 404 101
21 199 526
22 117 312
23 762 505
24 433 864
25 868 155
26 832 870
27 488 624
28 686 782
29 585 89
30 268 339
31 248 344
32 22 776
33 89 614
34 75 271
35 882 646
36 6 656
37 449 27
38 857 362
39 809 774
40 403 626
41 559 145
42 667 945
43 524 737
44 683 777
45 641 798
46 514 495
47 102 813
48 517 591
49 748 330
50 859 127
51 699 41
52 281 442
53 257 106
54 116 99
55 41 732
56 555 95
57 378 1
58 155 308
59 942 955
60 619 205
61 646 910
62 796 791
63 785 49
64 958 817
65 424 240
66 311 226
67 37 119
68 761 866
69 404 417
70 929 432
71 743 535
72 418 679
73 107 379
74 329 868
75 22 432
76 24 474
77 380 83
78 145 135
79 576 209
80 877 859
81 901 0
82 464 473
83 181 35
84 976 331
85 672 617
86 324 264
87 193 341
88 525 782
89 527 935
90 218 529
91 48 325
92 431 989
93 626 974
94 594 432
95 757 450
96 805 123
97 959 266
98 348 776
99 409 946
100 458 247
101 841 361
102 333 503
103 675 306
104 407 811
105 418 325
106 856 199
107 300 792
108 371 156
109 163 237
110 172 589
111 609 928
112 273 18
113 379 694
114 996 38
115 4 6
116 738 18
117 693 307
118 989 54
119 468 585
120 594 172
121 563 205
122 271 783
123 58 987
124 374 383
125 775 530
126 913 512
127 413 798
128 813 948
129 943 941
130 437 169
131 247 374
132 347 51
133 8 111
134 321 825
135 854 335
136 619 272
137 742 232
138 496 187
139 605 66
140 973 75
141 241 509
142 845 106
143 451 217
144 955 319
145 432 662
146 704 73
147 418 205
148 817 754
149 570 429
150 362 720
151 114 713
152 11 516
153 737 62
154 563 318
155 222 187
156 697 638
157 343 830
158 1 279
159 3 342
160 231 539
161 628 515
162 827 658
163 801 656
164 679 529
165 158 918
166 142 648
167 530 874
168 305 312
169 328 352
170 501 82
171 189 506
172 78 479
173 863 149
174 413 938
175 353 328
176 173 12
177 311 155
178 839 829
179 674 882
180 463 786
181 554 231
182 693 512
183 382 975
184 28 64
185 298 757
186 343 385
187 789 178
188 650 2
189 580 122
190 111 986
191 779 332
192 311 146
193 770 491
194 319 39
195 703 930
196 539 28
197 714 181
198 428 934
199 120 134
200 301 361
201 277 407
202 126 331
203 564 510
204 177 346
205 265 422
206 651 553
207 19 286
208 928 367
209 894 965
210 523 620
211 894 67
212 864 235
213 482 729
214 736 659
215 491 881
216 990 18
217 303 19
218 98 362
219 513 920
220 54 777
221 669 503
222 401 696
223 282 796
224 97 129
225 289 226
226 806 742
227 737 534
228 235 539
229 335 13
230 218 573
231 544 714
232 706 668
233 841 879
234 229 474
235 786 899
236 857 774
237 373 117
238 444 64
239 392 214
240 884 652
241 455 410
242 384 134
243 309 192
244 255 115
245 102 622
246 704 407
247 164 482
248 110 315
249 928 101
250 490 778
251 991 811
252 916 88
253 545 940
254 398 279
255 984 276
256 308 171
257 644 223
258 420 61
259 810 360
260 121 281
261 409 392
262 787 260
263 62 236
264 713 481
265 18 568
266 369 806
267 172 307
268 429 168
269 755 949
270 204 115
271 785 263
272 553 947
273 640 395
274 408 699
275 77 370
276 647 45
277 101 363
278 724 896
279 597 941
280 677 358
281 80 300
282 422 903
283 89 43
284 759 567
285 217 226
286 755 196
287 243 741
288 55 272
289 54 601
290 491 26
291 116 948
292 588 950
293 952 878
294 740 917
295 934 527
296 878 622
297 506 952
298 56 100
299 833 235
300 666 148
301 311 177
302 820 203
303 468 112
304 805 38
305 840 619
306 672 531
307 610 233
308 549 234
309 717 345
310 379 181
311 441 849
312 507 580
313 152 247
314 959 525
315 665 922
316 560 104
317 24 789
318 366 714
319 364 519
320 180 505
321 537 611
322 319 92
323 12 721
324 627 506
325 14 240
326 913 124
327 611 472
328 861 969
329 692 340
330 798 911
331 55 353
332 698 642
333 659 716
334 592 510
335 50 737
336 199 933
337 676 138
338 27 719
339 9 732
340 717 497
341 387 712
342 684 116
343 180 889
344 367 808
345 790 121
346 960 894
347 442 938
348 334 100
349 713 827
350 568 287
351 734 265
352 1 988
353 877 355
354 421 908
355 679 551
356 905 619
357 509 761
358 49 237
359 970 982
360 452 208
361 375 760
362 314 488
363 815 978
364 258 573
365 697 265
366 654 904
367 880 966
368 105 180
369 712 781
370 47 976
371 283 778
372 984 484
373 62 771
374 256 155
375 830 384
376 924 883
377 710 801
378 748 439
379 203 86
380 946 896
381 558 219
382 726 422
383 627 320
384 551 407
385 170 569
386 242 803
387 822 356
388 918 925
389 40 984
390 187 214
391 218 141
392 514 119
393 603 438
394 509 260
395 55 709
396 65 734
397 448 333
398 32 560
399 364 436
400 638 194
401 65 701
402 270 825
403 988 726
404 328 755
405 327 312
406 631 37
407 629 240
408 212 564
409 642 201
410 585 932
411 911 208
412 993 799
413 347 487
414 648 607
415 662 962
416 117 776
417 61 334
418 639 541
419 819 723
420 742 676
421 335 666
422 685 781
423 475 132
424 538 786
425 631 519
426 76 956
427 649 263
428 609 475
429 618 152
430 97 306
431 481 737
432 71 451
433 96 989
434 705 252
435 459 979
436 473 340
437 524 304
438 902 482
439 891 180
440 218 68
441 564 128
442 142 723
443 838 393
444 170 195
445 327 422
446 462 560
447 274 530
448 503 930
449 414 19
450 857 314
451 905 657
452 736 179
453 746 547
454 79 359
455 822 719
456 611 871
457 221 972
458 747 25
459 317 246
460 479 411
461 663 953
462 390 844
463 919 567
464 277 365
465 48 695
466 211 991
467 602 104
468 25 664
469 480 25
470 842 729
471 113 381
472 884 645
473 998 717
474 161 208
475 366 683
476 71 282
477 608 939
478 463 27
479 857 993
480 155 642
481 39 15
482 549 404
483 577 32
484 180 887
485 251 66
486 780 353
487 925 23
488 229 298
489 767 447
490 285 58
491 151 320
492 405 567
493 266 302
494 737 994
495 979 446
496 709 111
497 773 865
498 301 43
499 98 770
500 122 275
501 818 874
502 587 993
503 581 90
504 675 767
505 233 115
506 523 829
507 258 116
508 530 493
509 91 519
510 504 936
511 919 829
512 456 683
513 114 174
514 869 350
515 648 215
516 72 7
517 122 700
518 14 55
519 852 391
520 925 58
521 896 356
522 740 435
523 171 685
524 414 107
525 319 3
526 428 407
527 287 377
528 345 908
529 260 775
530 395 17
531 29 545
532 515 475
533 76 518
534 397 332
535 249 19
536 84 948
537 619 511
538 55 952
539 110 785
540 245 598
541 767 266
542 689 850
543 524 721
544 408 696
545 215 198
546 559 740
547 850 248
548 813 23
549 113 360
550 5 103
551 150 678
552 24 381
553 439 83
554 120 789
555 383 989
556 444 944
557 780 460
558 291 865
559 884 797
560 580 354
561 597 359
562 39 789
563 105 650
564 974 818
565 772 641
566 278 318
567 277 353
568 705 598
569 10 683
570 376 850
571 709 481
572 554 851
573 349 880
574 654 921
575 287 871
576 507 121
577 651 137
578 978 127
579 108 383
580 796 535
581 324 120
582 680 848
583 741 55
584 567 356
585 948 484
586 384 849
587 898 609
588 333 274
589 48 119
590 162 955
591 755 16
592 680 28
593 516 164
594 145 502
595 370 139
596 147 867
597 413 855
598 725 215
599 382 152
600 465 342
601 207 306
602 362 832
603 450 698
604 76 260
605 689 652
606 456 653
607 166 505
608 297 183
609 674 941
610 360 125
611 698 567
612 641 61
613 806 739
614 879 332
615 328 738
616 60 626
617 771 498
618 773 764
619 782 446
620 246 489
621 44 716
622 125 308
623 465 68
624 471 311
625 586 559
626 690 839
627 61 613
628 959 114
629 505 443
630 236 226
631 591 180
632 298 472
633 808 917
634 80 442
635 534 945
636 971 304
637 508 967
638 318 272
639 826 605
640 884 385
641 664 720
642 527 864
643 516 762
644 853 785
645 686 79
646 990 418
647 775 966
648 52 500
649 972 304
650 580 766
651 639 292
652 688 616
653 926 405
654 683 889
655 590 217
656 80 441
657 949 339
658 366 878
659 5 325
660 189 316
661 213 379
662 435 486
663 484 727
664 94 504
665 231 474
666 832 385
667 900 15
668 127 103
669 176 136
670 160 67
671 346 693
672 584 219
673 495 809
674 383 299
675 947 391
676 705 505
677 822 909
678 976 477
679 799 545
680 610 193
681 46 858
682 505 89
683 483 553
684 585 737
685 759 448
686 553 402
687 300 459
688 867 678
689 499 201
690 492 616
691 690 820
692 310 386
693 803 123
694 354 770
695 134 392
696 6 687
697 8 147
698 859 27
699 553 65
700 695 997
701 465 120
702 407 480
703 399 411
704 510 499
705 608 240
706 906 910
707 900 358
708 448 970
709 466 485
710 763 376
711 899 267
712 950 497
713 693 594
714 768 305
715 154 151
716 148 376
717 265 553
718 617 328
719 417 672
720 781 526
721 128 92
722 351 810
723 669 575
724 843 769
725 304 526
726 298 862
727 966 953
728 37 837
729 711 961
730 534 28
DEMAND_SECTION
2 67
3 86
4 82
5 99
6 54
7 52
8 54
9 71
10 70
11 61
12 74
13 91
14 97
15 92
16 63
17 84
18 90
19 53
20 66
21 79
22 57
23 53
24 72
25 58
26 94
27 86
28 64
29 74
30 82
31 78
32 77
33 78
34 58
35 51
36 64
37 61
38 87
39 92
40 80
41 62
42 97
43 88
44 78
45 78
46 86
47 75
48 62
49 96
50 82
51 50
52 61
53 86
54 67
55 92
56 57
57 51
58 70
59 93
60 83
61 99
62 64
63 62
64 78
65 64
66 81
67 85
68 56
69 56
70 87
71 91
72 92
73 58
74 68
75 93
76 58
77 98
78 87
79 85
80 94
81 71
82 93
83 50
84 60
85 90
86 95
87 87
88 85
89 79
90 54
91 89
92 98
93 98
94 85
95 97
96 94
97 69
98 62
99 56
100 98
101 65
102 55
103 93
104 52
105 69
106 60
107 97
108 55
109 85
110 52
111 66
112 72
113 69
114 50
115 73
116 54
117 74
118 93
119 84
120 69
121 99
122 74
123 94
124 98
125 55
126 95
127 74
128 88
129 100
130 79
131 85
132 78
133 71
134 96
135 96
136 76
137 50
138 100
139 70
140 55
141 70
142 82
143 64
144 61
145 97
146 82
147 89
148 81
149 73
150 63
151 78
152 74
153 69
154 53
155 78
156 71
157 52
158 96
159 92
160 75
161 63
162 56
163 93
164 86
165 58
166 58
167 93
168 78
169 62
170 64
171 83
172 100
173 88
174 79
175 75
176 76
177 62
178 62
179 68
COVERAGE_SECTION
2 7 719 72 475 113 222 40 544 
3 7 365 434 117 103 351 427 651 
4 7 208 675 657 653 707 84 521 
5 7 729 195 269 294 278 494 609 
6 7 698 211 667 81 520 487 548 
7 6 45 650 684 504 44 422 
8 7 579 471 73 695 277 218 549 
9 7 482 686 384 584 460 436 560 
10 7 680 400 120 429 60 631 409 
11 7 149 532 508 94 384 629 393 
12 6 47 539 554 416 499 373 
13 7 342 337 496 300 577 645 197 
14 7 75 552 432 76 656 634 275 
15 7 585 712 126 678 438 295 314 
16 7 59 129 727 359 388 209 367 
17 7 246 273 382 571 264 393 221 
18 3 403 559 64 
19 7 107 185 371 404 223 122 98 
20 7 524 77 237 242 553 258 610 
21 7 90 171 320 160 228 607 408 
22 7 248 622 202 430 260 491 500 
23 7 617 193 125 720 71 227 453 
24 6 311 597 282 354 462 586 
25 6 173 50 439 106 142 326 
26 7 233 501 677 178 80 330 633 
27 7 690 210 606 48 119 312 321 
28 6 422 44 504 369 377 691 
29 7 503 467 316 139 56 189 699 
30 7 567 31 566 464 493 200 131 
31 7 30 131 567 464 566 493 661 
32 7 317 562 220 373 339 55 335 
33 5 245 627 616 289 563 
34 7 604 476 288 281 263 430 358 
35 7 472 240 296 451 356 688 587 
36 5 468 569 696 465 616 
37 7 478 469 449 238 290 623 258 
38 7 101 514 353 135 519 666 375 
39 7 62 148 226 724 613 618 644 
40 6 2 145 719 72 492 606 
41 7 441 189 316 120 593 631 56 
42 7 609 461 415 315 574 195 61 
43 7 543 643 357 231 546 663 213 
44 6 422 28 504 369 377 691 
45 7 7 504 44 422 28 691 582 
46 5 704 508 532 709 203 
47 6 12 539 554 416 499 373 
48 7 312 321 210 690 27 119 683 
49 5 191 714 309 486 710 
50 7 173 142 25 96 326 693 439 
51 7 592 146 645 153 583 116 458 
52 6 687 205 632 201 445 362 
53 7 244 507 505 485 374 391 270 
54 6 668 721 199 224 78 670 
55 7 335 621 338 396 395 323 339 
56 7 316 503 699 29 441 189 392 
57 7 530 449 229 132 525 194 258 
58 7 491 267 622 660 202 22 260 
59 7 16 129 727 388 359 209 706 
60 7 680 400 409 10 307 257 515 
61 7 366 574 315 179 42 111 609 
62 6 39 618 148 226 724 613 
63 7 304 548 583 458 591 153 116 
64 7 564 251 412 511 293 18 376 
65 7 100 143 147 239 360 254 130 
66 6 459 225 243 86 608 638 
67 7 589 298 133 550 697 184 224 
68 7 497 235 278 294 330 501 349 
69 7 703 261 526 399 124 241 702 
70 7 653 675 495 585 15 438 646 
71 7 227 453 125 23 284 720 340 
72 7 719 544 145 274 222 2 603 
73 7 579 471 277 218 549 8 695 
74 7 573 726 558 658 157 575 528 
75 7 14 76 552 432 634 656 172 
76 7 648 75 152 432 172 14 634 
77 7 20 237 524 132 258 610 348 
78 7 715 199 669 668 54 721 224 
79 7 672 121 655 381 181 631 308 
80 7 233 26 178 511 376 706 501 
81 7 667 487 698 6 520 211 252 
82 5 709 662 532 629 704 
83 7 176 670 440 379 535 485 721 
84 7 144 636 649 657 4 255 208 
85 7 652 414 713 156 332 568 605 
86 7 638 588 459 66 405 168 225 
87 7 204 660 601 267 661 491 58 
88 7 424 643 357 250 673 43 506 
89 7 635 253 219 510 448 297 272 
90 7 160 21 228 141 408 171 230 
91 7 417 331 281 659 454 159 207 
92 7 708 435 556 99 555 183 347 
93 7 415 477 461 502 279 292 111 
94 7 393 149 327 428 11 384 686 
95 7 685 489 378 522 557 619 382 
96 7 693 345 142 50 187 173 25 
97 7 255 636 649 144 711 84 657 
98 7 694 404 361 722 266 344 19 
99 6 174 198 347 556 183 354 
100 6 143 65 360 394 147 689 
101 7 38 387 375 666 135 514 259 
102 5 413 362 319 725 632 
103 7 117 3 329 651 365 383 427 
104 7 127 462 266 344 586 597 570 
105 7 534 397 674 254 600 624 436 
106 7 302 212 439 299 25 547 173 
107 7 19 223 371 122 185 134 529 
108 7 599 595 242 310 610 237 268 
109 7 313 474 390 444 285 500 260 
110 6 385 408 230 480 166 21 
111 6 477 279 410 292 61 574 
112 7 535 217 498 490 525 194 485 
113 7 475 341 222 318 274 544 150 
114 7 118 216 140 487 520 628 578 
115 4 481 518 184 516 
116 7 458 591 583 153 51 63 592 
117 6 103 3 329 365 309 280 
118 7 114 140 216 520 628 487 578 
119 6 446 683 312 690 27 48 
120 7 631 10 680 429 60 79 41 
121 7 79 381 672 181 655 308 631 
122 7 371 529 223 107 386 19 185 
123 7 370 389 538 426 433 536 190 
124 7 186 261 703 69 399 169 534 
125 7 720 580 23 679 71 617 453 
126 7 295 438 15 712 585 314 463 
127 7 104 266 344 180 462 361 597 
128 7 363 633 330 677 647 328 235 
129 7 59 16 727 388 380 706 359 
130 7 268 147 360 143 423 701 599 
131 7 31 464 661 567 527 30 201 
132 7 194 229 77 498 322 348 217 
133 7 550 67 697 589 298 184 518 
134 7 157 722 107 602 74 726 223 
135 7 450 514 614 38 101 353 387 
136 7 651 427 407 705 307 383 350 
137 7 598 351 286 434 541 262 271 
138 7 689 593 360 143 423 130 576 
139 7 29 503 612 467 406 483 276 
140 7 118 628 114 520 249 578 252 
141 7 620 90 228 160 665 234 447 
142 7 50 96 693 173 25 345 211 
143 7 360 100 65 147 130 689 138 
144 7 657 636 649 84 4 255 97 
145 7 719 72 606 512 2 603 544 
146 7 645 51 153 496 583 342 592 
147 7 239 360 143 65 268 130 310 
148 7 226 613 39 724 419 455 470 
149 7 94 384 686 11 482 393 327 
150 7 318 341 113 671 475 615 361 
151 6 517 442 401 551 396 395 
152 6 531 76 648 398 265 533 
153 7 583 146 458 51 116 591 63 
154 7 350 584 560 437 561 718 383 
155 7 545 285 630 390 391 374 444 
156 7 332 605 652 232 85 568 214 
157 7 602 722 134 344 266 570 74 
158 7 207 325 659 288 159 358 91 
159 7 659 552 91 331 207 417 158 
160 7 228 90 408 141 21 230 717 
161 7 425 324 537 418 334 221 206 
162 6 163 305 688 639 35 240 
163 6 162 565 305 639 420 214 
164 7 306 182 355 221 676 206 418 
165 6 343 590 484 336 291 596 
166 7 480 551 563 523 245 517 33 
167 7 642 572 215 506 219 89 448 
168 7 405 566 493 638 30 169 588 
169 7 200 175 186 692 405 168 527 
170 7 682 392 576 623 303 701 699 
171 7 320 21 607 247 90 594 234 
172 7 432 664 648 634 656 533 509 
173 7 25 50 439 142 106 326 96 
174 6 99 198 347 354 556 282 
175 7 405 169 674 534 168 186 588 
176 7 83 670 440 535 379 283 721 
177 7 192 256 301 608 243 581 374 
178 7 26 644 80 233 501 559 62 
179 7 654 366 542 582 61 315 574 
180 6 250 673 127 357 431 643 
181 5 308 381 121 79 672 
182 7 676 164 221 306 340 571 264 
183 5 555 99 174 92 198 
184 5 518 550 298 481 133 
185 7 19 371 404 107 615 122 223 
186 7 124 692 169 445 200 399 527 
187 7 286 302 452 96 345 693 106 
188 7 406 592 276 612 51 139 483 
189 7 441 316 467 41 503 29 56 
190 7 433 291 426 536 123 590 370 
191 6 486 714 49 259 710 387 
192 7 177 256 581 301 608 243 348 
193 6 617 23 557 720 125 95 
194 7 498 217 132 229 525 490 112 
195 7 5 609 729 42 294 315 278 
196 7 730 483 699 290 469 170 56 
197 6 452 598 286 13 337 137 
198 5 347 174 556 99 354 
199 7 224 78 668 54 715 513 721 
200 7 527 464 567 692 169 30 186 
201 7 205 527 52 692 464 131 200 
202 7 22 248 622 491 549 58 430 
203 7 334 508 46 11 625 537 704 
204 7 87 660 491 267 716 58 661 
205 6 201 52 527 131 687 464 
206 6 418 355 723 306 164 425 
207 7 158 288 659 325 91 476 358 
208 7 4 707 675 521 657 653 640 
209 7 367 328 479 388 16 59 129 
210 6 321 48 690 27 312 119 
211 7 252 520 6 249 667 698 487 
212 6 547 299 106 711 302 411 
213 6 663 431 357 43 543 603 
214 6 420 232 565 332 156 605 
215 5 167 642 219 448 510 
216 7 114 118 140 487 520 667 81 
217 7 525 498 194 112 229 490 132 
218 7 277 549 73 454 275 579 471 
219 6 448 510 89 297 635 253 
220 6 373 562 32 317 335 396 
221 7 182 164 306 676 425 324 161 
222 7 544 274 341 113 72 719 2 
223 7 122 107 371 529 402 19 386 
224 7 199 54 668 78 513 721 298 
225 4 66 459 243 608 
226 7 613 148 419 455 39 470 618 
227 7 71 453 23 125 284 340 676 
228 7 160 90 141 717 408 21 230 
229 7 525 194 217 132 57 498 530 
230 7 408 160 540 228 364 90 385 
231 6 543 43 546 684 643 357 
232 6 605 332 156 214 420 652 
233 7 26 501 677 80 178 633 330 
234 6 665 620 141 171 90 320 
235 7 330 633 497 677 68 501 294 
236 7 644 724 559 148 470 39 178 
237 7 610 242 595 20 77 599 108 
238 7 553 623 258 37 478 524 469 
239 7 147 310 65 143 268 360 108 
240 6 35 472 451 296 688 356 
241 7 460 526 261 69 703 629 82 
242 7 595 599 237 108 610 20 524 
243 7 301 608 256 66 177 225 192 
244 7 507 53 505 374 391 485 270 
245 7 33 563 616 627 166 289 480 
246 3 382 17 522 
247 4 607 320 594 171 
248 7 22 430 622 202 281 260 491 
249 6 252 326 628 520 211 140 
250 6 357 180 643 673 88 431 
251 7 412 564 64 511 293 18 403 
252 6 249 211 520 326 628 140 
253 5 272 635 89 219 297 
254 7 674 65 105 534 239 588 175 
255 7 97 649 636 144 84 657 711 
256 7 301 177 608 243 192 581 374 
257 6 515 409 407 400 60 307 
258 7 238 553 449 20 37 77 524 
259 6 387 101 375 486 666 191 
260 7 500 622 22 430 248 58 281 
261 7 703 526 69 124 241 534 399 
262 6 271 541 714 299 137 351 
263 5 358 604 34 288 476 
264 7 571 340 676 182 221 522 95 
265 4 398 531 289 152 
266 7 344 722 602 157 98 104 694 
267 7 58 660 491 601 204 87 622 
268 7 130 147 360 599 310 143 242 
269 7 647 5 294 729 494 195 330 
270 7 379 505 391 669 440 244 53 
271 6 262 541 714 351 137 299 
272 5 253 635 89 292 410 
273 5 17 280 561 393 94 
274 6 544 222 72 341 719 113 
275 7 454 218 277 331 73 579 549 
276 7 612 406 592 188 139 51 645 
277 7 218 549 73 579 454 471 275 
278 7 294 195 654 68 5 179 497 
279 6 477 292 410 111 93 272 
280 3 329 309 103 
281 7 430 476 34 248 288 22 417 
282 5 354 198 174 347 24 
283 4 516 481 54 721 
284 6 453 71 125 227 679 720 
285 4 630 545 390 155 
286 7 452 598 137 187 197 302 541 
287 2 529 122 
288 7 476 34 604 358 263 281 207 
289 4 627 616 33 398 
290 7 469 478 37 730 196 623 170 
291 7 536 190 426 433 590 165 538 
292 6 279 410 477 111 272 502 
293 7 346 380 376 706 388 511 64 
294 7 278 5 269 195 235 729 68 
295 6 314 126 712 15 463 585 
296 7 35 472 587 356 240 305 451 
297 6 637 510 448 89 635 219 
298 6 589 67 184 133 224 550 
299 6 547 212 302 106 262 271 
300 7 337 577 13 342 429 400 10 
301 7 256 243 608 177 192 66 225 
302 6 299 106 187 212 547 286 
303 7 701 423 576 553 623 682 170 
304 7 548 63 591 698 458 6 583 
305 6 639 296 162 35 472 163 
306 7 164 355 182 221 206 418 676 
307 7 705 407 655 60 672 257 136 
308 5 181 381 121 79 672 
309 3 329 49 280 
310 7 108 599 239 595 147 242 268 
311 7 24 597 104 462 282 586 127 
312 6 48 683 119 690 210 321 
313 7 109 474 500 260 390 444 58 
314 6 295 712 15 585 126 372 
315 7 574 366 609 61 42 461 654 
316 7 56 441 503 189 29 699 41 
317 6 32 562 220 373 728 335 
318 7 150 341 113 671 475 222 274 
319 2 102 413 
320 6 171 607 21 247 594 90 
321 5 210 48 312 690 27 
322 7 348 581 490 132 498 194 610 
323 6 339 338 55 621 696 569 
324 7 161 537 425 334 428 418 327 
325 4 358 158 207 263 
326 6 249 252 628 50 25 173 
327 7 428 393 324 537 334 94 161 
328 7 367 479 209 363 128 388 677 
329 3 280 309 117 
330 7 633 235 677 128 501 497 26 
331 7 417 454 275 91 552 218 277 
332 7 156 605 232 652 85 214 568 
333 3 641 504 7 
334 7 537 203 324 161 428 425 327 
335 7 55 396 621 395 338 373 401 
336 6 590 165 457 343 484 466 
337 7 300 13 342 577 496 197 429 
338 6 323 621 55 339 335 395 
339 6 323 338 55 621 335 696 
340 7 676 264 571 182 227 23 71 
341 7 113 222 318 274 150 544 475 
342 7 13 337 496 300 645 577 146 
343 4 484 165 596 336 
344 7 266 722 602 157 98 104 694 
345 7 693 96 142 187 50 63 173 
346 7 380 293 376 129 388 706 727 
347 5 556 198 174 708 99 
348 7 322 581 610 237 77 132 192 
349 7 691 377 626 542 582 369 28 
350 4 154 437 136 308 
351 7 434 541 137 365 3 271 598 
352 5 389 370 123 538 426 
353 7 514 521 38 614 707 135 640 
354 5 282 198 174 347 99 
355 6 306 164 611 723 206 182 
356 6 587 296 472 35 451 240 
357 7 643 250 88 43 431 424 213 
358 5 263 325 604 288 34 
359 7 727 16 59 129 388 209 346 
360 7 143 147 100 130 65 268 689 
361 7 694 98 150 266 318 404 341 
362 6 632 102 687 413 725 52 
363 7 128 647 479 328 633 367 269 
364 7 717 540 230 228 160 447 408 
365 6 3 434 351 117 103 427 
366 7 61 574 315 179 654 609 42 
367 7 209 328 479 388 706 16 59 
368 6 513 199 224 715 78 474 
369 4 377 28 422 44 
370 6 389 123 538 426 536 352 
371 7 122 223 107 529 19 185 386 
372 7 678 585 712 495 15 314 295 
373 6 220 562 335 499 396 32 
374 7 507 244 391 505 155 53 608 
375 7 666 443 519 101 387 259 38 
376 7 380 293 706 346 388 80 511 
377 6 369 349 691 28 422 44 
378 7 522 95 685 489 382 619 557 
379 7 440 270 505 670 485 83 391 
380 7 346 293 376 388 706 129 59 
381 6 181 121 308 79 672 655 
382 6 522 246 378 95 685 489 
383 7 718 651 136 561 103 560 427 
384 7 482 686 149 9 11 94 584 
385 5 110 408 230 21 90 
386 5 529 122 402 223 371 
387 7 259 101 375 666 38 135 443 
388 7 706 129 59 380 376 16 209 
389 6 370 123 538 352 426 433 
390 6 444 474 285 545 109 155 
391 7 270 505 374 669 244 155 507 
392 7 576 682 170 423 593 303 56 
393 7 94 149 327 428 11 273 384 
394 3 437 308 100 
395 6 401 621 465 55 396 335 
396 6 335 55 395 621 401 373 
397 6 600 436 105 624 534 261 
398 4 531 265 289 152 
399 5 445 703 69 124 413 
400 6 409 60 515 10 680 257 
401 6 395 465 621 396 55 335 
402 5 223 386 122 107 558 
403 4 473 18 412 251 
404 7 615 98 19 185 694 107 361 
405 7 168 175 588 169 638 86 566 
406 7 276 612 139 188 592 483 51 
407 7 307 705 257 427 515 136 60 
408 7 230 160 228 90 21 385 110 
409 6 400 515 257 60 10 680 
410 6 279 292 111 477 272 253 
411 5 439 212 106 711 25 
412 7 251 564 64 403 18 511 473 
413 3 102 362 319 
414 5 85 723 652 713 206 
415 7 461 42 609 93 315 574 700 
416 6 539 554 499 47 12 373 
417 7 91 331 454 275 281 218 430 
418 6 206 425 161 306 537 324 
419 6 455 613 226 470 148 39 
420 6 214 232 565 332 605 156 
421 3 671 475 113 
422 6 28 44 504 369 377 691 
423 7 701 303 576 392 593 682 130 
424 7 88 643 357 506 650 250 673 
425 7 161 324 537 418 206 334 221 
426 7 536 538 370 123 433 291 190 
427 7 407 136 651 257 3 705 365 
428 7 327 324 393 537 334 161 94 
429 7 10 120 577 631 680 400 189 
430 7 248 281 22 622 260 476 202 
431 6 213 663 357 250 43 643 
432 7 634 656 172 76 75 648 14 
433 7 190 123 426 536 291 370 538 
434 6 365 3 351 137 598 117 
435 4 708 92 556 347 
436 6 600 397 624 105 9 437 
437 4 154 394 350 624 
438 6 126 15 585 712 295 70 
439 6 25 411 106 173 326 212 
440 7 379 485 270 505 83 53 535 
441 7 189 41 316 56 503 29 467 
442 2 151 517 
443 7 666 375 519 101 38 387 259 
444 7 474 390 109 545 715 155 313 
445 6 186 399 692 687 52 201 
446 2 683 119 
447 7 717 725 141 228 160 364 620 
448 5 510 219 297 89 635 
449 7 530 37 57 258 478 238 469 
450 7 135 614 514 353 38 101 387 
451 6 240 472 35 356 688 296 
452 6 197 286 598 137 187 13 
453 7 71 227 284 125 720 23 580 
454 7 275 218 277 331 417 73 549 
455 6 419 470 613 226 148 724 
456 7 61 366 111 572 179 410 574 
457 4 466 336 590 165 
458 7 116 591 583 153 63 51 304 
459 6 86 66 638 588 225 243 
460 7 241 629 526 9 82 482 600 
461 7 42 415 609 315 574 93 61 
462 6 586 570 597 602 104 658 
463 4 295 587 356 126 
464 7 567 527 200 30 131 31 692 
465 5 395 401 621 338 55 
466 4 457 336 590 165 
467 7 29 503 189 139 316 441 56 
468 5 36 569 696 465 616 
469 7 290 478 37 623 238 730 196 
470 5 455 419 148 613 226 
471 7 579 73 8 549 277 218 695 
472 7 35 240 296 451 356 688 587 
473 4 403 18 412 251 
474 7 444 390 109 313 545 715 513 
475 7 113 671 318 2 421 341 150 
476 7 34 288 281 604 430 263 91 
477 6 111 279 292 410 93 61 
478 7 37 469 290 623 238 449 258 
479 7 328 367 363 209 128 647 16 
480 6 166 551 523 563 110 245 
481 4 516 115 518 184 
482 7 384 686 149 9 584 11 94 
483 7 196 699 730 139 406 29 503 
484 4 343 165 596 336 
485 7 440 490 53 535 244 507 379 
486 5 191 710 259 49 387 
487 7 667 81 520 211 6 216 252 
488 5 601 493 660 31 566 
489 6 685 95 619 557 378 522 
490 7 498 485 194 112 217 322 535 
491 7 58 267 202 622 22 204 660 
492 2 446 40 
493 5 566 30 488 168 31 
494 7 700 729 647 269 5 195 294 
495 7 646 678 372 585 70 15 712 
496 7 13 342 146 645 337 153 300 
497 7 68 235 501 330 278 26 294 
498 7 194 490 217 112 525 229 132 
499 6 539 416 554 373 47 12 
500 7 260 622 22 430 313 248 34 
501 7 26 233 677 235 330 633 497 
502 3 93 292 279 
503 7 29 316 467 56 189 139 699 
504 6 44 422 28 369 45 641 
505 7 244 507 53 270 391 379 374 
506 7 673 642 572 167 424 88 215 
507 7 244 53 505 374 391 485 270 
508 6 46 704 532 203 11 629 
509 3 533 664 172 
510 5 448 297 219 89 635 
511 7 64 559 80 376 564 293 380 
512 7 603 606 145 72 719 544 274 
513 6 368 199 715 224 78 474 
514 7 353 38 135 614 521 101 707 
515 6 257 409 400 60 407 307 
516 4 481 283 115 184 
517 6 151 442 551 523 563 166 
518 5 184 481 550 115 133 
519 7 443 666 375 38 101 640 353 
520 7 252 211 487 249 667 140 6 
521 7 707 353 514 614 640 208 38 
522 6 378 382 95 685 489 619 
523 3 551 480 166 
524 7 20 553 242 77 237 258 238 
525 7 229 217 194 498 112 132 57 
526 7 261 69 241 703 460 124 399 
527 7 464 200 692 567 201 131 30 
528 3 573 658 74 
529 7 122 371 223 386 287 185 107 
530 7 449 57 258 37 132 229 77 
531 4 398 265 152 648 
532 7 46 508 704 629 11 709 82 
533 4 509 664 648 172 
534 7 105 674 175 397 254 124 261 
535 7 112 485 490 217 498 440 83 
536 7 426 538 291 433 370 123 190 
537 7 324 161 425 334 418 428 327 
538 5 426 370 536 123 389 
539 6 416 554 499 47 12 373 
540 6 364 230 408 717 228 160 
541 6 271 262 351 714 137 434 
542 7 582 626 691 349 179 654 377 
543 7 43 231 546 663 643 213 357 
544 7 274 222 72 341 719 113 2 
545 6 155 285 390 630 444 474 
546 6 684 231 650 43 543 643 
547 6 212 299 106 711 302 262 
548 7 304 63 698 591 6 458 116 
549 7 277 218 73 471 579 202 454 
550 7 133 67 697 184 589 518 298 
551 7 523 166 480 517 442 151 563 
552 7 14 331 159 75 275 454 659 
553 7 238 258 623 524 20 303 701 
554 6 539 416 499 47 12 373 
555 5 183 92 99 174 708 
556 4 347 198 708 174 
557 6 619 489 685 95 193 378 
558 3 575 726 74 
559 7 644 236 511 724 178 80 18 
560 7 584 561 154 718 686 383 482 
561 7 560 584 718 383 154 273 686 
562 6 317 220 32 373 728 335 
563 7 245 166 33 480 616 517 551 
564 7 64 251 412 511 293 346 18 
565 6 163 214 420 162 639 232 
566 7 493 30 168 567 31 464 200 
567 7 464 30 200 527 31 566 131 
568 7 713 652 611 85 156 723 332 
569 6 696 468 36 323 338 465 
570 6 586 462 602 658 597 157 
571 7 264 340 676 182 221 522 95 
572 7 642 167 506 456 424 215 673 
573 6 658 74 528 570 586 157 
574 7 315 61 366 42 609 461 415 
575 3 558 726 74 
576 7 392 682 423 170 303 701 593 
577 7 300 337 429 342 13 10 400 
578 2 628 140 
579 7 73 471 8 277 218 549 695 
580 5 679 720 125 23 617 
581 7 348 322 192 610 177 237 595 
582 7 542 626 691 179 349 654 377 
583 7 153 458 116 146 591 51 63 
584 7 560 561 154 9 686 482 384 
585 7 15 712 678 372 314 126 295 
586 6 462 570 602 597 658 104 
587 6 356 296 472 35 240 463 
588 7 86 638 459 405 168 66 674 
589 7 67 298 133 550 697 224 184 
590 7 165 336 291 190 457 466 343 
591 7 458 116 583 63 153 304 548 
592 7 51 276 188 406 146 612 645 
593 7 138 689 576 392 41 423 441 
594 4 607 247 320 171 
595 7 242 108 610 599 237 310 581 
596 3 484 343 165 
597 6 24 462 311 586 570 104 
598 6 137 197 286 452 434 351 
599 7 108 242 595 310 610 237 268 
600 6 436 397 624 105 9 241 
601 7 660 488 267 87 204 58 31 
602 7 157 570 344 722 266 586 462 
603 7 512 72 145 274 544 719 213 
604 7 34 476 288 263 358 281 500 
605 7 332 156 232 652 85 214 568 
606 7 145 512 27 719 603 72 690 
607 5 320 594 171 247 21 
608 7 243 301 256 177 192 225 66 
609 7 42 461 315 415 574 195 61 
610 7 237 595 242 108 599 348 581 
611 7 355 713 723 568 164 306 206 
612 7 276 406 139 645 592 467 188 
613 7 226 148 419 455 39 470 618 
614 7 514 353 135 450 521 707 38 
615 7 404 185 150 694 19 98 318 
616 5 627 289 33 245 563 
617 6 193 23 720 125 557 580 
618 4 62 39 226 613 
619 5 557 489 685 95 378 
620 7 141 665 234 90 447 228 160 
621 7 395 55 338 465 335 401 396 
622 7 22 248 202 260 430 491 58 
623 7 238 553 170 478 37 303 682 
624 6 436 397 600 437 105 394 
625 6 334 203 418 537 425 161 
626 7 542 582 691 349 377 179 654 
627 4 616 289 33 245 
628 5 578 249 140 326 252 
629 7 532 460 11 82 46 508 704 
630 3 285 545 155 
631 7 120 680 10 79 655 60 121 
632 6 687 362 52 102 413 725 
633 7 330 677 235 128 501 233 26 
634 6 656 432 172 8 14 75 
635 5 89 253 272 297 510 
636 7 649 144 84 255 97 657 4 
637 4 297 510 635 89 
638 6 86 588 459 405 168 66 
639 5 305 162 296 163 565 
640 7 353 521 707 519 38 514 443 
641 3 333 504 44 
642 7 167 572 506 215 219 673 448 
643 7 357 88 43 250 424 543 431 
644 7 236 724 559 39 178 148 62 
645 7 146 342 496 51 612 592 13 
646 7 495 675 678 70 653 4 372 
647 7 269 128 363 494 5 633 294 
648 6 533 172 76 664 509 152 
649 7 636 144 84 255 97 657 4 
650 7 684 546 7 424 88 43 231 
651 7 136 383 427 103 718 407 3 
652 7 85 713 156 568 332 605 414 
653 7 675 70 208 4 640 707 521 
654 7 179 366 315 542 582 278 61 
655 7 672 79 307 705 121 60 680 
656 6 634 432 172 8 14 75 
657 7 144 84 4 208 636 649 675 
658 6 573 570 586 528 74 462 
659 7 159 207 91 158 331 417 552 
660 7 267 601 87 204 58 491 488 
661 6 131 87 31 204 716 464 
662 3 702 709 82 
663 6 213 431 543 43 357 603 
664 4 509 533 172 648 
665 6 234 620 141 171 90 52 
666 7 375 443 519 101 387 259 38 
667 7 81 487 6 698 520 211 252 
668 7 721 54 199 78 224 670 715 
669 7 715 78 270 391 199 379 444 
670 7 83 721 379 668 54 176 440 
671 7 475 318 421 150 113 341 615 
672 7 655 79 121 381 307 181 705 
673 7 250 506 180 88 424 357 643 
674 7 254 534 175 105 588 405 86 
675 7 4 653 208 70 646 657 707 
676 7 182 340 571 264 164 221 306 
677 7 633 330 501 233 235 26 128 
678 7 372 585 495 712 15 314 646 
679 4 580 720 125 284 
680 7 60 10 631 120 400 655 409 
681 4 728 12 562 47 
682 7 170 392 576 303 623 56 701 
683 3 446 119 312 
684 5 546 650 231 7 43 
685 7 95 489 378 522 619 557 382 
686 7 482 384 149 9 584 94 11 
687 6 632 52 362 445 205 102 
688 3 240 35 472 
689 6 138 593 360 143 308 394 
690 7 27 210 48 119 312 321 606 
691 7 626 349 377 542 582 28 422 
692 7 527 200 186 169 201 464 445 
693 7 96 345 142 50 187 173 25 
694 7 98 361 404 266 344 722 615 
695 7 716 8 471 579 73 549 277 
696 6 569 468 36 323 338 465 
697 5 133 67 550 589 298 
698 7 6 667 548 81 211 304 487 
699 7 56 503 29 196 316 483 730 
700 7 729 494 415 461 42 609 5 
701 7 303 423 576 553 392 682 170 
702 2 662 82 
703 7 69 261 526 124 399 241 186 
704 4 46 508 532 709 
705 7 307 407 655 672 136 60 257 
706 7 388 376 380 129 209 293 346 
707 7 521 353 208 640 514 614 38 
708 5 435 92 556 347 198 
709 4 82 662 704 46 
710 4 486 191 49 259 
711 7 212 547 97 411 450 614 299 
712 7 585 15 314 678 295 372 126 
713 7 568 652 611 85 723 156 355 
714 7 191 49 541 271 262 486 351 
715 7 78 669 199 513 444 668 368 
716 7 695 471 549 73 579 204 8 
717 7 364 447 228 160 725 540 141 
718 7 383 561 651 560 154 136 584 
719 7 72 145 544 2 274 222 512 
720 7 125 580 679 23 617 193 71 
721 6 668 54 670 199 78 224 
722 7 344 266 157 602 98 134 694 
723 6 355 206 611 713 414 85 
724 7 236 644 148 39 470 226 613 
725 6 447 102 362 717 632 413 
726 4 558 575 74 134 
727 7 59 16 129 359 388 346 380 
728 6 681 562 317 12 220 32 
729 7 5 195 700 494 609 269 42 
730 7 196 699 290 483 469 170 682 
DEPOT_SECTION
   1
   -1
EOF
