NAME :  X-n837-kX-w334-c9.cctp
COMMENT : 	Adapted by Maziero, Usberti and Cavellucci from the Uchoa, Pecin, Pessoa, Poggi, Subramanian, and Vidal (2013)
TYPE :  CCTP
DIMENSION :    793
EDGE_WEIGHT_TYPE : 	EUC_2D	
CAPACITY : 	44
VERTICES_WITHIN_COVERAGE :  9
VERTICES_WITH_DEMAND : 	334
NODE_COORD_SECTION
1 940 231
2 721 848
3 618 44
4 993 145
5 636 512
6 274 496
7 245 945
8 449 812
9 29 650
10 399 8
11 548 19
12 769 717
13 221 850
14 980 233
15 477 922
16 498 720
17 136 832
18 351 663
19 58 67
20 889 569
21 28 334
22 804 928
23 900 138
24 393 403
25 982 609
26 79 299
27 684 582
28 169 252
29 405 925
30 875 191
31 674 112
32 576 537
33 539 63
34 338 657
35 210 209
36 676 568
37 949 826
38 572 890
39 210 615
40 737 46
41 30 527
42 131 724
43 671 842
44 727 566
45 507 497
46 524 134
47 167 665
48 819 108
49 929 582
50 713 738
51 352 626
52 887 547
53 176 645
54 611 289
55 457 532
56 11 147
57 958 60
58 587 187
59 790 956
60 974 63
61 306 225
62 961 969
63 238 736
64 758 840
65 88 44
66 507 811
67 768 476
68 51 914
69 494 445
70 953 33
71 922 45
72 748 111
73 544 867
74 477 596
75 322 79
76 439 150
77 586 764
78 214 599
79 168 480
80 925 138
81 797 107
82 751 783
83 738 913
84 703 73
85 681 886
86 627 27
87 887 310
88 478 345
89 571 600
90 834 858
91 549 370
92 657 233
93 126 769
94 317 934
95 237 55
96 851 409
97 838 426
98 477 559
99 542 94
100 370 432
101 520 621
102 666 178
103 631 484
104 733 255
105 820 918
106 687 877
107 752 983
108 157 720
109 709 898
110 300 878
111 728 617
112 66 59
113 991 657
114 717 47
115 463 177
116 586 397
117 792 307
118 100 392
119 438 722
120 43 247
121 71 476
122 69 560
123 211 73
124 471 14
125 115 806
126 194 337
127 921 320
128 104 495
129 36 456
130 500 152
131 782 316
132 881 374
133 277 601
134 962 575
135 588 181
136 941 728
137 108 931
138 11 814
139 209 800
140 129 525
141 126 149
142 31 219
143 97 324
144 495 122
145 759 480
146 859 782
147 780 669
148 786 769
149 759 159
150 282 633
151 361 17
152 957 103
153 711 939
154 544 544
155 27 318
156 665 656
157 523 586
158 842 429
159 539 783
160 769 347
161 937 386
162 824 841
163 738 391
164 833 988
165 16 637
166 91 472
167 41 388
168 623 780
169 660 155
170 700 658
171 946 783
172 607 815
173 87 771
174 658 874
175 527 853
176 459 577
177 352 829
178 427 235
179 937 639
180 554 438
181 833 692
182 421 999
183 908 447
184 469 163
185 737 238
186 509 61
187 246 352
188 488 408
189 600 359
190 510 460
191 342 691
192 95 216
193 787 465
194 700 873
195 659 568
196 478 525
197 988 980
198 303 119
199 241 353
200 28 661
201 724 842
202 2 660
203 210 180
204 840 841
205 843 9
206 430 92
207 265 453
208 209 673
209 20 952
210 673 659
211 185 335
212 138 655
213 263 155
214 769 741
215 325 260
216 831 678
217 401 625
218 212 360
219 118 426
220 192 520
221 596 376
222 449 679
223 579 295
224 333 352
225 837 944
226 377 500
227 797 97
228 65 235
229 440 877
230 849 769
231 439 326
232 407 621
233 550 241
234 169 68
235 253 243
236 76 852
237 642 116
238 598 124
239 564 374
240 997 660
241 14 98
242 845 303
243 774 9
244 791 671
245 299 800
246 575 109
247 865 708
248 290 897
249 953 348
250 906 692
251 895 790
252 25 242
253 761 886
254 909 336
255 501 846
256 731 4
257 337 71
258 106 973
259 400 229
260 846 368
261 623 580
262 978 669
263 884 559
264 10 910
265 390 602
266 451 134
267 324 221
268 569 98
269 735 341
270 411 220
271 672 867
272 69 790
273 584 520
274 193 416
275 954 912
276 761 734
277 192 875
278 88 353
279 777 38
280 98 68
281 642 658
282 838 305
283 824 694
284 238 825
285 344 138
286 137 683
287 357 593
288 541 423
289 537 99
290 137 539
291 719 213
292 68 173
293 788 339
294 939 69
295 826 300
296 86 779
297 492 174
298 96 108
299 674 364
300 566 830
301 371 935
302 119 629
303 840 180
304 678 310
305 979 466
306 970 249
307 975 291
308 298 94
309 192 630
310 560 724
311 310 503
312 506 445
313 720 806
314 259 450
315 156 388
316 81 518
317 597 384
318 388 967
319 399 787
320 11 859
321 688 276
322 721 451
323 3 300
324 983 902
325 184 404
326 984 221
327 514 801
328 887 476
329 106 208
330 356 238
331 552 923
332 318 297
333 803 145
334 974 602
335 316 566
336 73 473
337 448 186
338 422 51
339 86 398
340 653 3
341 548 316
342 239 470
343 717 351
344 762 276
345 434 39
346 420 378
347 141 122
348 805 572
349 769 874
350 909 440
351 875 676
352 393 561
353 38 852
354 105 958
355 504 740
356 840 804
357 62 24
358 360 375
359 199 310
360 661 252
361 484 955
362 481 777
363 208 145
364 74 749
365 277 225
366 223 388
367 353 272
368 504 527
369 242 931
370 801 74
371 538 483
372 510 183
373 377 842
374 244 834
375 115 811
376 37 611
377 570 338
378 30 147
379 658 235
380 109 856
381 950 351
382 34 512
383 937 779
384 840 77
385 541 308
386 470 783
387 890 127
388 672 450
389 321 779
390 132 77
391 658 358
392 875 663
393 719 972
394 893 283
395 86 437
396 45 423
397 119 237
398 199 550
399 221 723
400 613 950
401 357 566
402 582 795
403 815 464
404 329 481
405 223 90
406 144 199
407 819 300
408 778 769
409 960 581
410 891 760
411 869 582
412 762 952
413 129 544
414 891 765
415 341 202
416 279 754
417 152 677
418 262 932
419 114 684
420 563 354
421 128 42
422 527 584
423 322 73
424 562 370
425 392 609
426 402 184
427 407 91
428 269 94
429 736 268
430 598 496
431 292 92
432 108 661
433 433 748
434 331 889
435 240 788
436 536 312
437 341 127
438 258 809
439 519 923
440 326 931
441 391 274
442 117 800
443 353 801
444 202 115
445 323 190
446 44 588
447 326 102
448 446 362
449 469 593
450 117 93
451 764 469
452 595 304
453 511 582
454 552 544
455 267 814
456 82 52
457 505 535
458 232 30
459 234 71
460 339 189
461 296 920
462 39 226
463 348 79
464 513 307
465 528 254
466 333 16
467 382 971
468 532 444
469 451 579
470 380 524
471 64 69
472 95 739
473 483 514
474 750 328
475 497 64
476 286 695
477 248 949
478 375 378
479 465 221
480 665 270
481 366 0
482 254 885
483 237 52
484 573 528
485 355 35
486 326 743
487 147 77
488 120 742
489 542 619
490 352 892
491 366 80
492 91 80
493 538 87
494 902 274
495 654 479
496 313 817
497 106 673
498 195 998
499 115 52
500 364 134
501 274 243
502 174 77
503 213 892
504 128 133
505 449 314
506 556 888
507 321 786
508 600 669
509 324 50
510 342 957
511 286 100
512 430 128
513 207 933
514 468 125
515 175 709
516 118 633
517 162 859
518 51 47
519 53 761
520 134 680
521 442 125
522 616 462
523 444 691
524 40 840
525 464 616
526 127 21
527 285 942
528 79 85
529 164 732
530 802 300
531 601 607
532 310 162
533 340 363
534 133 689
535 414 154
536 77 257
537 413 193
538 964 400
539 410 533
540 461 585
541 134 80
542 298 981
543 410 716
544 181 164
545 150 224
546 446 55
547 241 697
548 395 26
549 441 90
550 451 196
551 136 5
552 270 851
553 507 75
554 398 622
555 352 730
556 305 69
557 322 743
558 349 122
559 387 251
560 105 616
561 355 120
562 751 566
563 249 494
564 209 637
565 345 960
566 413 673
567 130 914
568 274 911
569 780 402
570 140 61
571 482 279
572 246 922
573 282 106
574 245 939
575 484 170
576 542 595
577 331 165
578 534 437
579 139 685
580 780 618
581 689 306
582 22 4
583 436 370
584 171 660
585 764 567
586 594 247
587 255 840
588 495 395
589 579 590
590 86 560
591 378 926
592 114 692
593 540 352
594 249 45
595 601 470
596 723 669
597 457 108
598 77 759
599 289 292
600 136 898
601 213 165
602 455 745
603 278 80
604 642 706
605 608 601
606 556 353
607 515 475
608 263 868
609 186 643
610 443 30
611 246 21
612 634 512
613 655 385
614 144 764
615 693 342
616 460 151
617 555 359
618 327 83
619 345 249
620 115 82
621 530 192
622 114 674
623 213 657
624 597 751
625 277 98
626 518 599
627 414 97
628 324 43
629 102 914
630 603 302
631 480 125
632 189 49
633 561 541
634 424 174
635 542 198
636 276 191
637 263 655
638 468 282
639 199 7
640 336 851
641 59 564
642 521 545
643 516 627
644 554 621
645 313 731
646 300 98
647 412 189
648 242 77
649 201 388
650 371 154
651 503 99
652 384 327
653 512 898
654 278 136
655 375 11
656 339 132
657 318 181
658 482 548
659 137 621
660 67 799
661 620 405
662 45 758
663 155 793
664 249 50
665 205 733
666 559 485
667 554 130
668 599 693
669 365 919
670 544 449
671 297 100
672 355 64
673 38 710
674 473 164
675 34 929
676 150 787
677 543 575
678 178 253
679 690 409
680 55 99
681 242 68
682 230 108
683 112 800
684 195 119
685 519 123
686 255 885
687 346 372
688 55 79
689 470 430
690 109 474
691 121 716
692 46 87
693 276 162
694 388 31
695 627 292
696 105 831
697 196 879
698 136 70
699 70 101
700 462 77
701 182 429
702 644 337
703 461 727
704 611 551
705 250 928
706 330 168
707 605 605
708 116 708
709 257 883
710 593 306
711 335 249
712 113 146
713 631 430
714 251 203
715 349 223
716 348 93
717 549 148
718 99 354
719 65 569
720 446 265
721 218 903
722 174 66
723 571 482
724 599 697
725 546 563
726 197 184
727 316 899
728 603 611
729 792 373
730 182 925
731 240 583
732 142 783
733 684 693
734 269 748
735 646 519
736 268 693
737 213 33
738 111 771
739 61 608
740 658 591
741 370 288
742 312 448
743 210 48
744 679 342
745 180 107
746 539 169
747 18 18
748 248 946
749 565 83
750 198 787
751 518 10
752 71 769
753 554 356
754 64 665
755 301 987
756 219 644
757 637 463
758 415 133
759 190 59
760 301 863
761 747 120
762 274 803
763 422 236
764 469 369
765 591 776
766 657 311
767 375 17
768 496 587
769 332 242
770 571 590
771 236 921
772 554 485
773 439 545
774 114 190
775 324 21
776 656 228
777 526 747
778 340 132
779 202 580
780 238 966
781 513 551
782 163 299
783 141 898
784 306 117
785 264 956
786 575 460
787 60 249
788 415 82
789 667 557
790 266 960
791 567 423
792 348 955
793 345 144
DEMAND_SECTION
2 7
3 9
4 6
5 7
6 6
7 8
8 9
9 5
10 8
11 10
12 7
13 5
14 7
15 10
16 6
17 5
18 5
19 7
20 6
21 10
22 8
23 10
24 9
25 6
26 10
27 10
28 10
29 10
30 5
31 7
32 8
33 9
34 5
35 7
36 10
37 9
38 6
39 7
40 6
41 7
42 7
43 9
44 6
45 8
46 6
47 5
48 7
49 6
50 7
51 6
52 10
53 6
54 7
55 6
56 7
57 5
58 6
59 9
60 7
61 7
62 8
63 9
64 10
65 10
66 8
67 8
68 5
69 9
70 9
71 10
72 9
73 7
74 10
75 5
76 5
77 10
78 8
79 8
80 10
81 6
82 6
83 8
84 8
85 5
86 9
87 7
88 8
89 6
90 6
91 6
92 9
93 7
94 10
95 10
96 10
97 10
98 7
99 6
100 8
101 6
102 8
103 8
104 10
105 10
106 7
107 7
108 9
109 7
110 10
111 7
112 5
113 9
114 5
115 5
116 9
117 8
118 7
119 9
120 5
121 5
122 8
123 7
124 9
125 10
126 10
127 6
128 8
129 5
130 10
131 10
132 10
133 7
134 9
135 8
136 7
137 6
138 7
139 9
140 9
141 10
142 8
143 6
144 10
145 6
146 7
147 8
148 5
149 9
150 6
151 9
152 7
153 10
154 8
155 10
156 5
157 10
158 8
159 5
160 10
161 10
162 8
163 7
164 8
165 7
166 5
167 6
168 10
169 6
170 6
171 10
172 10
173 8
174 6
175 6
176 9
177 5
178 7
179 10
180 6
181 8
182 6
183 8
184 7
185 8
186 8
187 8
188 5
189 8
190 9
191 8
192 7
193 5
194 8
195 9
196 8
197 5
198 8
199 10
200 5
201 5
202 6
203 8
204 9
205 6
206 9
207 7
208 8
209 5
210 9
211 10
212 10
213 6
214 7
215 7
216 8
217 8
218 5
219 5
220 9
221 10
222 6
223 6
224 5
225 10
226 9
227 8
228 7
229 7
230 10
231 9
232 9
233 8
234 5
235 7
236 10
237 5
238 6
239 7
240 9
241 7
242 9
243 5
244 9
245 8
246 7
247 8
248 9
249 7
250 7
251 7
252 9
253 9
254 5
255 5
256 5
257 5
258 5
259 8
260 9
261 8
262 7
263 5
264 5
265 5
266 9
267 7
268 5
269 5
270 7
271 7
272 7
273 5
274 9
275 8
276 7
277 9
278 7
279 7
280 6
281 7
282 5
283 5
284 7
285 6
286 6
287 8
288 7
289 5
290 6
291 8
292 6
293 7
294 8
295 6
296 6
297 5
298 5
299 6
300 5
301 6
302 7
303 8
304 7
305 5
306 5
307 10
308 8
309 9
310 5
311 6
312 6
313 7
314 6
315 10
316 8
317 8
318 7
319 10
320 8
321 7
322 8
323 7
324 7
325 6
326 8
327 8
328 8
329 6
330 5
331 8
332 6
333 8
334 10
335 5
COVERAGE_SECTION
2 9 201 194 64 313 106 43 109 271 85 
3 9 86 340 749 268 11 237 246 33 238 
4 9 152 80 326 60 14 57 23 294 387 
5 9 612 735 103 495 430 704 757 273 522 
6 9 563 311 207 342 314 404 742 335 220 
7 9 748 477 574 369 705 418 780 785 572 
8 9 386 362 319 66 255 229 327 433 602 
9 8 200 165 202 754 376 739 673 446 
10 9 548 655 694 767 481 151 345 338 610 
11 9 751 33 186 749 475 493 553 3 99 
12 9 276 214 147 244 408 148 50 283 596 
13 9 374 284 587 277 697 503 608 482 552 
14 9 326 306 307 494 4 394 127 80 30 
15 9 361 439 653 229 29 331 255 175 506 
16 9 355 703 777 602 362 119 523 310 222 
17 9 375 696 125 380 442 517 683 663 676 
18 9 34 191 51 554 217 566 555 425 232 
19 9 471 112 688 518 692 456 528 680 492 
20 9 263 52 411 49 409 134 348 179 334 
21 9 155 323 167 26 278 143 718 339 120 
22 9 105 59 225 412 253 349 164 83 90 
23 9 387 80 30 152 303 294 48 384 4 
24 9 478 100 346 358 583 687 533 448 652 
25 9 334 409 134 113 240 179 49 262 20 
26 9 143 536 787 155 278 718 21 120 228 
27 9 36 740 195 789 44 111 261 562 735 
28 9 678 545 782 397 35 406 359 726 329 
29 9 591 301 669 318 467 229 490 792 565 
30 9 303 23 387 80 333 494 394 48 306 
31 9 237 169 84 102 761 72 238 114 3 
32 9 484 633 273 454 154 704 725 430 677 
33 9 493 186 99 749 553 289 475 11 268 
34 9 18 51 191 150 476 287 554 217 425 
35 9 726 203 714 601 544 678 235 28 545 
36 9 789 27 195 740 44 261 735 704 5 
37 9 171 383 251 324 414 275 410 136 146 
38 9 506 73 331 175 300 653 439 400 172 
39 9 78 564 309 756 779 609 623 731 53 
40 9 114 279 256 84 243 72 370 761 227 
41 9 382 641 122 316 719 446 121 590 336 
42 8 691 488 708 108 529 534 592 472 
43 9 271 174 106 194 85 2 201 313 109 
44 9 562 585 27 36 111 789 195 740 580 
45 9 607 473 368 371 190 457 196 772 642 
46 9 685 717 130 667 144 289 746 651 99 
47 9 584 417 53 609 212 579 286 520 534 
48 9 81 227 384 370 333 72 387 761 303 
49 9 409 134 20 334 263 52 179 25 411 
50 9 276 733 214 82 12 313 596 408 604 
51 9 287 34 18 425 265 554 217 232 401 
52 9 263 20 411 49 328 134 409 348 183 
53 9 609 584 47 309 564 212 623 417 208 
54 9 630 695 452 710 223 586 766 480 702 
55 9 196 773 658 473 98 176 368 469 539 
56 9 378 241 292 680 692 142 699 688 462 
57 9 60 294 70 71 152 80 4 387 23 
58 9 135 635 746 717 621 586 238 233 667 
59 9 412 22 107 105 225 164 83 393 253 
60 9 57 294 70 152 71 4 80 23 387 
61 9 267 365 769 501 711 445 215 415 715 
62 9 197 275 324 225 164 37 105 22 90 
63 9 399 665 734 547 416 435 736 476 750 
64 9 201 349 2 253 313 82 162 194 408 
65 9 456 280 112 499 357 471 492 518 19 
66 9 327 255 159 362 386 175 8 300 73 
67 9 451 145 193 403 322 569 97 158 163 
68 9 675 264 209 629 137 353 236 320 354 
69 9 312 190 689 188 607 468 578 588 670 
70 9 57 71 60 294 152 80 205 387 23 
71 9 294 70 57 60 152 205 384 387 80 
72 9 761 81 149 227 84 333 370 40 48 
73 9 175 506 38 300 653 255 331 439 66 
74 9 449 540 768 525 176 469 98 453 626 
75 9 423 618 257 556 447 463 308 509 646 
76 9 266 616 512 521 535 634 758 184 115 
77 9 765 624 402 168 310 159 172 777 724 
78 9 39 779 731 309 564 756 398 609 623 
79 9 220 701 690 140 128 290 274 342 219 
80 9 23 387 152 4 294 30 57 60 71 
81 9 227 48 370 333 72 384 761 149 279 
82 9 408 148 313 214 276 64 50 201 12 
83 9 109 253 153 412 349 194 106 393 85 
84 9 114 40 31 72 761 256 237 279 340 
85 9 106 271 194 174 109 43 2 153 201 
86 9 3 340 11 749 84 237 114 268 33 
87 9 394 254 127 494 242 282 295 132 407 
88 9 764 448 505 231 583 464 588 593 188 
89 9 770 589 644 576 531 707 728 489 605 
90 9 204 162 356 105 349 22 64 253 146 
91 8 424 617 753 239 606 593 420 377 
92 9 379 776 360 480 321 102 291 586 695 
93 9 738 614 732 488 676 442 683 663 125 
94 9 440 461 527 510 727 792 565 248 434 
95 9 483 664 681 459 594 648 458 743 123 
96 9 97 158 260 132 350 403 183 729 569 
97 9 158 96 403 260 569 193 132 328 729 
98 9 658 176 540 469 55 196 768 449 74 
99 9 289 493 749 268 33 246 685 667 651 
100 9 24 478 358 742 404 687 226 346 533 
101 9 643 489 626 576 644 157 422 453 768 
102 9 169 776 92 379 291 31 237 360 135 
103 9 757 495 522 5 612 595 430 735 388 
104 9 429 185 344 291 321 581 480 360 474 
105 9 22 225 59 90 253 349 412 164 162 
106 9 85 194 271 174 109 43 2 201 83 
107 9 412 393 59 153 83 22 164 105 225 
108 9 529 515 42 691 534 579 286 417 488 
109 9 194 85 106 83 153 271 2 253 174 
110 9 760 248 727 434 608 552 461 568 709 
111 9 170 44 580 596 27 562 585 210 36 
112 9 471 19 456 518 688 65 528 280 492 
113 9 240 262 25 179 334 409 134 136 250 
114 9 40 84 256 279 243 72 31 340 761 
115 9 184 674 337 550 575 616 297 76 634 
116 9 317 221 239 791 661 424 189 91 420 
117 9 530 131 407 293 295 344 160 282 474 
118 9 339 219 718 278 395 315 167 396 143 
119 9 703 433 543 602 523 222 566 16 355 
120 9 787 252 462 228 142 536 192 26 323 
121 9 336 166 128 690 129 395 316 382 396 
122 9 719 641 590 446 316 739 41 382 376 
123 9 405 459 743 759 648 681 95 483 632 
124 9 610 345 751 546 475 186 338 700 553 
125 9 375 442 683 696 17 732 738 93 296 
126 9 211 359 218 782 199 649 187 366 315 
127 9 254 87 381 249 394 494 307 132 161 
128 9 690 166 316 121 336 140 290 413 395 
129 9 396 121 336 395 382 166 167 41 690 
130 9 297 575 46 144 674 184 372 631 685 
131 9 117 293 530 160 474 407 344 295 269 
132 9 260 96 254 161 87 97 127 158 350 
133 9 150 731 335 637 78 39 756 564 779 
134 9 409 334 49 25 179 20 52 263 113 
135 9 58 635 746 717 238 621 667 586 233 
136 9 250 383 171 410 414 262 251 247 351 
137 9 629 354 567 258 600 783 68 675 730 
138 9 524 320 353 660 272 662 519 236 752 
139 9 750 435 284 374 438 13 663 455 676 
140 9 290 413 128 316 590 690 79 220 166 
141 9 712 504 347 774 298 406 450 544 329 
142 9 462 252 120 228 787 292 536 192 378 
143 9 278 718 26 118 21 155 536 782 339 
144 9 631 651 685 514 130 46 597 616 266 
145 9 67 451 193 322 403 569 562 585 163 
146 9 230 356 414 251 410 204 162 148 247 
147 9 244 12 283 580 216 596 181 276 214 
148 9 408 214 82 276 12 230 356 146 64 
149 9 761 333 72 81 291 227 48 185 303 
150 9 637 133 34 476 736 756 731 51 564 
151 9 767 655 481 485 466 694 548 775 10 
152 9 294 57 60 80 4 23 71 70 387 
153 9 393 83 109 412 107 85 106 194 253 
154 9 454 633 725 642 677 781 32 484 457 
155 9 21 323 26 143 278 167 120 252 787 
156 9 210 281 170 733 604 596 740 508 111 
157 9 422 453 626 576 677 768 725 101 781 
158 9 97 96 403 260 328 193 132 183 350 
159 9 327 777 66 402 77 765 300 355 362 
160 9 293 474 131 269 729 117 343 163 569 
161 9 538 381 249 132 254 350 127 183 96 
162 9 204 90 356 349 64 146 230 105 253 
163 9 569 343 269 679 160 729 322 474 615 
164 9 225 59 22 105 412 107 393 83 253 
165 8 9 200 202 376 739 446 754 673 
166 9 336 690 121 128 395 316 219 129 140 
167 9 396 339 21 118 278 395 718 129 155 
168 9 765 172 624 77 402 300 604 43 159 
169 9 102 237 31 238 776 135 92 58 379 
170 9 596 210 156 733 111 281 604 27 740 
171 9 383 37 251 136 414 410 146 230 250 
172 9 402 168 765 300 77 624 43 159 174 
173 9 296 598 752 738 272 364 472 660 519 
174 9 271 85 106 43 194 109 2 201 172 
175 9 73 255 300 506 66 653 327 38 439 
176 9 469 540 449 98 74 658 768 773 525 
177 9 640 373 443 496 507 389 245 760 319 
178 9 763 270 259 720 479 559 537 550 647 
179 9 262 334 25 113 49 250 409 240 392 
180 9 670 288 578 791 468 786 666 723 772 
181 9 283 216 247 351 244 392 147 12 250 
182 9 318 467 29 361 301 565 591 792 510 
183 9 350 328 158 161 96 97 305 538 132 
184 9 674 115 616 575 297 337 76 130 266 
185 9 104 429 291 344 321 360 379 480 92 
186 9 475 553 33 651 493 99 289 700 751 
187 9 199 218 366 126 649 211 359 599 325 
188 9 588 689 69 312 764 578 288 190 468 
189 9 221 317 377 420 239 116 424 606 617 
190 9 312 607 69 468 578 371 670 45 288 
191 9 18 34 555 645 486 476 557 51 543 
192 9 329 397 774 228 536 787 292 406 545 
193 9 67 451 403 145 569 97 158 322 96 
194 9 106 85 109 271 2 201 43 174 83 
195 9 789 36 740 27 261 704 735 5 605 
196 9 473 55 658 368 457 98 45 773 781 
197 9 62 275 324 164 225 37 105 22 90 
198 9 784 671 646 308 511 573 431 447 654 
199 9 187 218 366 126 649 211 359 325 599 
200 6 9 202 165 754 673 376 
201 9 2 64 313 194 106 43 349 253 109 
202 7 200 165 9 376 673 754 739 
203 9 726 601 35 544 363 714 213 684 444 
204 9 162 90 356 146 230 251 349 105 64 
205 9 384 243 279 370 71 227 48 81 40 
206 8 549 627 788 427 597 521 700 512 
207 9 314 342 6 563 742 311 404 366 274 
208 9 623 756 564 609 547 584 47 53 309 
209 9 675 264 68 354 258 137 629 320 353 
210 9 156 170 281 733 596 604 111 740 508 
211 9 126 359 218 782 649 199 315 187 366 
212 9 520 417 286 516 579 47 432 622 302 
213 7 693 654 636 532 714 601 573 
214 9 276 12 408 148 82 50 283 147 244 
215 9 711 769 619 367 330 332 267 61 715 
216 9 181 283 244 351 247 392 147 12 250 
217 9 554 232 425 265 51 566 287 18 352 
218 9 126 199 366 649 187 211 325 359 274 
219 9 395 118 339 690 166 315 701 336 121 
220 9 398 79 290 779 140 563 413 342 731 
221 9 317 189 116 239 424 661 420 617 377 
222 9 523 566 119 703 543 16 525 602 433 
223 8 452 710 630 54 341 385 377 436 
224 9 533 687 358 478 332 652 599 741 24 
225 9 105 22 164 59 412 90 107 253 349 
226 9 470 539 404 352 311 100 401 773 742 
227 9 81 370 48 384 333 72 761 279 149 
228 9 787 120 536 462 192 142 252 329 397 
229 9 15 29 8 255 373 653 591 669 490 
230 9 146 356 414 410 251 148 247 408 204 
231 9 505 448 88 583 764 638 346 652 720 
232 9 217 554 425 265 566 51 287 525 469 
233 9 465 586 635 621 223 58 385 372 135 
234 9 722 502 759 487 632 570 698 541 390 
235 9 501 365 714 35 61 636 599 215 267 
236 9 380 696 353 524 660 375 125 272 17 
237 9 31 169 238 102 246 84 268 3 749 
238 9 246 268 667 237 749 717 135 58 99 
239 9 424 91 617 420 753 606 116 221 593 
240 9 113 262 25 334 179 409 136 134 250 
241 9 692 680 688 56 378 19 699 471 518 
242 9 282 295 407 87 530 394 117 131 494 
243 9 279 256 40 114 205 370 227 384 84 
244 9 147 283 216 181 12 580 596 276 214 
245 9 496 762 507 389 455 438 416 443 552 
246 9 268 238 749 667 99 289 493 717 46 
247 9 351 181 283 250 216 392 410 230 414 
248 9 110 568 461 727 709 760 686 482 608 
249 9 381 161 127 254 538 307 87 132 394 
250 9 351 392 247 136 179 410 181 414 216 
251 9 414 410 146 383 171 230 356 37 204 
252 9 120 462 142 787 228 536 323 192 155 
253 9 349 83 64 109 2 201 22 194 412 
254 9 127 87 381 249 132 394 161 494 260 
255 9 175 66 327 73 653 8 300 229 506 
256 9 40 243 114 279 84 340 370 86 72 
257 8 463 423 618 75 672 509 716 491 
258 9 354 137 629 567 68 600 783 675 209 
259 9 270 763 559 178 537 647 330 426 441 
260 9 132 96 729 97 158 282 242 293 87 
261 9 605 704 707 531 728 740 195 589 789 
262 9 113 240 179 25 334 136 250 409 134 
263 9 20 52 411 49 409 134 348 328 179 
264 9 675 68 209 320 353 524 236 629 138 
265 9 425 554 217 232 287 352 51 401 469 
266 9 521 514 616 76 512 597 631 184 758 
267 9 61 769 415 715 711 445 460 619 330 
268 9 246 749 99 289 493 667 238 33 717 
269 9 474 343 160 615 163 131 293 744 581 
270 9 259 763 178 537 647 426 559 550 634 
271 9 174 106 85 43 194 109 2 201 313 
272 9 660 296 752 173 598 519 662 364 683 
273 9 484 32 430 633 454 723 704 666 772 
274 9 325 701 649 366 315 218 79 342 314 
275 9 324 62 197 37 225 171 90 105 204 
276 9 214 12 408 148 50 82 147 244 283 
277 8 697 503 517 13 721 730 783 513 
278 9 718 143 118 339 26 167 21 155 315 
279 9 243 40 370 256 114 227 81 205 384 
280 9 492 620 456 499 528 65 450 112 471 
281 9 156 210 508 604 668 733 170 724 728 
282 9 242 295 407 530 117 87 131 394 293 
283 9 181 216 244 247 147 351 12 392 214 
284 9 374 587 438 13 455 435 139 552 762 
285 9 793 778 656 437 558 500 561 577 650 
286 9 579 520 534 417 419 592 622 212 497 
287 9 401 51 265 425 352 335 554 217 232 
288 9 578 180 468 670 791 312 190 786 69 
289 9 99 493 685 268 749 651 667 33 46 
290 9 413 140 128 590 220 316 398 79 122 
291 9 185 104 429 102 92 379 776 149 321 
292 9 378 774 192 329 712 142 462 228 56 
293 9 160 131 117 729 474 530 407 269 295 
294 9 57 71 60 152 70 80 387 23 4 
295 9 407 282 242 530 117 131 293 87 344 
296 9 173 752 272 598 738 660 364 683 442 
297 9 575 372 674 130 184 115 616 621 337 
298 9 450 699 492 528 620 280 504 680 712 
299 9 391 744 613 615 702 343 679 304 766 
300 9 402 73 172 175 159 506 38 327 765 
301 9 591 669 792 29 318 510 565 467 440 
302 8 516 560 659 212 432 622 497 520 
303 9 30 333 23 387 48 149 81 227 80 
304 9 581 766 744 321 615 480 702 391 299 
305 9 538 183 350 161 328 134 409 381 249 
306 9 14 326 307 494 394 127 249 87 381 
307 9 306 14 127 249 381 326 494 254 394 
308 9 646 431 671 511 573 625 603 784 198 
309 9 609 564 53 39 756 623 584 78 47 
310 9 777 624 724 77 668 355 765 16 159 
311 9 404 6 742 563 335 207 226 470 314 
312 9 69 190 468 578 607 670 689 188 288 
313 9 201 82 2 64 43 50 408 194 148 
314 9 207 342 563 6 742 366 274 311 404 
315 9 325 649 274 701 219 118 211 218 126 
316 9 128 590 121 122 336 166 382 140 641 
317 9 221 116 189 661 239 424 420 617 791 
318 9 467 301 591 792 565 29 182 510 669 
319 9 443 433 8 373 177 602 386 543 555 
320 9 353 524 138 264 236 68 675 660 272 
321 9 480 581 304 360 766 429 104 379 92 
322 9 451 145 388 679 67 163 193 495 569 
323 9 155 21 252 120 26 787 462 142 536 
324 9 275 62 197 37 171 383 251 225 90 
325 9 274 649 701 315 366 218 126 211 219 
326 9 14 306 307 4 494 80 394 30 127 
327 9 66 159 362 255 386 175 777 300 355 
328 9 183 350 158 97 52 403 96 263 20 
329 9 192 774 397 406 545 228 292 536 141 
330 9 619 715 711 769 367 559 267 215 415 
331 9 439 506 38 653 73 400 175 15 361 
332 9 599 215 367 711 741 619 224 769 330 
333 9 81 48 149 227 303 761 72 370 384 
334 9 25 409 134 49 179 113 240 262 20 
335 9 401 287 133 311 51 150 352 470 731 
336 9 121 166 690 128 395 129 316 382 396 
337 9 550 115 634 184 674 537 647 76 616 
338 7 345 546 610 788 548 694 206 
339 9 118 395 219 278 167 718 396 315 166 
340 9 86 3 114 256 84 40 11 31 237 
341 7 385 436 377 464 223 593 606 
342 9 563 314 207 6 220 701 274 79 742 
343 9 269 615 744 474 163 299 160 581 304 
344 9 429 104 117 131 185 530 474 407 293 
345 9 610 338 546 548 124 10 694 700 788 
346 9 583 448 24 478 764 231 358 652 88 
347 9 504 141 712 450 745 541 487 390 298 
348 9 585 580 562 411 44 263 20 52 111 
349 9 253 64 83 2 201 22 162 109 90 
350 9 183 328 161 96 158 538 97 132 305 
351 9 392 247 250 216 181 283 179 136 244 
352 9 539 401 470 265 287 425 773 469 554 
353 9 524 320 236 138 660 68 264 272 696 
354 9 258 137 629 567 600 68 783 675 730 
355 9 16 777 362 703 602 159 386 310 327 
356 9 146 230 204 162 90 251 148 414 410 
357 9 518 65 456 112 19 747 471 582 688 
358 9 687 478 533 224 24 652 100 346 583 
359 9 126 211 782 218 199 678 187 28 649 
360 9 379 480 92 776 321 695 766 304 581 
361 9 15 439 653 331 182 29 229 318 506 
362 9 386 327 602 66 355 8 703 777 433 
363 8 601 684 444 544 203 726 682 745 
364 7 598 752 472 519 173 662 296 
365 9 501 61 235 636 714 267 445 769 215 
366 9 649 218 199 274 325 187 701 126 211 
367 9 741 619 711 215 330 769 441 559 332 
368 9 457 473 642 196 781 45 658 98 154 
369 8 574 705 572 771 7 748 477 418 
370 9 227 81 48 384 279 72 40 243 333 
371 9 772 666 607 723 45 670 190 468 786 
372 9 297 621 575 746 130 635 674 184 115 
373 9 177 640 443 490 319 434 496 229 8 
374 9 284 587 13 438 455 552 608 762 435 
375 9 125 442 683 696 17 732 738 676 93 
376 9 446 739 165 9 719 200 641 122 202 
377 8 420 606 753 617 341 424 593 239 
378 9 56 292 241 680 699 692 142 688 298 
379 9 92 776 360 480 321 102 291 586 695 
380 9 696 236 17 375 125 600 517 783 683 
381 9 249 161 127 254 538 307 132 87 394 
382 9 41 316 121 336 129 641 122 719 166 
383 9 171 251 414 37 410 136 146 230 250 
384 9 48 370 227 81 205 387 279 333 23 
385 7 436 341 464 223 377 593 606 
386 9 362 8 602 66 327 433 355 703 777 
387 9 23 80 30 152 384 48 303 294 71 
388 9 495 757 679 713 322 103 522 613 661 
389 9 507 245 486 557 443 496 416 645 762 
390 9 541 698 487 570 620 450 499 280 421 
391 9 299 702 744 613 615 766 304 189 343 
392 9 351 250 216 247 181 283 179 411 244 
393 9 153 107 412 83 59 109 85 22 253 
394 9 494 87 127 242 254 282 295 407 307 
395 9 219 166 336 339 121 396 690 118 129 
396 9 129 167 395 339 336 121 118 166 219 
397 9 192 329 545 406 536 774 28 228 787 
398 9 779 220 78 731 290 39 413 140 563 
399 9 665 63 547 515 208 734 736 529 108 
400 9 331 38 506 174 85 439 153 271 106 
401 9 287 352 335 470 265 425 51 539 226 
402 9 765 77 172 300 168 159 624 327 310 
403 9 193 97 158 67 451 145 96 569 328 
404 9 311 742 226 6 100 470 207 314 563 
405 7 682 123 459 648 681 444 95 
406 9 545 774 329 397 544 192 141 726 28 
407 9 295 530 282 242 117 131 293 344 87 
408 9 148 214 82 276 12 313 230 356 50 
409 9 134 334 49 25 179 20 263 52 113 
410 9 414 251 146 230 383 247 136 171 356 
411 9 20 263 52 49 348 392 179 409 134 
412 9 59 107 83 393 22 153 253 105 225 
413 9 290 140 590 128 316 122 220 719 398 
414 9 410 251 146 230 383 171 136 247 356 
415 7 460 445 715 267 657 706 577 
416 9 734 645 557 63 486 389 762 245 435 
417 9 579 286 520 47 534 584 212 622 419 
418 9 705 574 572 369 748 7 477 568 785 
419 8 592 622 497 520 534 286 432 708 
420 8 606 617 753 424 377 239 91 593 
421 9 499 526 570 698 390 541 551 65 280 
422 9 157 453 626 677 576 725 768 781 101 
423 9 75 618 257 556 509 463 447 628 308 
424 8 239 91 617 420 753 606 593 377 
425 9 265 554 217 232 287 51 352 401 469 
426 5 647 537 634 535 270 
427 3 627 788 206 
428 7 625 603 511 573 431 308 671 
429 9 104 344 185 321 291 581 474 131 117 
430 9 595 273 723 103 522 612 5 484 666 
431 9 308 671 511 646 625 573 603 428 556 
432 8 497 622 419 516 212 520 592 302 
433 9 602 119 703 543 386 319 362 523 8 
434 9 727 490 110 640 760 248 440 669 94 
435 9 438 139 284 455 762 750 374 734 63 
436 7 385 341 464 593 377 223 606 
437 8 656 778 558 285 561 793 500 447 
438 9 455 762 284 435 374 587 245 552 139 
439 9 653 331 15 361 506 73 38 175 255 
440 9 94 510 461 792 727 565 669 434 527 
441 9 559 741 367 259 763 330 619 178 652 
442 9 683 125 375 732 738 93 696 676 17 
443 9 177 507 389 496 319 373 640 245 486 
444 8 684 745 682 363 405 123 502 601 
445 8 657 460 415 706 577 267 532 61 
446 9 376 739 641 719 122 590 165 41 9 
447 9 618 75 716 784 646 198 308 423 437 
448 9 583 764 346 88 231 505 588 188 24 
449 9 74 540 176 469 525 768 98 453 658 
450 9 620 541 390 298 492 698 280 487 347 
451 9 67 145 193 322 403 569 163 97 158 
452 8 710 630 223 54 695 377 341 385 
453 9 157 422 768 626 781 677 576 74 642 
454 9 154 633 725 32 484 642 677 273 781 
455 9 438 762 587 374 284 245 435 552 496 
456 9 65 112 280 471 19 492 518 499 528 
457 9 368 781 642 658 196 473 98 45 154 
458 8 611 737 483 594 95 664 743 681 
459 9 681 648 95 483 405 123 664 594 743 
460 6 415 445 657 706 577 267 
461 9 248 568 94 527 727 440 418 110 434 
462 9 142 120 252 228 787 536 192 292 329 
463 6 257 716 672 491 618 75 
464 7 436 385 341 571 638 88 593 
465 8 233 571 464 385 635 436 621 223 
466 6 775 151 628 485 509 481 
467 9 318 301 792 565 510 591 182 29 669 
468 9 578 670 180 288 312 190 607 69 371 
469 9 176 540 449 74 98 773 525 658 768 
470 9 226 539 352 401 773 404 287 311 55 
471 9 19 112 688 528 456 692 518 492 680 
472 5 364 488 598 173 691 
473 9 196 368 45 457 55 658 98 781 642 
474 9 269 160 131 293 343 117 344 530 615 
475 9 186 553 651 700 33 493 546 289 99 
476 9 736 547 645 637 191 734 416 557 150 
477 9 748 7 574 785 369 780 705 790 418 
478 9 358 687 24 533 346 224 652 100 583 
479 9 550 337 178 115 763 720 270 297 575 
480 9 360 321 379 92 304 766 581 776 695 
481 9 655 151 767 10 466 485 694 548 775 
482 8 686 709 608 568 248 552 572 721 
483 9 95 664 594 681 459 458 648 743 737 
484 9 32 273 633 454 154 430 704 725 666 
485 9 151 767 466 672 655 628 694 509 775 
486 9 557 645 555 389 507 416 191 734 476 
487 9 541 698 390 570 234 502 722 620 450 
488 7 42 472 691 93 738 614 708 
489 9 644 101 576 643 626 89 157 422 770 
490 9 434 669 727 591 640 301 440 110 94 
491 4 463 672 716 257 
492 9 528 280 620 298 450 456 471 699 112 
493 9 99 289 33 749 268 553 651 186 685 
494 9 394 87 127 254 242 282 306 307 295 
495 9 757 103 388 5 612 735 522 595 713 
496 9 245 507 389 177 640 762 443 455 760 
497 7 622 432 419 592 520 534 286 
498 9 780 513 477 7 730 748 574 785 790 
499 9 421 280 570 65 698 390 620 456 526 
500 7 561 558 285 650 793 437 778 
501 9 365 235 61 714 599 636 215 267 769 
502 9 234 722 759 487 745 632 123 570 698 
503 8 721 697 277 771 513 482 13 686 
504 9 141 347 712 298 450 541 620 390 745 
505 9 231 638 88 448 571 720 583 764 464 
506 9 38 73 331 175 653 439 300 255 400 
507 9 389 245 496 443 486 557 762 177 416 
508 9 668 724 281 604 728 531 707 156 644 
509 7 628 423 257 556 75 775 618 
510 8 565 792 440 94 301 467 669 318 
511 9 573 625 431 671 308 646 428 603 198 
512 8 521 758 266 76 535 597 627 206 
513 9 730 771 721 369 574 7 503 572 705 
514 9 631 266 597 521 144 616 76 184 512 
515 9 108 529 665 417 579 47 42 286 534 
516 8 302 560 659 212 432 622 497 520 
517 9 277 17 697 783 600 380 13 503 567 
518 9 112 19 357 471 456 688 65 692 747 
519 9 662 752 364 598 272 173 296 660 472 
520 9 286 579 534 417 419 622 592 212 497 
521 8 512 266 597 76 514 758 616 206 
522 9 595 757 103 713 430 786 495 723 612 
523 9 222 119 566 703 543 602 433 16 355 
524 9 353 320 236 138 660 272 696 380 68 
525 9 74 449 540 176 469 768 643 101 232 
526 9 551 421 499 570 65 698 280 456 390 
527 9 418 461 785 790 94 568 748 477 705 
528 9 492 699 471 280 688 19 680 112 298 
529 9 108 515 42 614 665 488 691 93 534 
530 9 117 407 295 131 282 293 242 344 160 
531 9 707 728 605 589 89 770 261 644 704 
532 9 577 657 706 445 693 793 460 654 285 
533 9 687 224 358 478 652 24 332 100 346 
534 9 286 579 520 592 419 417 622 708 691 
535 6 758 634 76 512 426 647 
536 9 787 228 120 26 192 397 462 252 329 
537 8 647 426 634 270 337 259 550 535 
538 9 161 381 249 305 350 183 254 132 127 
539 9 470 773 352 55 226 401 469 176 196 
540 9 176 449 469 74 98 525 768 658 773 
541 9 390 698 487 620 570 450 499 234 280 
542 7 755 790 527 785 510 94 565 
543 9 119 433 523 566 703 222 602 555 191 
544 9 726 601 203 363 684 406 444 35 141 
545 9 406 28 397 678 329 774 192 35 726 
546 9 345 338 610 700 549 206 788 124 475 
547 9 736 399 63 208 476 637 623 665 756 
548 8 694 10 767 655 151 338 481 345 
549 9 206 597 700 788 627 427 521 546 512 
550 9 337 115 479 634 184 537 674 647 575 
551 9 526 421 499 570 65 639 698 632 234 
552 9 608 587 374 760 709 455 686 482 110 
553 9 186 475 651 493 33 289 99 700 144 
554 9 217 232 425 265 51 287 566 352 18 
555 9 486 557 645 191 389 543 507 18 443 
556 6 423 75 308 431 618 509 
557 9 486 645 555 389 507 416 734 191 476 
558 7 561 437 778 656 285 500 793 
559 9 441 259 330 763 270 367 741 619 178 
560 9 302 516 659 432 739 212 497 590 622 
561 6 558 437 500 778 656 285 
562 9 585 44 348 111 580 27 36 789 145 
563 9 6 342 207 314 311 220 398 742 404 
564 9 756 309 623 39 609 53 208 78 584 
565 9 510 792 440 301 94 467 318 669 591 
566 9 222 523 543 217 232 554 119 18 425 
567 9 600 783 137 629 354 730 380 258 517 
568 9 248 418 461 705 572 686 482 527 709 
569 9 729 163 160 97 193 293 158 451 96 
570 9 698 487 390 541 421 499 234 620 722 
571 8 638 720 464 505 465 479 436 231 
572 8 705 369 771 574 418 7 748 477 
573 8 511 625 671 431 428 308 646 198 
574 9 7 748 369 477 705 572 418 771 785 
575 9 297 674 184 115 130 372 616 337 550 
576 9 422 677 157 489 626 89 644 770 725 
577 9 706 532 657 460 793 445 285 656 778 
578 9 468 288 670 180 312 190 791 69 607 
579 9 286 520 534 417 419 592 622 212 708 
580 9 147 111 348 585 244 562 44 596 216 
581 9 304 321 766 615 744 480 343 702 269 
582 9 747 357 518 112 19 65 456 471 688 
583 9 448 346 764 231 88 24 505 478 188 
584 9 47 53 609 417 212 309 208 286 579 
585 9 562 44 348 580 111 27 145 36 67 
586 9 233 54 223 630 695 452 710 58 92 
587 9 374 552 284 455 608 438 13 762 709 
588 9 188 764 689 69 312 88 288 578 448 
589 9 770 89 531 707 605 728 576 677 644 
590 9 122 719 641 316 413 446 739 140 290 
591 9 301 669 29 318 792 490 467 565 510 
592 8 419 708 622 534 497 520 286 691 
593 8 753 606 617 91 420 424 239 377 
594 8 664 483 95 458 611 681 459 648 
595 9 522 430 786 723 103 757 666 772 713 
596 9 170 733 210 111 147 156 12 244 50 
597 9 514 521 549 266 631 206 700 512 144 
598 8 364 752 173 296 519 472 272 662 
599 9 332 215 501 235 711 769 367 365 61 
600 9 783 567 629 137 517 380 730 277 697 
601 9 203 363 726 544 35 684 213 444 714 
602 9 703 433 119 362 386 355 16 543 523 
603 6 428 431 625 511 308 573 
604 9 724 733 668 281 156 210 508 624 170 
605 9 707 531 728 261 589 89 770 704 740 
606 8 753 617 420 593 91 424 377 239 
607 9 190 45 371 312 468 69 670 772 578 
608 9 709 552 482 686 587 110 760 374 248 
609 9 53 309 584 564 47 623 756 39 208 
610 9 345 546 338 124 548 10 700 694 788 
611 6 458 594 664 483 95 737 
612 9 5 735 103 430 495 704 757 273 522 
613 9 391 299 661 679 702 744 713 615 317 
614 9 93 732 676 663 488 738 529 42 442 
615 9 744 343 299 304 581 391 269 766 702 
616 9 184 674 266 76 115 514 575 521 631 
617 8 753 606 420 91 424 239 593 377 
618 8 75 423 257 447 463 716 556 308 
619 9 711 769 330 215 367 715 267 559 61 
620 9 450 390 541 280 492 698 499 298 487 
621 9 635 372 746 297 717 130 575 233 58 
622 8 497 419 432 592 520 534 286 579 
623 9 756 208 564 609 309 53 39 584 47 
624 9 77 765 168 310 402 724 668 604 172 
625 7 428 511 573 431 603 671 308 
626 9 157 422 453 101 576 768 643 489 677 
627 4 427 788 206 549 
628 7 509 775 466 423 257 485 556 
629 9 137 567 600 783 354 68 380 258 236 
630 9 452 710 54 223 695 377 702 766 586 
631 9 514 144 597 266 616 130 651 521 685 
632 9 759 743 722 234 737 502 123 639 458 
633 9 454 32 154 484 725 273 677 642 781 
634 8 647 535 537 426 337 76 550 115 
635 9 621 746 372 233 58 135 717 297 465 
636 9 714 693 365 213 657 61 532 445 501 
637 9 150 736 756 476 547 623 133 208 564 
638 9 571 720 505 464 231 479 178 88 763 
639 8 737 458 743 632 611 759 483 95 
640 9 177 760 434 496 373 490 110 727 443 
641 9 719 122 590 446 739 41 316 376 382 
642 9 781 457 154 368 454 725 677 453 422 
643 9 101 489 626 644 576 157 422 453 768 
644 9 489 89 576 101 770 643 589 626 422 
645 9 557 486 555 416 476 734 191 389 507 
646 9 308 671 431 511 573 784 198 625 447 
647 8 537 426 634 270 535 337 550 259 
648 8 681 459 95 405 483 664 123 428 
649 9 366 325 274 218 315 701 126 199 211 
650 3 500 793 285 
651 9 144 553 685 289 631 475 493 186 99 
652 9 741 478 441 358 231 224 533 687 346 
653 9 439 15 73 506 175 331 255 38 361 
654 7 213 693 198 573 784 511 625 
655 9 767 481 151 10 694 548 485 466 775 
656 9 778 437 285 793 558 561 500 447 577 
657 8 445 706 532 577 460 415 267 636 
658 9 98 196 457 55 368 781 473 176 642 
659 9 302 516 560 212 53 432 584 47 609 
660 9 272 296 752 173 519 598 683 662 125 
661 9 713 317 116 221 613 189 791 522 391 
662 8 519 752 364 598 272 173 296 660 
663 9 676 732 614 93 442 125 17 750 375 
664 8 594 483 95 681 458 459 648 611 
665 9 399 63 515 529 108 547 750 208 435 
666 9 772 723 371 786 670 430 273 484 595 
667 9 717 46 246 268 289 685 99 746 238 
668 9 724 508 604 310 281 624 77 156 210 
669 9 591 301 490 29 792 440 510 434 565 
670 9 468 180 578 288 786 371 791 190 772 
671 9 646 308 431 511 573 784 198 625 603 
672 6 463 257 491 485 716 423 
673 3 662 200 754 
674 9 184 575 115 616 297 130 337 76 266 
675 9 68 209 264 629 137 320 353 354 258 
676 9 663 732 614 93 442 125 683 375 738 
677 9 725 422 576 157 154 454 770 453 626 
678 9 28 545 782 35 359 397 406 726 235 
679 9 613 388 299 163 322 391 713 343 615 
680 9 692 699 688 528 471 19 112 241 492 
681 8 459 648 95 483 664 594 405 123 
682 6 405 444 648 459 684 123 
683 9 442 125 375 738 696 296 93 732 173 
684 9 444 745 363 682 405 502 544 123 601 
685 9 46 144 651 289 130 667 99 631 717 
686 8 482 709 608 568 248 552 572 721 
687 9 533 358 224 478 24 652 100 346 332 
688 9 19 692 471 680 112 528 699 518 492 
689 9 69 188 312 588 190 764 468 578 607 
690 9 166 128 336 121 395 219 316 140 79 
691 8 708 42 592 488 534 419 472 108 
692 9 688 680 19 471 699 528 112 241 518 
693 9 213 654 636 532 657 714 198 706 784 
694 8 548 767 655 10 151 485 481 338 
695 9 54 630 452 766 710 480 223 702 360 
696 9 375 380 125 17 683 442 236 660 272 
697 8 277 503 721 13 517 730 513 482 
698 9 390 541 570 487 620 499 421 450 234 
699 9 680 528 298 688 692 492 471 19 112 
700 9 549 546 597 206 475 553 345 651 788 
701 9 274 325 649 315 79 366 219 342 218 
702 9 391 766 744 299 304 695 189 613 615 
703 9 602 119 433 16 523 355 222 543 362 
704 9 261 32 273 484 612 5 735 589 605 
705 8 572 369 574 418 771 7 748 477 
706 8 577 657 532 445 460 793 285 415 
707 9 531 605 728 589 261 89 770 644 704 
708 8 691 592 42 419 534 286 520 579 
709 8 686 482 608 568 552 248 572 110 
710 8 452 630 223 54 695 377 341 385 
711 9 769 619 215 330 367 267 715 61 415 
712 9 141 504 347 298 774 292 450 406 329 
713 9 661 757 522 388 595 613 103 495 116 
714 9 636 365 235 35 501 203 693 213 601 
715 9 330 415 267 769 619 711 460 445 61 
716 5 463 491 618 447 257 
717 9 667 746 46 685 246 621 130 289 635 
718 9 278 143 118 339 26 315 167 21 219 
719 9 641 122 590 446 739 376 316 41 560 
720 9 638 178 763 571 479 505 441 270 259 
721 8 503 771 513 697 572 369 277 482 
722 9 234 502 759 632 487 570 123 698 743 
723 9 666 772 786 430 595 371 273 670 484 
724 9 668 508 604 310 624 281 77 156 765 
725 9 677 154 454 633 422 642 576 157 781 
726 9 203 601 544 35 363 406 714 545 684 
727 9 434 110 248 461 440 94 490 760 568 
728 9 531 707 605 589 89 261 770 644 508 
729 9 569 293 160 260 163 131 474 269 117 
730 9 513 721 503 697 783 277 567 600 771 
731 9 78 779 133 39 398 564 150 756 309 
732 9 676 663 614 93 442 738 683 125 375 
733 9 210 170 156 604 596 50 281 668 724 
734 9 416 63 645 435 557 399 736 762 476 
735 9 5 612 103 495 789 704 195 430 36 
736 9 476 547 637 63 734 399 645 150 208 
737 9 743 458 632 639 483 95 611 759 594 
738 9 93 173 296 683 442 488 732 614 125 
739 9 376 446 719 641 560 122 9 165 590 
740 9 195 27 36 789 261 605 707 531 728 
741 9 367 441 559 652 619 330 711 215 332 
742 9 404 207 314 311 100 6 342 563 226 
743 9 737 632 759 123 483 95 458 459 681 
744 9 615 299 391 304 702 581 766 343 613 
745 9 684 444 502 234 722 347 487 123 405 
746 9 717 621 635 372 46 667 130 297 135 
747 9 582 357 518 19 112 471 688 456 692 
748 9 7 477 574 369 705 785 418 780 790 
749 9 268 99 493 246 289 33 667 238 553 
750 9 139 435 663 676 665 284 732 614 438 
751 9 11 124 186 33 475 553 610 493 546 
752 9 598 173 296 364 519 272 662 660 472 
753 8 617 606 420 91 593 424 239 377 
754 4 200 9 497 432 
755 7 542 790 527 785 510 565 94 
756 9 564 623 39 309 208 609 53 78 637 
757 9 522 103 495 713 388 595 5 612 430 
758 4 512 535 521 76 
759 9 632 722 234 743 502 123 737 405 459 
760 9 110 552 248 640 608 727 434 496 709 
761 9 72 149 81 227 333 84 370 31 48 
762 9 455 438 245 435 496 284 587 374 552 
763 9 178 270 259 559 720 537 479 647 441 
764 9 448 88 583 588 188 346 231 505 689 
765 9 77 402 624 168 172 159 300 310 777 
766 9 304 702 581 695 744 480 321 391 615 
767 8 655 151 481 694 548 10 485 466 
768 9 453 74 626 157 449 422 98 540 176 
769 9 711 619 215 267 330 715 61 367 415 
770 9 589 89 576 677 531 644 707 725 728 
771 8 572 369 705 574 721 7 418 748 
772 9 666 371 723 786 670 607 430 273 180 
773 9 55 539 469 176 98 658 196 540 352 
774 9 329 406 192 141 712 397 292 545 504 
775 5 466 628 509 485 151 
776 9 92 379 360 480 102 321 291 586 695 
777 9 355 159 16 310 362 327 77 66 386 
778 9 656 437 285 558 793 561 500 447 577 
779 9 78 398 39 731 309 564 220 609 756 
780 9 477 7 748 574 785 790 369 705 418 
781 9 642 457 368 453 658 154 725 157 422 
782 9 359 211 28 678 126 143 397 545 218 
783 9 600 567 629 517 137 730 380 277 697 
784 9 198 671 646 308 447 511 573 431 654 
785 9 790 477 748 7 418 527 574 780 705 
786 9 723 595 180 666 670 772 791 522 430 
787 9 228 120 536 462 252 142 192 26 397 
788 5 427 627 206 549 338 
789 9 36 195 27 740 735 261 5 612 704 
790 9 785 477 748 7 527 418 780 574 705 
791 9 180 288 116 670 578 786 468 239 317 
792 9 510 565 301 440 94 467 669 318 591 
793 9 285 656 778 437 500 558 577 561 650 
DEPOT_SECTION
   1
   -1
EOF
