NAME :  X-n837-kX-w167-c7.cctp
COMMENT : 	Adapted by Maziero, Usberti and Cavellucci from the Uchoa, Pecin, Pessoa, Poggi, Subramanian, and Vidal (2013)
TYPE :  CCTP
DIMENSION :    623
EDGE_WEIGHT_TYPE : 	EUC_2D	
CAPACITY : 	44
VERTICES_WITHIN_COVERAGE :  7
VERTICES_WITH_DEMAND : 	167
NODE_COORD_SECTION
1 940 231
2 721 848
3 618 44
4 993 145
5 636 512
6 274 496
7 245 945
8 449 812
9 29 650
10 399 8
11 548 19
12 769 717
13 221 850
14 980 233
15 477 922
16 498 720
17 136 832
18 351 663
19 58 67
20 889 569
21 28 334
22 804 928
23 900 138
24 393 403
25 982 609
26 79 299
27 684 582
28 169 252
29 405 925
30 875 191
31 674 112
32 576 537
33 539 63
34 338 657
35 210 209
36 676 568
37 949 826
38 572 890
39 210 615
40 737 46
41 30 527
42 131 724
43 671 842
44 727 566
45 507 497
46 524 134
47 167 665
48 819 108
49 929 582
50 713 738
51 352 626
52 887 547
53 176 645
54 611 289
55 457 532
56 11 147
57 958 60
58 587 187
59 790 956
60 974 63
61 306 225
62 961 969
63 238 736
64 758 840
65 88 44
66 507 811
67 768 476
68 51 914
69 494 445
70 953 33
71 922 45
72 748 111
73 544 867
74 477 596
75 322 79
76 439 150
77 586 764
78 214 599
79 168 480
80 925 138
81 797 107
82 751 783
83 738 913
84 703 73
85 681 886
86 627 27
87 887 310
88 478 345
89 571 600
90 834 858
91 549 370
92 657 233
93 126 769
94 317 934
95 237 55
96 851 409
97 838 426
98 477 559
99 542 94
100 370 432
101 520 621
102 666 178
103 631 484
104 733 255
105 820 918
106 687 877
107 752 983
108 157 720
109 709 898
110 300 878
111 728 617
112 66 59
113 991 657
114 717 47
115 463 177
116 586 397
117 792 307
118 100 392
119 438 722
120 43 247
121 71 476
122 69 560
123 211 73
124 471 14
125 115 806
126 194 337
127 921 320
128 104 495
129 36 456
130 500 152
131 782 316
132 881 374
133 277 601
134 962 575
135 588 181
136 941 728
137 108 931
138 11 814
139 209 800
140 129 525
141 126 149
142 31 219
143 97 324
144 495 122
145 759 480
146 859 782
147 780 669
148 786 769
149 759 159
150 282 633
151 361 17
152 957 103
153 711 939
154 544 544
155 27 318
156 665 656
157 523 586
158 842 429
159 539 783
160 769 347
161 937 386
162 824 841
163 738 391
164 833 988
165 16 637
166 91 472
167 41 388
168 623 780
169 660 155
170 700 658
171 946 783
172 607 815
173 658 874
174 527 853
175 459 577
176 937 639
177 833 692
178 421 999
179 908 447
180 469 163
181 737 238
182 509 61
183 246 352
184 488 408
185 600 359
186 510 460
187 342 691
188 787 465
189 700 873
190 659 568
191 478 525
192 988 980
193 241 353
194 28 661
195 724 842
196 2 660
197 210 180
198 840 841
199 843 9
200 265 453
201 209 673
202 20 952
203 673 659
204 185 335
205 138 655
206 769 741
207 831 678
208 401 625
209 212 360
210 118 426
211 192 520
212 596 376
213 449 679
214 579 295
215 837 944
216 377 500
217 797 97
218 65 235
219 440 877
220 849 769
221 439 326
222 407 621
223 550 241
224 253 243
225 76 852
226 642 116
227 598 124
228 564 374
229 997 660
230 14 98
231 845 303
232 774 9
233 791 671
234 575 109
235 290 897
236 953 348
237 906 692
238 895 790
239 25 242
240 761 886
241 909 336
242 501 846
243 731 4
244 337 71
245 106 973
246 846 368
247 978 669
248 884 559
249 10 910
250 390 602
251 451 134
252 324 221
253 569 98
254 735 341
255 672 867
256 584 520
257 193 416
258 954 912
259 761 734
260 192 875
261 88 353
262 777 38
263 98 68
264 642 658
265 838 305
266 824 694
267 238 825
268 357 593
269 537 99
270 137 539
271 719 213
272 68 173
273 788 339
274 939 69
275 826 300
276 492 174
277 566 830
278 371 935
279 840 180
280 979 466
281 970 249
282 975 291
283 192 630
284 560 724
285 310 503
286 506 445
287 720 806
288 259 450
289 156 388
290 81 518
291 597 384
292 388 967
293 399 787
294 11 859
295 688 276
296 721 451
297 3 300
298 983 902
299 184 404
300 984 221
301 514 801
302 887 476
303 552 923
304 803 145
305 974 602
306 316 566
307 73 473
308 448 186
309 86 398
310 653 3
311 239 470
312 717 351
313 762 276
314 434 39
315 420 378
316 141 122
317 805 572
318 769 874
319 909 440
320 38 852
321 105 958
322 504 740
323 840 804
324 62 24
325 360 375
326 199 310
327 661 252
328 484 955
329 481 777
330 277 225
331 504 527
332 242 931
333 801 74
334 538 483
335 510 183
336 244 834
337 115 811
338 37 611
339 30 147
340 658 235
341 109 856
342 950 351
343 34 512
344 937 779
345 840 77
346 470 783
347 890 127
348 672 450
349 719 972
350 893 283
351 86 437
352 45 423
353 119 237
354 199 550
355 221 723
356 613 950
357 357 566
358 582 795
359 815 464
360 329 481
361 223 90
362 144 199
363 819 300
364 778 769
365 960 581
366 891 760
367 869 582
368 762 952
369 129 544
370 891 765
371 279 754
372 152 677
373 262 932
374 527 584
375 322 73
376 562 370
377 392 609
378 736 268
379 598 496
380 433 748
381 331 889
382 240 788
383 519 923
384 326 931
385 117 800
386 202 115
387 44 588
388 326 102
389 446 362
390 469 593
391 764 469
392 595 304
393 511 582
394 552 544
395 82 52
396 505 535
397 232 30
398 234 71
399 296 920
400 39 226
401 513 307
402 333 16
403 451 579
404 64 69
405 483 514
406 750 328
407 497 64
408 248 949
409 375 378
410 465 221
411 665 270
412 366 0
413 237 52
414 573 528
415 355 35
416 120 742
417 542 619
418 538 87
419 902 274
420 654 479
421 195 998
422 115 52
423 274 243
424 174 77
425 128 133
426 449 314
427 556 888
428 324 50
429 342 957
430 430 128
431 207 933
432 468 125
433 175 709
434 162 859
435 51 47
436 442 125
437 616 462
438 444 691
439 40 840
440 464 616
441 127 21
442 285 942
443 79 85
444 164 732
445 802 300
446 601 607
447 340 363
448 414 154
449 77 257
450 964 400
451 410 533
452 461 585
453 410 716
454 150 224
455 241 697
456 395 26
457 451 196
458 136 5
459 507 75
460 398 622
461 305 69
462 751 566
463 249 494
464 209 637
465 345 960
466 413 673
467 130 914
468 780 402
469 246 922
470 245 939
471 484 170
472 542 595
473 780 618
474 22 4
475 436 370
476 171 660
477 764 567
478 594 247
479 255 840
480 495 395
481 579 590
482 86 560
483 378 926
484 540 352
485 249 45
486 601 470
487 723 669
488 136 898
489 213 165
490 455 745
491 642 706
492 608 601
493 556 353
494 515 475
495 263 868
496 186 643
497 443 30
498 246 21
499 634 512
500 144 764
501 460 151
502 555 359
503 327 83
504 530 192
505 213 657
506 597 751
507 518 599
508 102 914
509 603 302
510 480 125
511 189 49
512 561 541
513 424 174
514 542 198
515 276 191
516 263 655
517 336 851
518 59 564
519 521 545
520 516 627
521 554 621
522 242 77
523 201 388
524 503 99
525 512 898
526 375 11
527 482 548
528 137 621
529 620 405
530 155 793
531 249 50
532 205 733
533 554 130
534 599 693
535 365 919
536 473 164
537 34 929
538 150 787
539 543 575
540 178 253
541 690 409
542 55 99
543 242 68
544 112 800
545 519 123
546 346 372
547 55 79
548 470 430
549 109 474
550 121 716
551 46 87
552 388 31
553 627 292
554 105 831
555 196 879
556 182 429
557 461 727
558 611 551
559 250 928
560 605 605
561 116 708
562 593 306
563 113 146
564 631 430
565 251 203
566 549 148
567 99 354
568 65 569
569 174 66
570 599 697
571 546 563
572 197 184
573 316 899
574 603 611
575 792 373
576 240 583
577 142 783
578 684 693
579 269 748
580 646 519
581 268 693
582 213 33
583 111 771
584 61 608
585 658 591
586 312 448
587 210 48
588 539 169
589 18 18
590 248 946
591 565 83
592 198 787
593 518 10
594 554 356
595 64 665
596 219 644
597 637 463
598 415 133
599 190 59
600 301 863
601 747 120
602 469 369
603 591 776
604 375 17
605 496 587
606 332 242
607 571 590
608 236 921
609 439 545
610 114 190
611 656 228
612 526 747
613 202 580
614 238 966
615 513 551
616 163 299
617 141 898
618 264 956
619 60 249
620 667 557
621 266 960
622 567 423
623 348 955
DEMAND_SECTION
2 7
3 9
4 6
5 7
6 6
7 8
8 9
9 5
10 8
11 10
12 7
13 5
14 7
15 10
16 6
17 5
18 5
19 7
20 6
21 10
22 8
23 10
24 9
25 6
26 10
27 10
28 10
29 10
30 5
31 7
32 8
33 9
34 5
35 7
36 10
37 9
38 6
39 7
40 6
41 7
42 7
43 9
44 6
45 8
46 6
47 5
48 7
49 6
50 7
51 6
52 10
53 6
54 7
55 6
56 7
57 5
58 6
59 9
60 7
61 7
62 8
63 9
64 10
65 10
66 8
67 8
68 5
69 9
70 9
71 10
72 9
73 7
74 10
75 5
76 5
77 10
78 8
79 8
80 10
81 6
82 6
83 8
84 8
85 5
86 9
87 7
88 8
89 6
90 6
91 6
92 9
93 7
94 10
95 10
96 10
97 10
98 7
99 6
100 8
101 6
102 8
103 8
104 10
105 10
106 7
107 7
108 9
109 7
110 10
111 7
112 5
113 9
114 5
115 5
116 9
117 8
118 7
119 9
120 5
121 5
122 8
123 7
124 9
125 10
126 10
127 6
128 8
129 5
130 10
131 10
132 10
133 7
134 9
135 8
136 7
137 6
138 7
139 9
140 9
141 10
142 8
143 6
144 10
145 6
146 7
147 8
148 5
149 9
150 6
151 9
152 7
153 10
154 8
155 10
156 5
157 10
158 8
159 5
160 10
161 10
162 8
163 7
164 8
165 7
166 5
167 6
168 10
COVERAGE_SECTION
2 7 195 189 64 287 106 43 109 
3 7 86 310 591 253 11 226 234 
4 7 152 80 300 60 14 57 23 
5 7 499 580 103 420 379 558 597 
6 7 463 285 200 311 288 360 586 
7 7 590 408 470 332 559 373 614 
8 7 346 329 293 66 242 219 301 
9 6 194 165 196 595 338 584 
10 7 456 526 552 604 412 151 314 
11 7 593 33 182 591 407 418 459 
12 7 259 206 147 233 364 148 50 
13 6 336 267 479 260 555 495 
14 7 300 281 282 419 4 350 127 
15 7 328 383 525 219 29 303 242 
16 7 322 557 612 490 329 119 438 
17 7 337 554 125 341 385 434 544 
18 6 34 187 51 460 208 466 
19 7 404 112 547 435 551 395 443 
20 7 248 52 367 49 365 134 317 
21 7 155 297 167 26 261 143 567 
22 7 105 59 215 368 240 318 164 
23 7 347 80 30 152 279 274 48 
24 7 409 100 315 325 475 546 447 
25 7 305 365 134 113 229 176 49 
26 7 143 449 619 155 261 567 21 
27 6 36 585 190 620 44 111 
28 7 540 454 616 353 35 362 326 
29 5 483 278 535 292 219 
30 7 279 23 347 80 304 419 350 
31 7 226 169 84 102 601 72 227 
32 7 414 512 256 394 154 558 571 
33 7 418 182 99 591 459 269 407 
34 6 18 51 187 150 268 460 
35 6 572 197 565 489 540 224 
36 6 620 27 190 585 44 580 
37 7 171 344 238 298 370 258 366 
38 7 427 73 303 174 277 525 383 
39 7 78 464 283 596 613 496 505 
40 7 114 262 243 84 232 72 333 
41 7 343 518 122 290 568 387 121 
42 5 550 416 561 108 444 
43 7 255 173 106 189 85 2 195 
44 7 462 477 27 36 111 620 190 
45 7 494 405 331 334 186 396 191 
46 7 545 566 130 533 144 269 588 
47 5 476 372 53 496 205 
48 7 81 217 345 333 304 72 347 
49 7 365 134 20 305 248 52 176 
50 7 259 578 206 82 12 287 487 
51 7 268 34 18 377 250 460 208 
52 7 248 20 367 49 302 134 365 
53 7 496 476 47 283 464 205 505 
54 6 509 553 392 562 214 478 
55 7 191 609 527 405 98 175 331 
56 6 339 230 272 542 551 142 
57 7 60 274 70 71 152 80 4 
58 7 135 514 588 566 504 478 227 
59 7 368 22 107 105 215 164 83 
60 7 57 274 70 152 71 4 80 
61 4 252 330 606 423 
62 7 192 258 298 215 164 37 105 
63 7 355 532 579 455 371 382 581 
64 7 195 318 2 240 287 82 162 
65 6 395 263 112 422 324 404 
66 7 301 242 159 329 346 174 8 
67 7 391 145 188 359 296 468 97 
68 7 537 249 202 508 137 320 225 
69 5 286 186 548 184 494 
70 7 57 71 60 274 152 80 199 
71 7 274 70 57 60 152 199 345 
72 7 601 81 149 217 84 304 333 
73 7 174 427 38 277 525 242 303 
74 7 390 452 605 440 175 403 98 
75 5 375 503 244 461 388 
76 7 251 501 430 436 448 513 598 
77 7 603 506 358 168 284 159 172 
78 7 39 613 576 283 464 596 354 
79 7 211 556 549 140 128 270 257 
80 7 23 347 152 4 274 30 57 
81 7 217 48 333 304 72 345 601 
82 7 364 148 287 206 259 64 50 
83 7 109 240 153 368 318 189 106 
84 7 114 40 31 72 601 243 226 
85 7 106 255 189 173 109 43 2 
86 7 3 310 11 591 84 226 114 
87 7 350 241 127 419 231 265 275 
88 7 602 389 426 221 475 401 480 
89 7 607 481 521 472 446 560 574 
90 7 198 162 323 105 318 22 64 
91 6 376 502 594 228 493 484 
92 7 340 611 327 411 295 102 271 
93 7 583 500 577 416 538 385 544 
94 7 384 399 442 429 573 623 465 
95 7 413 531 543 398 485 522 397 
96 7 97 158 246 132 319 359 179 
97 7 158 96 359 246 468 188 132 
98 7 527 175 452 403 55 191 605 
99 7 269 418 591 253 33 234 545 
100 7 24 409 325 586 360 546 216 
101 7 520 417 507 472 521 157 374 
102 7 169 611 92 340 271 31 226 
103 7 597 420 437 5 499 486 379 
104 6 378 181 313 271 295 411 
105 7 22 215 59 90 240 318 368 
106 7 85 189 255 173 109 43 2 
107 7 368 349 59 153 83 22 164 
108 4 444 433 42 550 
109 7 189 85 106 83 153 255 2 
110 6 600 235 573 381 495 399 
111 7 170 44 473 487 27 462 477 
112 7 404 19 395 435 547 65 443 
113 7 229 247 25 176 305 365 134 
114 7 40 84 243 262 232 72 31 
115 7 180 536 308 457 471 501 276 
116 7 291 212 228 622 529 376 185 
117 7 445 131 363 273 275 313 160 
118 7 309 210 567 261 351 289 167 
119 7 557 380 453 490 438 213 466 
120 6 619 239 400 218 142 449 
121 7 307 166 128 549 129 351 290 
122 7 568 518 482 387 290 584 41 
123 7 361 398 587 599 522 543 95 
124 5 497 314 593 407 182 
125 7 337 385 544 554 17 577 583 
126 7 204 326 209 616 193 523 183 
127 7 241 87 342 236 350 419 282 
128 7 549 166 290 121 307 140 270 
129 7 352 121 307 351 343 166 167 
130 7 276 471 46 144 536 180 335 
131 7 117 273 445 160 406 363 313 
132 7 246 96 241 161 87 97 127 
133 7 150 576 306 516 78 39 596 
134 7 365 305 49 25 176 20 52 
135 7 58 514 588 566 227 504 533 
136 7 237 344 171 366 370 247 238 
137 7 508 321 467 245 488 617 68 
138 3 439 294 320 
139 6 592 382 267 336 13 530 
140 7 270 369 128 290 482 549 79 
141 5 563 425 316 610 362 
142 7 400 239 120 218 619 272 449 
143 7 261 567 26 118 21 155 449 
144 6 510 524 545 432 130 46 
145 7 67 391 188 296 359 468 462 
146 7 220 323 370 238 366 198 162 
147 7 233 12 266 473 207 487 177 
148 7 364 206 82 259 12 220 323 
149 7 601 304 72 81 271 217 48 
150 6 516 133 34 581 596 576 
151 7 604 526 412 415 402 552 456 
152 7 274 57 60 80 4 23 71 
153 7 349 83 109 368 107 85 106 
154 7 394 512 571 519 539 615 32 
155 7 21 297 26 143 261 167 120 
156 7 203 264 170 578 491 487 585 
157 7 374 393 507 472 539 605 571 
158 7 97 96 359 246 302 188 132 
159 7 301 612 66 358 77 603 277 
160 7 273 406 131 254 575 117 312 
161 7 450 342 236 132 241 319 127 
162 7 198 90 323 318 64 146 220 
163 7 468 312 254 541 160 575 296 
164 7 215 59 22 105 368 107 349 
165 7 9 194 196 338 584 387 595 
166 7 307 549 121 128 351 290 210 
167 7 352 309 21 118 261 351 567 
168 7 603 172 506 77 358 277 491 
169 7 102 226 31 227 611 135 92 
170 7 487 203 156 578 111 264 491 
171 7 344 37 238 136 370 366 146 
172 7 358 168 603 277 77 506 43 
173 7 255 85 106 43 189 109 2 
174 7 73 242 277 427 66 525 301 
175 7 403 452 390 98 74 527 605 
176 7 247 305 25 113 49 237 365 
177 4 266 207 233 147 
178 6 292 29 328 278 465 483 
179 7 319 302 158 161 96 97 280 
180 7 536 115 501 471 276 308 76 
181 7 104 378 271 313 295 327 340 
182 7 407 459 33 524 418 99 269 
183 6 193 209 126 523 204 326 
184 5 480 548 69 286 602 
185 5 212 291 228 116 376 
186 4 286 494 69 334 
187 2 18 34 
188 7 67 391 359 145 468 97 158 
189 7 106 85 109 255 2 195 43 
190 6 620 36 585 27 558 580 
191 7 405 55 527 331 396 98 45 
192 7 62 258 298 164 215 37 105 
193 6 183 209 126 523 204 326 
194 5 9 196 165 595 338 
195 7 2 64 287 189 106 43 318 
196 5 194 165 9 338 595 
197 4 572 489 35 565 
198 7 162 90 323 146 220 238 318 
199 7 345 232 262 333 71 217 48 
200 7 288 311 6 463 586 285 360 
201 7 505 596 464 496 455 476 47 
202 7 537 249 68 321 245 137 508 
203 7 156 170 264 578 487 491 111 
204 7 126 326 209 616 523 193 289 
205 2 372 47 
206 7 259 12 364 148 82 50 266 
207 4 177 266 233 147 
208 7 460 222 377 250 51 466 268 
209 6 126 193 523 183 204 299 
210 7 351 118 309 549 166 289 556 
211 7 354 79 270 613 140 463 369 
212 6 291 185 116 228 376 529 
213 7 438 466 119 557 453 16 440 
214 4 392 562 509 54 
215 7 105 22 164 59 368 90 107 
216 5 451 360 285 100 357 
217 7 81 333 48 345 304 72 601 
218 6 619 120 449 400 142 239 
219 6 15 29 8 242 525 483 
220 6 146 323 370 366 238 148 
221 6 426 389 88 475 602 315 
222 7 208 460 377 250 466 51 268 
223 5 478 514 504 214 58 
224 6 423 330 565 35 61 515 
225 6 341 554 320 439 337 125 
226 7 31 169 227 102 234 84 253 
227 7 234 253 533 226 591 566 135 
228 6 376 91 502 594 493 116 
229 7 113 247 25 305 176 365 136 
230 6 551 542 547 56 339 19 
231 7 265 275 363 87 445 350 117 
232 7 262 243 40 114 199 333 217 
233 7 147 266 207 177 12 473 487 
234 7 253 227 591 533 99 269 418 
235 4 110 399 573 600 
236 7 342 161 127 241 450 282 87 
237 4 136 176 366 177 
238 7 370 366 146 344 171 220 323 
239 7 120 400 142 619 218 449 297 
240 7 318 83 64 109 2 195 22 
241 7 127 87 342 236 132 350 161 
242 7 174 66 301 73 525 8 277 
243 7 40 232 114 262 84 310 333 
244 4 375 503 75 428 
245 7 321 137 508 467 68 488 617 
246 7 132 96 575 97 158 265 231 
247 7 113 229 176 25 305 136 237 
248 7 20 52 367 49 365 134 317 
249 7 537 68 202 294 320 439 225 
250 6 377 460 208 222 268 51 
251 6 436 432 501 76 430 510 
252 2 61 606 
253 7 234 591 99 269 418 533 227 
254 6 406 312 160 163 131 273 
255 7 173 106 85 43 189 109 2 
256 6 414 32 379 512 394 558 
257 6 299 556 523 289 209 79 
258 7 298 62 192 37 215 171 90 
259 7 206 12 364 148 50 82 147 
260 3 555 434 13 
261 7 567 143 118 309 26 167 21 
262 7 232 40 333 243 114 217 81 
263 4 395 422 443 65 
264 6 156 203 491 534 578 170 
265 7 231 275 363 445 117 87 131 
266 5 177 207 233 147 12 
267 5 336 479 13 382 139 
268 6 357 51 250 377 306 460 
269 7 99 418 545 253 591 524 533 
270 7 369 140 128 482 211 290 354 
271 7 181 104 378 102 92 340 611 
272 5 339 610 563 142 400 
273 7 160 131 117 575 406 445 363 
274 7 57 71 60 152 70 80 347 
275 7 363 265 231 445 117 131 273 
276 7 471 335 536 130 180 115 501 
277 7 358 73 172 174 159 427 38 
278 7 483 535 623 29 292 429 465 
279 7 30 304 23 347 48 149 81 
280 7 450 179 319 161 302 134 365 
281 7 14 300 282 419 350 127 236 
282 7 281 14 127 236 342 300 419 
283 7 496 464 53 39 596 505 476 
284 7 612 506 570 77 534 322 603 
285 7 360 6 586 463 306 200 216 
286 4 69 186 494 548 
287 7 195 82 2 64 43 50 364 
288 6 200 311 463 6 586 257 
289 7 299 523 257 556 210 118 204 
290 7 128 482 121 122 307 166 343 
291 6 212 116 185 529 228 376 
292 6 278 483 623 465 29 178 
293 4 380 8 490 346 
294 7 320 439 138 249 225 68 537 
295 4 411 327 378 104 
296 7 391 145 348 541 67 163 188 
297 7 155 21 239 120 26 619 400 
298 7 258 62 192 37 171 344 238 
299 6 257 523 556 289 209 126 
300 7 14 281 282 4 419 80 350 
301 7 66 159 329 242 346 174 612 
302 7 179 319 158 97 52 359 96 
303 7 383 427 38 525 73 356 174 
304 7 81 48 149 217 279 601 72 
305 7 25 365 134 49 176 113 229 
306 6 357 268 133 285 51 150 
307 7 121 166 549 128 351 129 290 
308 5 457 115 513 180 536 
309 7 118 351 210 261 167 567 352 
310 7 86 3 114 243 84 40 11 
311 7 463 288 200 6 211 556 257 
312 4 254 406 163 160 
313 7 378 104 117 131 181 445 406 
314 5 497 456 124 10 552 
315 7 475 389 24 409 602 221 325 
316 3 425 141 563 
317 7 477 473 462 367 44 248 20 
318 7 240 64 83 2 195 22 162 
319 7 179 302 161 96 158 450 97 
320 6 439 294 225 138 68 249 
321 7 245 137 508 467 488 68 617 
322 7 16 612 329 557 490 159 346 
323 7 146 220 198 162 90 238 148 
324 7 435 65 395 112 19 589 404 
325 5 546 409 447 24 100 
326 7 126 204 616 209 193 540 183 
327 6 340 411 92 611 295 553 
328 7 15 383 525 303 178 29 219 
329 7 346 301 490 66 322 8 557 
330 6 423 61 224 515 565 252 
331 7 396 405 519 191 615 45 527 
332 7 470 559 469 608 7 590 408 
333 7 217 81 48 345 262 72 40 
334 3 494 45 186 
335 7 276 504 471 588 130 514 536 
336 4 267 479 13 495 
337 7 125 385 544 554 17 577 583 
338 7 387 584 165 9 568 194 518 
339 6 56 272 230 542 551 142 
340 7 92 611 327 411 295 102 271 
341 7 554 225 17 337 125 488 434 
342 7 236 161 127 241 450 282 132 
343 7 41 290 121 307 129 518 122 
344 7 171 238 370 37 366 136 146 
345 7 48 333 217 81 199 347 262 
346 7 329 8 490 66 301 380 322 
347 7 23 80 30 152 345 48 279 
348 7 420 597 541 564 296 103 437 
349 7 153 107 368 83 59 109 85 
350 7 419 87 127 231 241 265 275 
351 7 210 166 307 309 121 352 549 
352 7 129 167 351 309 307 121 118 
353 5 454 362 449 610 28 
354 7 613 211 78 576 270 39 369 
355 7 532 63 455 433 201 579 581 
356 7 303 38 427 173 85 383 153 
357 5 268 306 250 377 51 
358 7 603 77 172 277 168 159 506 
359 7 188 97 158 67 391 145 96 
360 6 285 586 216 6 100 200 
361 5 123 398 522 543 386 
362 4 454 610 353 141 
363 7 275 445 265 231 117 131 273 
364 7 148 206 82 259 12 287 220 
365 7 134 305 49 25 176 20 248 
366 6 370 238 146 220 344 136 
367 6 20 248 52 49 317 176 
368 7 59 107 83 349 22 153 240 
369 7 270 140 482 128 290 122 211 
370 7 366 238 146 220 344 171 136 
371 2 579 63 
372 3 47 476 205 
373 7 559 470 469 332 590 7 408 
374 7 157 393 507 539 472 571 605 
375 6 75 503 244 461 428 388 
376 6 228 91 502 594 493 484 
377 6 250 460 208 222 268 51 
378 6 104 313 181 295 271 406 
379 6 486 256 103 437 499 5 
380 7 490 119 557 453 346 293 329 
381 6 573 110 517 600 235 384 
382 4 139 267 592 336 
383 7 525 303 15 328 427 73 38 
384 7 94 429 399 623 573 465 535 
385 7 544 125 337 577 583 93 554 
386 2 361 123 
387 7 338 584 518 568 122 482 165 
388 2 503 75 
389 7 475 602 315 88 221 426 480 
390 7 74 452 175 403 440 605 98 
391 7 67 145 188 296 359 468 163 
392 5 562 509 214 54 553 
393 7 157 374 605 507 615 539 472 
394 7 154 512 571 32 414 519 539 
395 6 65 112 263 404 19 435 
396 7 331 615 519 527 191 405 98 
397 7 498 582 413 485 95 531 587 
398 7 543 522 95 413 361 123 531 
399 6 235 94 442 573 384 373 
400 6 142 120 239 218 619 449 
401 1 88 
402 3 151 415 428 
403 7 175 452 390 74 98 609 440 
404 7 19 112 547 443 395 551 435 
405 7 191 331 45 396 55 527 98 
406 7 254 160 131 273 312 117 313 
407 5 182 459 524 33 418 
408 7 590 7 470 618 332 614 559 
409 5 325 546 24 447 315 
410 3 457 308 115 
411 4 327 295 340 92 
412 7 526 151 604 10 402 415 552 
413 7 95 531 485 543 398 397 522 
414 7 32 256 512 394 154 379 558 
415 5 151 604 402 526 552 
416 5 42 550 93 583 500 
417 7 521 101 472 520 507 89 157 
418 7 99 269 33 591 253 459 524 
419 7 350 87 127 241 231 265 281 
420 7 597 103 348 5 499 580 437 
421 6 614 431 408 7 590 470 
422 2 263 65 
423 5 330 224 61 565 515 
424 4 569 599 511 123 
425 3 141 316 563 
426 4 221 88 389 475 
427 7 38 73 303 174 525 383 277 
428 4 375 244 461 75 
429 6 465 623 384 94 278 535 
430 5 436 598 251 76 448 
431 4 608 332 470 7 
432 6 510 251 436 144 501 76 
433 6 108 444 532 372 47 42 
434 7 260 17 555 617 488 341 13 
435 7 112 19 324 404 395 547 65 
436 5 430 251 76 432 598 
437 6 486 597 103 564 379 420 
438 7 213 119 466 557 453 490 380 
439 5 320 294 225 138 554 
440 7 74 390 452 175 403 605 520 
441 4 458 422 65 263 
442 6 373 399 618 621 94 590 
443 5 404 263 547 19 542 
444 7 108 433 42 500 532 416 550 
445 7 117 363 275 131 265 273 231 
446 6 560 574 492 481 89 607 
447 4 546 325 409 24 
448 4 598 513 76 430 
449 6 619 218 120 26 353 400 
450 7 161 342 236 280 319 179 241 
451 5 609 55 216 357 403 
452 7 175 390 403 74 98 440 605 
453 7 119 380 438 466 557 213 490 
454 5 362 28 353 540 610 
455 6 581 355 63 201 516 505 
456 5 552 10 604 526 151 
457 6 308 115 410 513 180 536 
458 3 441 422 65 
459 7 182 407 524 418 33 269 99 
460 7 208 222 377 250 51 268 466 
461 3 375 75 503 
462 7 477 44 317 111 473 27 36 
463 7 6 311 200 288 285 211 354 
464 7 596 283 505 39 496 53 201 
465 6 429 623 384 278 94 292 
466 7 213 438 453 208 222 460 119 
467 6 488 617 137 508 321 341 
468 7 575 163 160 97 188 273 158 
469 6 559 332 608 470 373 7 
470 7 7 590 332 408 559 469 373 
471 7 276 536 180 115 130 335 501 
472 7 374 539 157 417 507 89 521 
473 7 147 111 317 477 233 462 44 
474 7 589 324 435 112 19 65 395 
475 7 389 315 602 221 88 24 426 
476 7 47 53 496 372 205 283 201 
477 7 462 44 317 473 111 27 145 
478 7 223 54 214 509 553 392 562 
479 4 336 267 495 13 
480 6 184 602 548 69 286 88 
481 7 607 89 446 560 492 574 472 
482 7 122 568 518 290 369 387 584 
483 5 278 535 29 292 623 
484 5 594 493 502 91 376 
485 6 531 413 95 397 498 543 
486 4 437 379 103 597 
487 7 170 578 203 111 147 156 12 
488 6 617 467 508 137 434 341 
489 3 197 572 35 
490 7 557 380 119 329 346 322 16 
491 6 570 578 534 264 156 203 
492 6 560 446 574 481 89 607 
493 5 594 502 484 91 376 
494 5 186 45 334 286 69 
495 3 479 110 600 
496 7 53 283 476 464 47 505 596 
497 4 314 124 456 10 
498 5 397 485 531 413 95 
499 7 5 580 103 379 420 558 597 
500 7 93 577 538 530 416 583 444 
501 7 180 536 251 76 115 432 471 
502 6 594 493 91 376 228 484 
503 5 75 375 244 388 461 
504 7 514 335 588 276 566 130 471 
505 7 596 201 464 496 283 53 39 
506 7 77 603 168 284 358 570 534 
507 7 157 374 393 101 472 605 520 
508 7 137 467 488 617 321 68 341 
509 5 392 562 54 214 553 
510 6 432 144 251 501 130 524 
511 6 599 587 569 582 424 123 
512 7 394 32 154 414 571 256 539 
513 3 448 308 76 
514 7 504 588 335 223 58 135 566 
515 3 565 330 61 
516 6 150 581 596 455 505 133 
517 3 600 381 110 
518 7 568 122 482 387 584 41 290 
519 7 615 396 154 331 394 571 539 
520 7 101 417 507 521 472 157 374 
521 7 417 89 472 101 607 520 481 
522 6 543 398 95 361 413 531 
523 6 299 257 209 289 556 126 
524 7 144 459 545 269 510 407 418 
525 7 383 15 73 427 174 303 242 
526 7 604 412 151 10 552 456 415 
527 7 98 191 396 55 331 615 405 
528 3 205 53 476 
529 6 564 291 116 212 185 622 
530 7 538 577 500 93 385 125 17 
531 7 485 413 95 543 397 398 522 
532 7 355 63 433 444 108 455 592 
533 7 566 46 234 253 269 545 99 
534 6 570 491 284 264 506 77 
535 6 483 278 29 623 384 429 
536 7 180 471 115 501 276 130 308 
537 7 68 202 249 508 137 294 320 
538 7 530 577 500 93 385 125 544 
539 7 571 374 472 157 154 394 607 
540 7 28 454 616 35 326 353 362 
541 4 348 163 296 564 
542 6 551 547 443 404 19 112 
543 7 398 522 95 413 531 485 361 
544 6 385 125 337 583 554 93 
545 7 46 144 524 269 130 533 99 
546 5 447 325 409 24 100 
547 6 19 551 404 542 112 443 
548 6 69 184 286 480 186 602 
549 7 166 128 307 121 351 210 290 
550 3 561 42 416 
551 6 547 542 19 404 443 112 
552 6 456 604 526 10 151 415 
553 6 54 509 392 562 411 214 
554 7 337 341 125 17 544 385 225 
555 3 260 13 434 
556 6 257 299 523 289 79 210 
557 7 490 119 380 16 438 322 213 
558 6 32 256 414 499 5 580 
559 7 469 332 470 373 608 7 590 
560 6 446 492 574 481 89 607 
561 2 550 42 
562 5 392 509 214 54 553 
563 5 141 425 316 610 272 
564 6 529 597 437 348 486 103 
565 6 515 330 224 35 423 197 
566 7 533 588 46 545 234 504 130 
567 7 261 143 118 309 26 289 167 
568 7 518 122 482 387 584 338 290 
569 4 424 599 511 123 
570 6 534 491 284 506 264 77 
571 7 539 154 394 512 374 519 472 
572 5 197 489 35 362 565 
573 6 381 110 235 399 384 94 
574 6 446 560 492 481 89 607 
575 7 468 273 160 246 163 131 406 
576 7 78 613 133 39 354 464 150 
577 7 538 530 500 93 385 583 544 
578 7 203 170 156 491 487 50 264 
579 5 371 63 382 355 581 
580 7 5 499 103 420 620 558 190 
581 5 455 516 63 579 355 
582 6 587 397 511 413 95 498 
583 5 93 544 385 416 577 
584 6 338 387 568 518 122 9 
585 6 190 27 36 620 492 560 
586 7 360 200 288 285 100 6 311 
587 7 582 511 599 123 413 95 397 
588 7 566 504 514 335 46 533 130 
589 7 474 324 435 19 112 404 547 
590 7 7 408 470 332 559 618 373 
591 7 253 99 418 234 269 33 533 
592 7 139 382 530 538 532 267 577 
593 7 11 124 182 33 407 459 497 
594 5 502 493 91 484 376 
595 2 194 9 
596 7 464 505 39 283 201 496 53 
597 7 437 103 420 564 348 486 5 
598 4 430 448 436 76 
599 6 511 569 587 424 123 582 
600 6 110 235 517 495 573 381 
601 7 72 149 81 217 304 84 333 
602 7 389 88 475 480 184 315 221 
603 7 77 358 506 168 172 159 277 
604 7 526 151 412 552 456 10 415 
605 7 393 74 507 157 390 374 98 
606 2 252 61 
607 7 481 89 472 539 446 521 560 
608 5 469 332 559 470 7 
609 7 55 451 403 175 98 527 191 
610 5 362 141 563 353 272 
611 7 92 340 327 411 102 295 271 
612 7 322 159 16 284 329 301 77 
613 7 78 354 39 576 283 464 211 
614 7 408 7 590 470 618 621 332 
615 7 519 396 331 393 527 154 571 
616 7 326 204 28 540 126 143 353 
617 6 488 467 508 434 137 341 
618 7 621 408 590 7 373 442 470 
619 6 218 120 449 400 239 142 
620 6 36 190 27 585 580 5 
621 7 618 408 590 7 442 373 614 
622 1 116 
623 6 429 465 278 384 94 535 
DEPOT_SECTION
   1
   -1
EOF
