NAME :  X-n895-kX-w178-c9.cctp
COMMENT : 	Adapted by Maziero, Usberti and Cavellucci from the Uchoa, Pecin, Pessoa, Poggi, Subramanian, and Vidal (2013)
TYPE :  CCTP
DIMENSION :    788
EDGE_WEIGHT_TYPE : 	EUC_2D	
CAPACITY : 	1816
VERTICES_WITHIN_COVERAGE :  9
VERTICES_WITH_DEMAND : 	178
NODE_COORD_SECTION
1 706 137
2 392 662
3 692 274
4 944 370
5 726 945
6 869 43
7 621 770
8 112 402
9 523 374
10 619 178
11 553 457
12 95 814
13 696 130
14 27 417
15 940 487
16 943 965
17 670 435
18 931 752
19 307 776
20 404 101
21 199 526
22 117 312
23 762 505
24 433 864
25 868 155
26 832 870
27 488 624
28 686 782
29 585 89
30 268 339
31 248 344
32 22 776
33 89 614
34 75 271
35 882 646
36 6 656
37 449 27
38 857 362
39 809 774
40 403 626
41 559 145
42 667 945
43 524 737
44 683 777
45 641 798
46 514 495
47 102 813
48 517 591
49 748 330
50 859 127
51 699 41
52 281 442
53 257 106
54 116 99
55 41 732
56 555 95
57 378 1
58 155 308
59 942 955
60 619 205
61 646 910
62 796 791
63 785 49
64 958 817
65 424 240
66 311 226
67 37 119
68 761 866
69 404 417
70 929 432
71 743 535
72 418 679
73 107 379
74 329 868
75 22 432
76 24 474
77 380 83
78 145 135
79 576 209
80 877 859
81 901 0
82 464 473
83 181 35
84 976 331
85 672 617
86 324 264
87 193 341
88 525 782
89 527 935
90 218 529
91 48 325
92 431 989
93 626 974
94 594 432
95 757 450
96 805 123
97 959 266
98 348 776
99 409 946
100 458 247
101 841 361
102 333 503
103 675 306
104 407 811
105 418 325
106 856 199
107 300 792
108 371 156
109 163 237
110 172 589
111 609 928
112 273 18
113 379 694
114 996 38
115 4 6
116 738 18
117 693 307
118 989 54
119 468 585
120 594 172
121 563 205
122 271 783
123 58 987
124 374 383
125 775 530
126 913 512
127 413 798
128 813 948
129 943 941
130 437 169
131 247 374
132 347 51
133 8 111
134 321 825
135 854 335
136 619 272
137 742 232
138 496 187
139 605 66
140 973 75
141 241 509
142 845 106
143 451 217
144 955 319
145 432 662
146 704 73
147 418 205
148 817 754
149 570 429
150 362 720
151 114 713
152 11 516
153 737 62
154 563 318
155 222 187
156 697 638
157 343 830
158 1 279
159 3 342
160 231 539
161 628 515
162 827 658
163 801 656
164 679 529
165 158 918
166 142 648
167 530 874
168 305 312
169 328 352
170 501 82
171 189 506
172 78 479
173 863 149
174 413 938
175 353 328
176 173 12
177 311 155
178 839 829
179 674 882
180 463 786
181 554 231
182 693 512
183 382 975
184 28 64
185 298 757
186 343 385
187 789 178
188 650 2
189 580 122
190 111 986
191 779 332
192 311 146
193 263 238
194 770 491
195 319 39
196 703 930
197 539 28
198 45 221
199 714 181
200 428 934
201 120 134
202 301 361
203 277 407
204 126 331
205 564 510
206 177 346
207 265 422
208 651 553
209 19 286
210 928 367
211 894 965
212 523 620
213 894 67
214 498 538
215 864 235
216 8 209
217 482 729
218 736 659
219 491 881
220 990 18
221 303 19
222 98 362
223 513 920
224 54 777
225 669 503
226 401 696
227 282 796
228 373 477
229 97 129
230 289 226
231 604 594
232 192 881
233 806 742
234 737 534
235 235 539
236 335 13
237 218 573
238 544 714
239 706 668
240 841 879
241 229 474
242 786 899
243 857 774
244 373 117
245 444 64
246 60 688
247 392 214
248 884 652
249 455 410
250 384 134
251 309 192
252 255 115
253 102 622
254 40 41
255 704 407
256 164 482
257 110 315
258 928 101
259 490 778
260 991 811
261 916 88
262 545 940
263 398 279
264 984 276
265 308 171
266 644 223
267 420 61
268 169 435
269 810 360
270 121 281
271 409 392
272 787 260
273 62 236
274 713 481
275 18 568
276 369 806
277 407 560
278 172 307
279 429 168
280 570 697
281 755 949
282 204 115
283 785 263
284 163 735
285 553 947
286 640 395
287 408 699
288 77 370
289 647 45
290 101 363
291 724 896
292 554 248
293 597 941
294 677 358
295 80 300
296 422 903
297 359 979
298 89 43
299 759 567
300 217 226
301 755 196
302 243 741
303 55 272
304 54 601
305 723 760
306 376 531
307 491 26
308 116 948
309 588 950
310 952 878
311 740 917
312 33 931
313 934 527
314 878 622
315 506 952
316 56 100
317 833 235
318 666 148
319 311 177
320 820 203
321 468 112
322 805 38
323 840 619
324 672 531
325 336 457
326 422 735
327 610 233
328 549 234
329 717 345
330 379 181
331 441 849
332 507 580
333 152 247
334 959 525
335 665 922
336 560 104
337 24 789
338 366 714
339 364 519
340 180 505
341 537 611
342 319 92
343 12 721
344 627 506
345 14 240
346 913 124
347 611 472
348 861 969
349 258 237
350 692 340
351 798 911
352 55 353
353 698 642
354 659 716
355 592 510
356 50 737
357 199 933
358 676 138
359 27 719
360 9 732
361 717 497
362 387 712
363 684 116
364 180 889
365 367 808
366 790 121
367 960 894
368 442 938
369 464 531
370 334 100
371 713 827
372 568 287
373 734 265
374 1 988
375 877 355
376 421 908
377 835 584
378 679 551
379 905 619
380 84 49
381 509 761
382 49 237
383 970 982
384 452 208
385 375 760
386 384 862
387 314 488
388 815 978
389 258 573
390 685 368
391 697 265
392 654 904
393 880 966
394 105 180
395 712 781
396 47 976
397 283 778
398 984 484
399 62 771
400 256 155
401 830 384
402 924 883
403 710 801
404 748 439
405 203 86
406 946 896
407 558 219
408 726 422
409 627 320
410 753 602
411 551 407
412 170 569
413 242 803
414 822 356
415 918 925
416 40 984
417 187 214
418 218 141
419 5 201
420 73 772
421 514 119
422 603 438
423 509 260
424 55 709
425 65 734
426 448 333
427 32 560
428 40 598
429 364 436
430 638 194
431 65 701
432 270 825
433 313 577
434 33 609
435 988 726
436 328 755
437 704 359
438 327 312
439 631 37
440 165 429
441 629 240
442 212 564
443 642 201
444 585 932
445 911 208
446 993 799
447 347 487
448 648 607
449 662 962
450 694 362
451 117 776
452 61 334
453 639 541
454 819 723
455 742 676
456 335 666
457 685 781
458 475 132
459 875 693
460 538 786
461 631 519
462 76 956
463 649 263
464 609 475
465 618 152
466 97 306
467 481 737
468 71 451
469 96 989
470 705 252
471 459 979
472 991 133
473 473 340
474 524 304
475 902 482
476 62 39
477 891 180
478 218 68
479 564 128
480 724 756
481 142 723
482 838 393
483 170 195
484 327 422
485 462 560
486 274 530
487 165 743
488 503 930
489 414 19
490 857 314
491 905 657
492 736 179
493 746 547
494 79 359
495 822 719
496 611 871
497 221 972
498 747 25
499 317 246
500 479 411
501 663 953
502 390 844
503 919 567
504 277 365
505 48 695
506 211 991
507 602 104
508 25 664
509 480 25
510 842 729
511 113 381
512 884 645
513 998 717
514 161 208
515 366 683
516 71 282
517 608 939
518 463 27
519 857 993
520 155 642
521 39 15
522 549 404
523 577 32
524 180 887
525 251 66
526 780 353
527 925 23
528 229 298
529 467 518
530 767 447
531 609 706
532 285 58
533 151 320
534 405 567
535 266 302
536 737 994
537 979 446
538 709 111
539 773 865
540 301 43
541 98 770
542 122 275
543 818 874
544 587 993
545 581 90
546 675 767
547 233 115
548 523 829
549 258 116
550 540 968
551 530 493
552 91 519
553 504 936
554 919 829
555 456 683
556 114 174
557 869 350
558 648 215
559 72 7
560 122 700
561 14 55
562 852 391
563 925 58
564 896 356
565 740 435
566 171 685
567 414 107
568 319 3
569 428 407
570 649 573
571 287 377
572 345 908
573 260 775
574 395 17
575 29 545
576 515 475
577 76 518
578 397 332
579 249 19
580 84 948
581 619 511
582 55 952
583 110 785
584 245 598
585 767 266
586 689 850
587 524 721
588 408 696
589 215 198
590 559 740
591 850 248
592 813 23
593 113 360
594 5 103
595 150 678
596 24 381
597 564 946
598 439 83
599 120 789
600 383 989
601 444 944
602 780 460
603 291 865
604 884 797
605 580 354
606 597 359
607 39 789
608 105 650
609 974 818
610 772 641
611 278 318
612 277 353
613 705 598
614 10 683
615 376 850
616 709 481
617 554 851
618 349 880
619 654 921
620 287 871
621 507 121
622 651 137
623 978 127
624 108 383
625 796 535
626 324 120
627 680 848
628 741 55
629 567 356
630 948 484
631 384 849
632 898 609
633 333 274
634 48 119
635 162 955
636 755 16
637 680 28
638 905 694
639 516 164
640 145 502
641 370 139
642 147 867
643 413 855
644 725 215
645 382 152
646 465 342
647 207 306
648 362 832
649 450 698
650 76 260
651 689 652
652 456 653
653 166 505
654 297 183
655 674 941
656 360 125
657 698 567
658 641 61
659 806 739
660 879 332
661 328 738
662 60 626
663 771 498
664 773 764
665 782 446
666 246 489
667 44 716
668 125 308
669 465 68
670 471 311
671 586 559
672 690 839
673 703 363
674 61 613
675 959 114
676 505 443
677 236 226
678 591 180
679 298 472
680 808 917
681 80 442
682 534 945
683 971 304
684 508 967
685 318 272
686 826 605
687 884 385
688 664 720
689 527 864
690 516 762
691 853 785
692 686 79
693 990 418
694 775 966
695 52 500
696 972 304
697 173 863
698 580 766
699 639 292
700 688 616
701 926 405
702 683 889
703 590 217
704 80 441
705 949 339
706 366 878
707 5 325
708 189 316
709 213 379
710 489 309
711 435 486
712 484 727
713 224 242
714 94 504
715 231 474
716 516 264
717 832 385
718 900 15
719 127 103
720 176 136
721 160 67
722 346 693
723 584 219
724 495 809
725 383 299
726 947 391
727 705 505
728 822 909
729 976 477
730 799 545
731 610 193
732 46 858
733 752 779
734 505 89
735 483 553
736 585 737
737 759 448
738 553 402
739 300 459
740 867 678
741 499 201
742 492 616
743 690 820
744 310 386
745 956 549
746 803 123
747 354 770
748 134 392
749 6 687
750 8 147
751 859 27
752 553 65
753 695 997
754 465 120
755 407 480
756 399 411
757 510 499
758 608 240
759 906 910
760 900 358
761 448 970
762 466 485
763 845 701
764 763 376
765 899 267
766 950 497
767 161 440
768 693 594
769 768 305
770 449 937
771 154 151
772 148 376
773 474 526
774 265 553
775 617 328
776 417 672
777 781 526
778 11 580
779 128 92
780 351 810
781 669 575
782 843 769
783 304 526
784 298 862
785 966 953
786 37 837
787 711 961
788 534 28
DEMAND_SECTION
2 67
3 86
4 82
5 99
6 54
7 52
8 54
9 71
10 70
11 61
12 74
13 91
14 97
15 92
16 63
17 84
18 90
19 53
20 66
21 79
22 57
23 53
24 72
25 58
26 94
27 86
28 64
29 74
30 82
31 78
32 77
33 78
34 58
35 51
36 64
37 61
38 87
39 92
40 80
41 62
42 97
43 88
44 78
45 78
46 86
47 75
48 62
49 96
50 82
51 50
52 61
53 86
54 67
55 92
56 57
57 51
58 70
59 93
60 83
61 99
62 64
63 62
64 78
65 64
66 81
67 85
68 56
69 56
70 87
71 91
72 92
73 58
74 68
75 93
76 58
77 98
78 87
79 85
80 94
81 71
82 93
83 50
84 60
85 90
86 95
87 87
88 85
89 79
90 54
91 89
92 98
93 98
94 85
95 97
96 94
97 69
98 62
99 56
100 98
101 65
102 55
103 93
104 52
105 69
106 60
107 97
108 55
109 85
110 52
111 66
112 72
113 69
114 50
115 73
116 54
117 74
118 93
119 84
120 69
121 99
122 74
123 94
124 98
125 55
126 95
127 74
128 88
129 100
130 79
131 85
132 78
133 71
134 96
135 96
136 76
137 50
138 100
139 70
140 55
141 70
142 82
143 64
144 61
145 97
146 82
147 89
148 81
149 73
150 63
151 78
152 74
153 69
154 53
155 78
156 71
157 52
158 96
159 92
160 75
161 63
162 56
163 93
164 86
165 58
166 58
167 93
168 78
169 62
170 64
171 83
172 100
173 88
174 79
175 75
176 76
177 62
178 62
179 68
COVERAGE_SECTION
2 9 776 72 515 113 226 40 588 145 287 
3 8 391 470 117 103 373 463 699 137 
4 9 210 726 705 701 760 84 564 144 687 
5 9 787 196 281 311 291 536 655 694 42 
6 9 751 213 718 81 563 527 592 322 261 
7 9 45 698 736 546 44 457 531 28 354 
8 9 624 511 73 748 290 222 593 772 288 
9 9 522 738 411 629 500 473 605 646 154 
10 9 731 430 120 465 60 678 443 558 703 
11 9 149 576 551 94 411 676 422 522 46 
12 9 47 583 599 451 541 420 399 224 607 
13 9 363 358 538 318 622 692 199 146 492 
14 9 75 596 468 76 704 681 288 352 494 
15 9 630 766 126 729 475 313 334 398 70 
16 9 59 129 785 383 415 211 393 759 406 
17 9 255 286 408 616 274 422 225 390 347 
18 5 435 638 604 64 513 
19 9 107 185 397 436 227 122 98 661 573 
20 9 567 77 244 250 598 267 656 641 245 
21 9 90 171 340 160 235 653 442 141 237 
22 9 257 668 204 466 270 533 542 58 295 
23 9 663 194 125 777 71 234 493 625 361 
24 8 331 643 296 376 502 386 631 104 
25 8 173 50 477 106 142 346 320 445 
26 9 240 543 728 178 80 351 680 242 539 
27 9 742 212 652 48 119 332 341 555 145 
28 9 457 44 546 395 403 743 305 480 45 
29 9 545 507 336 139 56 189 752 479 523 
30 9 612 31 611 504 535 202 131 571 168 
31 9 30 131 612 504 611 535 709 528 571 
32 9 337 607 224 399 360 55 356 420 343 
33 8 253 674 662 304 608 428 434 166 
34 9 650 516 303 295 273 466 382 270 542 
35 9 512 248 314 491 379 740 632 459 323 
36 8 508 614 749 434 505 662 246 343 
37 9 518 509 489 245 307 669 267 574 598 
38 9 101 557 375 135 562 717 401 687 414 
39 9 62 148 233 782 659 664 691 243 454 
40 9 2 145 776 72 534 652 277 515 226 
41 9 479 189 336 120 639 678 56 421 621 
42 9 655 501 449 335 619 196 61 392 787 
43 9 587 690 381 238 590 712 217 467 88 
44 9 457 28 546 395 403 305 743 480 45 
45 9 7 546 44 457 28 743 627 672 403 
46 9 757 551 576 214 762 773 205 529 676 
47 9 12 583 599 451 541 420 399 224 607 
48 9 332 341 212 742 27 119 735 214 485 
49 9 191 769 329 526 764 437 673 350 117 
50 9 173 142 25 96 346 746 477 213 261 
51 9 637 146 692 153 628 116 498 289 636 
52 9 739 207 679 203 484 325 387 666 715 
53 9 252 549 547 525 400 418 282 478 532 
54 9 719 779 201 229 78 721 380 316 298 
55 9 356 667 359 425 424 343 360 505 431 
56 9 336 545 752 29 479 189 421 507 41 
57 9 574 489 236 132 568 195 267 37 221 
58 9 533 278 668 708 204 22 270 206 257 
59 9 16 129 785 415 383 211 759 406 393 
60 9 731 430 443 10 327 266 558 703 441 
61 9 392 619 335 179 42 111 655 702 501 
62 9 39 664 148 733 233 782 659 178 691 
63 9 322 592 628 498 636 153 116 366 746 
64 9 609 260 446 554 310 18 402 367 604 
65 9 100 143 147 247 384 263 130 279 725 
66 9 499 230 251 86 654 685 193 319 633 
67 9 634 316 133 594 750 184 229 561 254 
68 9 539 242 291 311 351 543 371 680 26 
69 9 756 271 569 429 124 249 755 228 186 
70 9 701 726 537 630 15 475 693 4 210 
71 9 234 493 125 23 299 777 361 663 727 
72 9 776 588 145 287 226 2 649 555 113 
73 9 624 511 290 222 593 8 748 288 494 
74 9 618 784 603 706 157 620 572 134 648 
75 9 14 76 596 468 681 704 172 695 288 
76 9 695 75 152 468 172 14 681 704 577 
77 9 20 244 567 132 267 656 370 250 641 
78 9 771 201 720 719 54 779 229 556 394 
79 9 723 121 703 407 181 678 328 731 120 
80 9 240 26 178 554 402 759 543 604 728 
81 9 718 527 751 6 563 213 261 220 592 
82 9 762 711 529 576 676 757 773 46 755 
83 9 176 721 478 405 579 525 779 282 719 
84 9 144 683 696 705 4 264 210 97 726 
85 9 700 448 768 156 353 613 651 781 570 
86 8 685 633 499 66 438 168 230 193 
87 9 206 708 647 278 709 533 58 31 528 
88 9 460 690 381 259 724 43 548 590 698 
89 9 682 262 223 553 488 315 285 550 684 
90 9 160 21 235 141 442 171 237 340 666 
91 9 452 352 295 707 494 159 209 516 303 
92 8 761 471 601 99 600 183 368 174 
93 9 449 517 501 544 293 309 111 42 655 
94 9 422 149 347 464 11 411 738 522 286 
95 8 737 530 404 565 602 665 408 194 
96 9 746 366 142 50 187 173 25 63 320 
97 8 264 683 696 144 765 84 705 445 
98 9 747 436 385 780 276 365 19 661 107 
99 9 174 200 368 601 183 376 770 296 761 
100 8 143 65 384 423 147 716 741 670 
101 9 38 414 401 717 135 557 269 482 562 
102 9 447 387 339 783 325 679 228 306 739 
103 9 117 3 350 699 391 409 463 294 329 
104 9 127 502 276 365 631 643 615 648 331 
105 9 578 426 725 263 646 670 473 175 271 
106 9 320 215 477 317 25 591 173 445 187 
107 9 19 227 397 122 185 134 573 432 436 
108 9 645 641 250 330 656 244 279 626 177 
109 9 333 514 417 483 300 542 270 713 589 
110 7 412 442 237 520 166 21 584 
111 9 517 293 444 309 61 619 597 93 392 
112 9 579 221 540 532 568 195 525 236 478 
113 9 515 362 226 338 287 588 150 722 2 
114 9 118 220 140 527 563 675 623 258 261 
115 9 521 254 561 184 476 559 380 298 594 
116 9 498 636 628 153 51 63 637 146 322 
117 9 103 3 350 391 329 294 437 450 470 
118 9 114 140 220 563 675 527 623 258 472 
119 8 485 735 332 742 27 48 369 214 
120 9 678 10 731 465 60 79 41 121 703 
121 9 79 407 723 181 703 328 678 292 120 
122 9 397 573 227 107 413 19 185 432 302 
123 9 396 416 582 462 469 580 190 374 312 
124 9 186 271 756 69 429 169 578 175 569 
125 9 777 625 23 730 71 663 493 234 194 
126 9 313 475 15 766 630 334 503 745 729 
127 9 104 276 365 180 502 385 643 331 631 
128 9 388 680 351 728 694 348 242 281 519 
129 9 59 16 785 415 406 759 383 367 211 
130 9 279 147 384 143 458 754 645 330 138 
131 9 31 504 709 612 571 30 203 207 202 
132 9 195 236 77 540 342 370 221 568 57 
133 9 594 67 750 634 316 184 561 254 419 
134 9 157 780 107 648 74 784 227 365 603 
135 9 490 557 660 38 101 375 414 564 269 
136 9 699 463 441 758 327 409 372 266 775 
137 9 644 373 301 470 585 272 283 492 391 
138 9 741 639 384 143 458 130 621 121 279 
139 9 29 545 658 507 439 523 289 752 56 
140 9 118 675 114 563 258 623 261 220 472 
141 9 666 90 235 160 715 241 486 21 774 
142 9 50 96 746 173 25 366 213 6 346 
143 9 384 100 65 147 130 741 138 279 247 
144 9 705 683 696 84 4 264 97 210 760 
145 9 776 72 652 555 2 649 588 287 40 
146 9 692 51 153 538 628 363 637 13 289 
147 9 247 384 143 65 279 130 330 100 645 
148 9 233 659 39 782 454 495 510 62 243 
149 9 94 411 738 11 522 422 347 464 676 
150 9 338 362 113 722 515 661 385 226 436 
151 9 560 481 431 595 425 284 424 487 541 
152 8 575 76 695 427 275 778 577 172 
153 9 628 146 498 51 116 636 63 692 538 
154 9 372 629 605 474 606 775 409 9 292 
155 9 589 300 677 417 418 400 483 713 349 
156 9 353 651 700 239 85 613 218 768 448 
157 9 648 780 134 365 276 615 74 631 502 
158 9 209 345 707 303 159 382 91 216 516 
159 9 707 596 91 352 209 452 158 494 14 
160 9 235 90 442 141 21 237 774 389 486 
161 9 461 344 581 453 355 225 208 464 347 
162 9 163 323 740 763 686 35 248 512 610 
163 9 162 610 323 686 455 763 218 495 454 
164 9 324 182 378 225 727 208 453 657 781 
165 8 364 635 524 357 232 308 642 697 
166 9 520 595 608 566 253 560 33 110 151 
167 9 689 617 219 548 223 89 488 553 262 
168 9 438 611 535 685 30 169 633 202 612 
169 9 202 175 186 744 438 168 571 612 504 
170 9 734 421 621 669 321 754 752 56 458 
171 8 340 21 653 256 90 640 241 141 
172 8 468 714 695 681 704 577 552 76 
173 9 25 50 477 142 106 346 96 746 320 
174 8 99 200 368 376 601 296 770 761 
175 9 438 169 725 578 168 186 633 124 202 
176 9 83 721 478 579 405 298 779 525 380 
177 9 192 265 319 654 251 626 400 656 108 
178 9 26 691 80 240 543 604 62 243 782 
179 9 702 392 586 627 61 335 619 672 291 
180 8 259 724 127 381 467 690 217 104 
181 8 328 407 292 121 79 723 703 716 
182 9 727 164 225 324 361 616 274 378 234 
183 8 600 297 99 174 92 200 761 601 
184 9 561 254 476 594 316 521 133 67 380 
185 9 19 397 436 107 661 122 227 573 98 
186 9 124 744 169 484 202 429 571 175 756 
187 9 301 320 492 96 366 746 106 137 317 
188 9 439 637 289 658 51 139 523 692 116 
189 9 479 336 507 41 545 29 56 465 120 
190 9 469 308 462 580 123 635 396 582 416 
191 7 526 769 49 269 764 414 329 
192 9 177 265 626 319 654 251 370 656 342 
193 7 349 230 677 713 300 66 499 
194 8 663 23 602 777 125 95 530 737 
195 9 540 221 132 236 568 532 112 342 370 
196 9 5 655 787 42 311 335 291 501 702 
197 9 788 523 752 307 509 170 56 734 545 
198 8 382 273 345 216 419 650 303 34 
199 8 492 644 301 13 358 137 318 538 
200 8 368 174 601 770 99 376 296 761 
201 9 229 78 719 54 771 556 779 394 720 
202 9 571 504 612 744 169 30 186 168 611 
203 9 207 571 52 744 504 131 202 484 612 
204 9 22 257 668 533 593 58 466 290 222 
205 9 355 551 46 11 671 581 757 464 347 
206 9 87 708 533 278 772 58 709 647 204 
207 8 203 52 571 131 739 504 744 679 
208 9 453 570 378 781 324 164 461 161 657 
209 9 158 303 707 345 91 516 382 34 159 
210 9 4 760 726 564 705 701 687 375 144 
211 9 393 348 519 415 16 59 129 759 785 
212 8 341 48 742 27 332 119 652 735 
213 9 261 563 6 258 718 751 527 346 142 
214 9 735 773 369 529 757 485 332 46 551 
215 8 591 317 106 765 320 445 477 490 
216 8 419 345 198 382 273 750 158 209 
217 8 712 467 381 43 587 649 690 259 
218 9 455 239 610 353 156 651 410 700 163 
219 6 167 689 223 488 553 331 
220 9 114 118 140 527 563 718 81 675 261 
221 9 568 540 195 112 236 532 132 579 525 
222 9 290 593 73 494 288 624 511 8 204 
223 7 488 553 89 315 682 262 219 
224 9 399 607 420 32 337 356 425 541 55 
225 9 182 164 324 727 461 344 161 616 361 
226 9 588 287 362 113 72 776 2 515 338 
227 9 122 107 397 573 432 19 413 185 134 
228 7 447 755 325 429 339 102 306 
229 9 201 54 719 78 556 779 316 634 394 
230 7 66 193 349 499 251 654 86 
231 8 671 448 570 208 453 781 341 85 
232 5 524 364 697 642 165 
233 9 659 148 454 495 39 510 664 782 62 
234 9 71 493 23 125 299 361 727 777 182 
235 9 160 90 141 774 442 21 237 486 389 
236 9 568 195 221 132 57 540 574 112 532 
237 9 442 160 584 235 389 90 412 110 21 
238 9 587 43 590 280 736 690 381 712 698 
239 8 651 353 156 218 455 700 85 354 
240 9 26 543 728 80 178 680 351 242 539 
241 8 715 666 141 171 90 340 21 52 
242 9 351 680 539 728 68 543 311 26 128 
243 9 691 782 604 148 510 39 178 233 659 
244 9 656 250 641 20 77 645 108 567 370 
245 9 598 669 267 37 518 567 509 20 321 
246 8 431 505 424 667 508 359 425 55 
247 9 147 330 65 143 279 384 108 645 130 
248 9 35 512 491 314 740 379 459 632 638 
249 9 500 569 271 69 756 676 82 646 473 
250 9 641 645 244 108 656 20 567 330 77 
251 9 319 654 265 66 177 230 192 499 193 
252 9 549 53 547 400 418 525 282 405 478 
253 8 33 608 662 674 166 304 520 428 
254 9 476 184 521 561 380 559 298 115 316 
255 8 408 390 17 673 450 565 437 404 
256 6 653 340 640 171 767 268 
257 9 22 466 668 204 295 270 533 542 593 
258 8 261 346 675 563 213 140 623 472 
259 8 381 180 690 724 88 467 460 217 
260 9 446 609 64 554 310 18 435 367 513 
261 8 258 213 563 346 675 140 6 527 
262 9 285 682 89 597 550 223 315 444 553 
263 9 725 65 105 578 247 633 175 100 426 
264 7 97 696 683 144 84 705 765 
265 9 319 177 654 251 192 626 400 66 230 
266 8 558 443 441 430 60 327 463 758 
267 9 245 598 489 20 37 77 567 669 574 
268 6 440 767 256 748 772 8 
269 7 414 101 401 526 717 191 482 
270 9 542 668 22 466 257 58 295 333 34 
271 9 756 569 69 124 249 578 429 186 105 
272 8 283 585 769 317 137 373 591 320 
273 8 382 198 650 34 303 516 345 216 
274 9 616 361 727 182 225 565 95 23 404 
275 8 778 427 575 428 434 304 152 674 
276 9 365 780 648 157 98 104 747 502 127 
277 6 534 306 485 339 369 40 
278 9 58 708 533 647 206 87 668 204 22 
279 9 130 147 384 645 330 143 250 458 108 
280 6 238 531 736 590 587 43 
281 9 694 5 311 787 536 196 351 128 242 
282 9 405 547 418 720 478 252 53 549 78 
283 8 272 585 769 373 137 317 591 191 
284 5 487 481 566 151 560 
285 7 262 597 682 550 89 309 444 
286 9 17 294 390 606 422 94 450 255 673 
287 9 588 226 72 362 776 113 326 2 649 
288 9 494 222 290 352 73 624 593 511 452 
289 9 658 439 637 188 139 51 692 146 523 
290 9 222 593 73 624 494 511 288 8 204 
291 9 311 196 702 68 5 179 539 586 281 
292 8 328 181 407 372 716 723 121 79 
293 9 517 309 444 111 597 93 285 262 544 
294 9 390 450 350 673 437 329 103 286 117 
295 9 466 516 34 257 303 22 452 650 91 
296 8 376 200 174 368 24 770 99 601 
297 3 183 600 99 
298 9 380 476 559 254 521 54 779 184 316 
299 9 493 71 410 125 234 730 777 625 657 
300 8 713 677 589 417 155 349 193 109 
301 9 492 644 137 187 199 320 585 272 373 
302 3 573 122 397 
303 9 516 34 650 382 273 295 209 198 345 
304 8 428 674 434 662 33 427 778 275 
305 5 480 395 733 28 44 
306 5 339 277 534 102 447 
307 9 509 518 37 788 197 669 170 245 734 
308 8 580 190 462 469 635 165 582 123 
309 9 293 444 517 597 111 285 544 262 93 
310 9 367 406 402 759 415 554 64 129 609 
311 9 291 5 281 196 242 787 68 351 694 
312 6 582 396 462 416 580 123 
313 9 334 126 745 766 15 503 630 475 729 
314 9 35 512 632 379 248 323 491 686 377 
315 6 684 553 488 89 682 223 
316 9 634 67 184 133 229 594 380 54 254 
317 8 591 215 320 106 272 283 187 585 
318 9 358 622 13 363 465 430 10 538 199 
319 9 265 251 654 177 192 66 230 626 400 
320 8 317 106 187 215 591 301 272 25 
321 9 754 458 621 598 669 734 170 421 245 
322 9 592 63 636 751 498 6 628 116 153 
323 9 686 377 314 162 35 512 163 248 632 
324 9 164 378 182 225 208 453 727 461 657 
325 9 447 429 484 739 387 679 228 102 52 
326 8 287 588 362 226 649 385 72 113 
327 9 758 441 703 60 723 266 136 731 79 
328 8 181 292 407 121 79 723 703 716 
329 8 437 673 350 450 49 390 294 117 
330 9 108 645 247 641 147 250 279 130 656 
331 9 24 643 104 502 296 631 127 386 219 
332 9 48 735 119 742 212 214 341 27 485 
333 9 109 514 542 270 417 483 58 278 668 
334 9 745 313 766 15 630 126 398 729 503 
335 9 619 392 655 61 42 501 702 196 449 
336 9 56 479 545 189 29 752 41 507 421 
337 9 32 607 224 399 786 420 356 55 360 
338 9 150 362 113 722 515 226 287 661 588 
339 5 306 102 447 228 755 
340 6 171 653 21 256 640 90 
341 8 212 48 332 742 27 231 671 119 
342 9 370 626 532 132 540 195 656 192 244 
343 8 360 359 55 667 749 614 356 505 
344 9 161 581 461 355 464 453 347 225 324 
345 8 216 382 198 419 158 209 273 303 
346 8 258 261 675 50 25 173 213 477 
347 9 464 422 344 581 355 94 161 461 149 
348 9 393 519 211 388 128 415 728 680 759 
349 7 193 677 230 713 300 66 589 
350 9 437 450 294 329 673 390 117 103 49 
351 9 680 242 728 128 543 539 26 240 281 
352 9 452 494 288 91 596 222 290 159 707 
353 9 156 651 239 700 85 218 613 768 455 
354 6 688 531 546 7 44 239 
355 9 581 205 344 161 464 461 347 671 453 
356 9 55 425 667 424 359 399 431 224 343 
357 7 635 165 497 364 524 232 506 
358 9 318 13 363 622 538 199 465 692 430 
359 8 343 667 55 360 356 424 505 749 
360 8 343 359 55 667 356 749 32 614 
361 9 727 274 616 182 234 23 71 225 164 
362 9 113 226 338 287 150 588 515 326 72 
363 9 13 358 538 318 692 622 146 658 199 
364 6 524 232 697 165 642 357 
365 9 276 780 648 157 98 104 747 502 615 
366 9 746 96 142 187 50 63 173 153 492 
367 9 406 310 402 129 415 759 785 59 16 
368 7 601 770 200 174 761 99 376 
369 7 773 529 485 735 214 762 119 
370 9 342 626 656 244 77 132 192 641 177 
371 9 743 403 672 586 627 395 28 457 44 
372 8 154 292 474 136 328 716 181 758 
373 9 470 585 137 391 3 283 644 769 272 
374 7 416 396 123 312 582 462 580 
375 9 557 564 38 660 760 135 687 101 562 
376 8 296 200 174 368 99 770 601 24 
377 8 686 323 730 314 625 632 162 35 
378 9 324 164 657 781 208 570 182 453 768 
379 7 632 314 512 35 491 248 503 
380 9 298 476 559 254 521 184 316 54 779 
381 9 690 259 88 43 467 460 217 712 587 
382 8 273 198 345 650 303 34 216 516 
383 9 785 16 59 129 415 211 367 406 393 
384 9 143 147 100 130 65 279 741 138 247 
385 9 747 98 150 276 338 436 362 365 661 
386 9 631 615 502 706 643 648 618 24 157 
387 9 679 102 739 447 325 783 52 486 339 
388 9 128 694 519 348 680 393 281 351 728 
389 9 774 584 237 235 160 486 442 433 90 
390 9 450 294 673 437 350 329 255 286 117 
391 8 3 470 373 117 103 463 137 644 
392 9 61 619 335 179 702 655 42 501 111 
393 9 211 348 519 415 759 16 59 388 129 
394 8 556 201 229 771 78 514 483 273 
395 6 403 305 28 457 480 44 
396 8 416 123 582 462 580 312 374 469 
397 9 122 227 107 573 19 185 413 432 436 
398 9 729 630 766 537 15 334 313 693 745 
399 9 224 420 607 356 541 425 32 337 55 
400 9 549 252 418 547 155 53 654 265 177 
401 7 717 482 562 101 414 269 38 
402 9 406 310 759 367 415 80 554 129 59 
403 8 395 371 743 28 457 44 305 672 
404 8 565 95 737 530 408 665 602 255 
405 9 478 282 547 721 525 83 418 720 53 
406 9 367 310 402 415 759 129 59 785 16 
407 8 181 121 328 79 723 292 703 678 
408 8 565 255 404 95 737 530 17 764 
409 9 775 699 136 606 103 605 463 294 154 
410 9 299 610 613 493 218 768 657 700 156 
411 9 522 738 149 9 11 94 629 676 605 
412 7 110 442 237 21 90 653 340 
413 6 573 122 432 227 397 107 
414 9 269 101 401 717 38 135 482 526 562 
415 9 759 129 59 406 402 16 211 367 393 
416 8 396 123 582 374 462 312 469 580 
417 9 483 514 300 589 109 155 713 333 677 
418 9 282 547 400 720 252 155 549 53 405 
419 8 216 345 198 750 382 273 158 209 
420 9 399 224 541 607 425 583 356 451 12 
421 9 621 734 170 458 639 321 56 336 754 
422 9 94 149 347 464 11 286 411 738 522 
423 8 716 474 292 328 100 710 181 741 
424 8 431 667 505 246 55 425 356 359 
425 9 356 55 424 667 431 399 420 359 505 
426 9 646 473 105 670 710 578 271 725 263 
427 7 575 275 778 428 304 152 434 
428 8 434 304 674 662 778 275 427 33 
429 8 325 484 228 756 69 124 447 186 
430 8 443 60 558 10 731 266 441 465 
431 8 424 246 505 667 425 55 356 359 
432 7 227 413 122 107 603 784 397 
433 6 783 774 389 486 584 102 
434 9 428 304 674 662 778 275 427 36 33 
435 6 513 18 446 260 638 609 
436 9 661 98 19 185 747 107 385 150 397 
437 8 673 450 329 390 350 294 255 49 
438 9 168 175 633 169 685 86 611 202 725 
439 9 289 658 139 188 637 523 51 29 692 
440 7 268 767 748 256 772 8 709 
441 9 327 758 266 463 558 136 60 443 703 
442 9 237 160 235 90 21 412 110 389 584 
443 8 430 558 266 60 10 731 441 327 
444 9 293 309 111 517 597 285 262 682 89 
445 6 477 215 106 765 25 591 
446 9 260 609 64 435 18 554 513 310 367 
447 7 102 228 325 387 339 679 306 
448 9 85 570 781 700 231 768 208 156 613 
449 9 501 42 655 93 335 619 753 787 196 
450 8 673 437 390 294 350 329 255 117 
451 9 583 599 541 47 12 420 399 487 481 
452 9 91 352 494 288 295 222 466 290 257 
453 9 208 461 161 324 570 581 344 378 164 
454 8 495 659 233 510 148 763 39 782 
455 7 218 239 610 353 651 156 163 
456 5 722 515 113 2 338 
457 9 28 44 546 395 403 743 305 480 45 
458 9 754 321 621 421 639 734 130 170 279 
459 7 740 638 763 248 491 35 510 
460 9 88 690 381 548 698 259 724 43 590 
461 9 161 344 581 453 208 355 225 324 164 
462 9 580 582 396 123 469 308 190 416 312 
463 9 441 136 699 266 3 758 391 558 327 
464 9 347 344 422 581 355 161 94 461 205 
465 9 10 120 622 678 731 430 189 318 507 
466 9 257 295 22 668 270 516 204 542 34 
467 8 217 712 381 259 43 690 587 649 
468 8 681 704 172 76 75 695 14 714 
469 9 190 123 462 580 308 396 582 416 635 
470 8 391 3 373 137 644 117 463 103 
471 5 761 92 601 770 368 
472 3 623 675 140 
473 9 646 426 670 710 105 9 474 500 249 
474 8 710 154 716 423 372 670 473 292 
475 7 126 15 630 766 313 70 334 
476 9 254 380 298 521 559 184 561 316 115 
477 7 25 445 106 173 346 215 50 
478 9 405 525 282 547 83 53 579 721 252 
479 9 189 41 336 56 545 29 507 421 120 
480 5 305 395 733 28 44 
481 6 284 151 487 560 595 566 
482 8 717 401 562 101 38 414 269 687 
483 9 514 417 109 589 771 155 333 300 720 
484 9 325 186 429 744 739 52 203 679 571 
485 8 735 119 369 773 214 529 332 277 
486 9 774 783 141 235 160 389 666 90 387 
487 5 284 481 451 566 151 
488 6 553 223 315 89 682 684 
489 9 574 37 57 267 518 245 509 598 669 
490 9 135 660 557 375 38 101 414 564 760 
491 8 248 512 35 638 379 740 314 459 
492 8 199 301 644 137 187 13 358 538 
493 9 71 234 299 125 777 23 625 657 730 
494 9 288 222 290 352 452 73 593 624 511 
495 8 454 510 659 233 763 148 782 39 
496 9 61 392 111 617 179 444 619 517 293 
497 4 506 357 635 165 
498 9 116 636 628 153 63 51 322 146 592 
499 8 86 66 685 633 230 193 251 349 
500 9 249 676 569 9 82 522 646 473 411 
501 9 42 449 655 335 619 93 61 196 787 
502 9 631 615 386 643 648 104 706 276 365 
503 6 745 313 632 379 126 334 
504 9 612 571 202 30 131 31 744 203 611 
505 8 246 424 431 667 359 55 508 614 
506 4 497 357 635 165 
507 9 29 545 189 139 336 479 56 465 658 
508 8 36 614 749 505 246 662 424 431 
509 9 307 518 37 669 245 788 197 170 489 
510 8 495 454 763 148 659 233 782 243 
511 9 624 73 8 593 290 222 748 772 288 
512 9 35 248 314 491 379 740 632 459 323 
513 6 435 18 446 260 638 609 
514 9 483 417 109 333 589 771 556 300 394 
515 9 113 722 338 2 456 362 150 226 588 
516 9 34 303 295 650 466 273 91 270 382 
517 9 111 293 309 444 93 597 61 619 285 
518 9 37 509 307 669 245 489 267 598 170 
519 9 348 393 388 211 128 694 16 680 415 
520 8 166 595 566 608 110 253 560 33 
521 9 254 476 559 115 561 184 380 298 316 
522 9 411 738 149 9 629 11 94 605 676 
523 9 197 752 788 139 439 29 545 56 658 
524 6 364 232 697 165 642 357 
525 9 478 532 53 579 252 549 405 547 112 
526 6 191 764 269 49 414 769 
527 9 718 81 563 213 6 220 261 751 118 
528 7 647 535 708 31 611 87 713 
529 8 773 369 762 214 735 485 82 711 
530 7 737 95 665 602 404 565 194 
531 6 736 280 354 688 590 7 
532 9 540 525 195 112 221 342 579 53 132 
533 9 58 278 204 668 22 206 708 257 87 
534 6 277 306 485 40 339 119 
535 7 611 30 528 168 31 612 647 
536 9 753 787 694 281 5 196 311 388 449 
537 9 693 729 398 630 70 15 766 726 701 
538 9 13 363 146 692 358 153 318 622 628 
539 9 68 242 543 351 291 26 311 680 728 
540 9 195 532 221 112 568 236 132 342 525 
541 9 583 451 420 599 399 47 12 224 425 
542 9 270 668 22 466 333 257 34 58 650 
543 9 26 240 728 242 351 680 539 178 68 
544 7 93 309 597 293 550 285 517 
545 9 29 336 507 56 189 139 752 479 523 
546 9 44 457 28 395 45 688 305 403 480 
547 9 252 549 53 282 418 405 400 478 525 
548 9 724 689 617 167 460 88 219 259 690 
549 9 252 53 547 400 418 525 282 192 478 
550 7 682 285 262 684 597 89 315 
551 9 46 757 576 205 11 214 676 355 762 
552 4 577 714 172 695 
553 6 488 315 223 89 682 684 
554 9 64 604 80 402 609 310 406 260 367 
555 9 649 652 145 72 776 588 287 712 217 
556 8 394 201 771 229 78 514 483 719 
557 9 375 38 135 660 564 101 760 490 687 
558 8 266 443 430 60 441 327 731 10 
559 9 476 521 298 380 254 115 184 561 316 
560 8 151 481 595 566 608 284 166 431 
561 9 184 254 521 594 115 476 133 316 67 
562 9 482 717 401 38 101 687 375 557 414 
563 9 261 213 527 258 718 140 6 81 118 
564 9 760 375 557 660 687 210 38 135 4 
565 8 404 408 95 737 530 665 255 602 
566 5 595 520 166 481 284 
567 9 20 598 250 77 244 267 245 754 321 
568 9 236 221 195 540 112 132 57 532 579 
569 9 271 69 249 756 500 124 429 82 646 
570 9 208 781 448 453 378 324 657 768 85 
571 9 504 202 744 612 203 131 30 169 207 
572 4 618 706 74 386 
573 9 122 397 227 413 302 185 107 19 432 
574 9 489 57 267 37 132 236 77 245 518 
575 7 427 275 152 778 695 428 577 
576 9 46 551 757 676 11 762 82 205 529 
577 5 552 714 695 172 575 
578 9 105 725 175 426 263 124 271 646 169 
579 9 112 525 532 221 540 478 83 568 195 
580 7 462 582 308 469 396 123 190 
581 9 344 161 461 355 453 464 347 225 208 
582 7 462 396 580 312 123 416 469 
583 9 451 599 541 47 12 420 399 224 425 
584 6 389 237 442 774 235 160 
585 8 283 272 373 769 137 470 644 49 
586 9 627 672 743 371 179 702 403 291 392 
587 9 43 238 590 712 690 217 381 467 280 
588 9 287 226 72 362 776 113 2 326 145 
589 9 155 300 417 677 483 713 514 418 349 
590 9 736 238 698 43 587 280 690 460 88 
591 8 215 317 106 765 320 272 490 283 
592 9 322 63 751 636 6 498 116 628 153 
593 9 290 222 73 511 624 204 494 288 748 
594 9 133 67 750 184 634 561 316 254 476 
595 8 566 166 520 560 481 151 608 284 
596 9 14 352 159 75 288 494 707 452 91 
597 8 285 262 309 444 682 293 550 89 
598 9 245 267 669 567 20 321 754 37 77 
599 8 583 451 541 47 12 420 399 487 
600 7 183 297 92 99 174 761 200 
601 7 368 770 200 761 174 99 471 
602 8 665 530 737 95 194 404 663 565 
603 4 620 784 74 432 
604 9 691 243 554 782 178 80 18 64 39 
605 9 629 606 154 775 738 409 522 9 411 
606 9 605 629 775 409 154 286 738 411 522 
607 9 337 224 32 399 420 786 356 55 12 
608 9 253 166 33 520 662 560 595 674 246 
609 9 64 260 446 554 310 367 18 402 406 
610 9 163 218 410 455 162 686 239 323 353 
611 9 535 30 168 612 31 504 202 438 528 
612 9 504 30 202 571 31 611 131 744 168 
613 9 768 700 657 85 156 781 353 410 378 
614 8 749 508 36 343 359 505 667 360 
615 9 631 386 502 648 706 643 157 618 365 
616 9 274 361 727 182 225 565 95 164 404 
617 9 689 167 548 496 460 219 724 88 223 
618 9 706 74 572 386 615 631 157 648 784 
619 9 335 61 392 42 655 501 449 702 179 
620 3 603 784 74 
621 9 421 734 458 170 321 754 639 56 336 
622 9 318 358 465 363 13 10 430 507 538 
623 4 472 675 140 258 
624 9 73 511 8 290 222 593 748 288 494 
625 6 730 777 125 23 663 299 
626 9 370 342 192 656 177 244 641 265 319 
627 9 586 672 743 179 371 702 403 392 45 
628 9 153 498 116 146 636 51 63 692 538 
629 9 605 606 154 9 738 522 411 775 474 
630 9 15 766 729 398 334 126 313 475 537 
631 9 502 615 386 648 643 706 104 365 157 
632 8 379 314 512 35 248 503 491 323 
633 9 86 685 499 438 168 66 725 175 230 
634 9 67 316 133 594 750 229 184 54 561 
635 9 165 357 308 190 497 506 364 524 469 
636 9 498 116 628 63 153 322 592 51 146 
637 9 51 289 188 439 146 658 692 116 153 
638 5 459 491 740 248 35 
639 9 138 741 621 421 41 458 479 121 754 
640 4 653 256 340 171 
641 9 250 108 656 645 244 330 626 20 370 
642 6 697 524 364 232 165 47 
643 9 24 502 331 386 631 615 104 296 706 
644 8 137 199 301 492 470 373 391 585 
645 9 108 250 641 330 656 244 279 567 20 
646 9 473 426 670 710 105 9 249 578 474 
647 9 708 528 278 87 206 58 31 533 535 
648 9 157 615 365 780 276 631 502 386 134 
649 9 555 72 145 287 588 776 217 652 712 
650 9 34 516 303 273 382 295 542 198 270 
651 8 353 156 239 700 85 218 613 455 
652 9 145 555 27 776 649 72 742 40 588 
653 6 340 640 171 256 21 90 
654 9 251 319 265 177 192 230 66 400 193 
655 9 42 501 335 449 619 196 61 392 787 
656 9 244 641 250 108 645 370 626 77 20 
657 9 378 768 781 613 164 324 208 570 700 
658 9 289 439 139 692 637 507 188 51 29 
659 9 233 148 454 495 39 510 664 782 62 
660 9 557 375 135 490 564 760 38 101 687 
661 9 436 185 150 747 19 98 338 722 385 
662 9 674 304 33 434 428 253 608 508 36 
663 7 194 23 777 125 602 625 71 
664 6 733 62 39 233 659 148 
665 7 602 530 737 95 404 565 194 
666 9 141 715 241 90 486 235 160 679 52 
667 9 424 55 359 505 356 431 425 246 343 
668 9 22 257 204 270 466 533 58 542 295 
669 9 245 598 170 518 37 321 734 267 509 
670 9 710 473 426 646 474 105 423 100 716 
671 9 231 355 205 453 581 461 161 208 570 
672 9 586 627 743 371 403 179 702 28 457 
673 8 437 450 390 329 350 294 255 49 
674 8 662 304 428 33 434 253 608 427 
675 6 623 258 472 140 346 261 
676 9 576 500 11 82 46 551 757 762 411 
677 7 300 713 349 193 589 155 417 
678 9 120 731 10 79 703 60 121 465 723 
679 9 739 387 52 325 102 447 783 666 484 
680 9 351 728 242 128 543 240 26 694 388 
681 8 704 468 172 8 14 75 76 695 
682 9 89 262 285 550 315 597 553 223 488 
683 9 696 144 84 264 97 705 4 210 765 
684 6 315 553 550 682 89 488 
685 8 86 633 499 438 168 66 230 535 
686 8 323 377 162 314 163 610 730 35 
687 9 375 564 760 562 38 557 482 701 210 
688 6 354 546 531 44 457 7 
689 8 167 617 548 219 223 724 488 89 
690 9 381 88 43 259 460 587 467 217 712 
691 9 243 782 604 39 178 148 62 510 233 
692 9 146 363 538 51 658 637 13 289 153 
693 9 537 726 729 70 701 4 398 630 210 
694 9 281 128 388 536 5 680 311 351 787 
695 8 577 172 76 714 552 152 575 468 
696 9 683 144 84 264 97 705 4 210 765 
697 5 524 232 642 364 165 
698 9 736 590 7 460 88 43 238 690 531 
699 9 136 409 463 103 775 441 3 117 758 
700 9 85 768 156 613 353 651 448 781 657 
701 9 726 70 210 4 687 760 564 693 537 
702 9 179 392 335 586 627 291 61 619 196 
703 9 723 79 327 758 121 60 731 407 678 
704 8 681 468 172 8 14 75 624 76 
705 9 144 84 4 210 683 696 726 760 564 
706 9 618 386 615 631 572 74 502 648 643 
707 9 159 209 91 158 352 452 596 303 295 
708 9 278 647 87 206 58 533 528 668 31 
709 8 131 87 31 206 772 504 207 708 
710 8 670 473 474 646 426 716 423 100 
711 6 755 762 82 529 369 773 
712 8 217 467 587 43 381 649 690 259 
713 7 300 677 349 193 589 417 155 
714 4 552 577 172 695 
715 8 241 666 141 171 90 52 340 21 
716 8 423 292 474 328 181 710 372 100 
717 7 401 482 562 101 414 269 38 
718 9 81 527 6 751 563 213 261 592 220 
719 9 779 54 201 78 229 721 771 720 380 
720 9 771 78 282 418 201 405 483 719 547 
721 9 83 779 405 719 54 176 478 282 78 
722 9 515 338 456 150 113 362 661 2 226 
723 9 703 79 121 407 327 181 758 731 60 
724 9 259 548 180 88 460 381 690 689 331 
725 9 263 578 175 105 633 438 86 685 65 
726 9 4 701 210 70 693 705 760 564 687 
727 9 182 361 616 274 164 225 324 234 71 
728 9 680 351 543 240 242 26 128 539 388 
729 9 398 630 537 766 15 334 693 70 313 
730 6 625 777 125 299 377 493 
731 9 60 10 678 120 430 703 443 723 79 
732 6 786 12 607 47 337 312 
733 6 664 305 480 395 62 403 
734 9 170 421 621 321 669 56 754 458 752 
735 8 214 485 773 369 119 332 529 48 
736 8 590 698 531 280 238 7 43 587 
737 8 95 530 404 565 665 602 408 194 
738 9 522 411 149 9 629 94 11 605 422 
739 9 679 52 387 325 484 207 102 447 203 
740 7 459 248 763 35 512 638 491 
741 8 138 639 384 143 328 423 100 407 
742 9 27 212 48 119 332 341 652 485 735 
743 9 672 371 403 586 627 28 457 44 395 
744 9 571 202 186 169 203 504 484 612 207 
745 6 334 313 503 766 126 15 
746 9 96 366 142 50 187 173 25 63 320 
747 9 98 385 436 276 365 780 661 19 150 
748 9 772 8 511 624 73 593 290 222 440 
749 8 614 508 36 343 359 505 360 667 
750 8 133 67 594 634 419 216 316 198 
751 9 6 718 592 81 213 322 527 563 63 
752 9 56 545 29 197 336 523 788 139 734 
753 9 787 536 449 501 42 655 5 196 93 
754 9 321 458 621 598 421 734 170 669 567 
755 5 711 228 82 339 762 
756 9 69 271 569 124 429 249 186 755 228 
757 9 46 551 576 214 773 762 529 82 205 
758 9 327 441 703 723 136 60 266 79 463 
759 9 415 402 406 129 211 310 367 59 80 
760 9 564 375 210 687 557 660 38 4 135 
761 6 471 92 601 368 770 200 
762 9 82 711 529 773 369 757 46 576 676 
763 7 510 495 459 740 454 162 659 
764 5 526 191 49 269 329 
765 9 215 591 97 445 490 660 317 144 106 
766 9 630 15 334 729 313 398 126 475 745 
767 6 268 440 256 748 8 640 
768 9 613 700 657 85 781 156 378 448 353 
769 8 191 49 585 283 272 526 373 329 
770 5 368 601 200 761 174 
771 9 78 720 201 556 483 719 394 514 229 
772 9 748 511 593 73 624 206 8 290 204 
773 8 369 529 214 735 485 762 757 46 
774 9 389 486 235 160 783 584 141 237 90 
775 9 409 606 699 605 154 136 629 103 372 
776 9 72 145 588 2 287 226 555 649 652 
777 8 125 625 730 23 663 194 71 493 
778 9 275 427 428 434 575 304 674 152 662 
779 9 719 54 721 201 78 229 380 298 771 
780 9 365 276 157 648 98 134 747 615 631 
781 9 570 378 208 657 768 448 85 613 324 
782 9 243 691 148 39 510 233 659 604 62 
783 9 486 102 387 774 433 679 447 339 141 
784 5 603 620 74 134 432 
785 9 59 16 129 383 415 367 406 211 759 
786 8 732 607 337 12 224 32 47 399 
787 9 5 196 753 536 655 281 42 449 501 
788 9 197 752 307 523 509 170 734 56 518 
DEPOT_SECTION
   1
   -1
EOF
