NAME :  X-n801-kX-w320-c11.cctp
COMMENT : 	Adapted by Maziero, Usberti and Cavellucci from the Uchoa, Pecin, Pessoa, Poggi, Subramanian, and Vidal (2013)
TYPE :  CCTP
DIMENSION :    801
EDGE_WEIGHT_TYPE : 	EUC_2D	
CAPACITY : 	20
VERTICES_WITHIN_COVERAGE :  11
VERTICES_WITH_DEMAND : 	320
NODE_COORD_SECTION
1 0 0
2 674 825
3 549 534
4 43 315
5 542 420
6 45 580
7 180 450
8 369 618
9 287 721
10 36 426
11 680 338
12 42 81
13 942 119
14 247 68
15 432 549
16 514 857
17 554 976
18 103 728
19 271 73
20 310 859
21 874 538
22 358 642
23 989 42
24 538 271
25 854 443
26 596 563
27 827 228
28 380 40
29 152 224
30 726 258
31 981 544
32 600 381
33 629 799
34 488 12
35 100 542
36 37 272
37 847 980
38 949 124
39 787 917
40 111 958
41 571 968
42 2 409
43 95 2
44 318 447
45 271 856
46 873 697
47 34 274
48 733 17
49 620 125
50 611 334
51 66 848
52 507 711
53 993 152
54 596 683
55 605 980
56 372 833
57 968 699
58 36 620
59 518 566
60 138 457
61 828 421
62 467 39
63 626 645
64 192 923
65 56 363
66 252 349
67 202 896
68 999 331
69 843 462
70 83 975
71 475 135
72 601 55
73 578 43
74 480 854
75 124 825
76 121 228
77 355 326
78 291 944
79 784 563
80 260 251
81 472 918
82 193 715
83 539 592
84 794 290
85 930 315
86 190 654
87 429 292
88 79 779
89 931 409
90 114 765
91 948 685
92 550 915
93 383 979
94 127 64
95 541 935
96 218 159
97 396 194
98 216 85
99 106 843
100 174 744
101 782 117
102 699 379
103 497 355
104 87 161
105 558 199
106 721 10
107 18 53
108 704 674
109 443 783
110 755 58
111 928 666
112 347 805
113 360 600
114 101 119
115 938 556
116 422 848
117 934 275
118 391 807
119 712 230
120 908 359
121 992 823
122 80 246
123 367 837
124 865 661
125 67 146
126 956 582
127 977 663
128 930 343
129 896 542
130 631 472
131 62 636
132 817 759
133 914 195
134 46 591
135 102 825
136 822 527
137 763 684
138 975 128
139 26 941
140 314 34
141 787 474
142 512 291
143 718 832
144 244 931
145 534 425
146 585 799
147 513 990
148 641 633
149 254 283
150 448 389
151 702 44
152 109 823
153 402 190
154 184 314
155 26 270
156 333 949
157 132 174
158 203 842
159 182 78
160 575 723
161 807 656
162 745 757
163 320 523
164 175 626
165 488 947
166 376 858
167 540 797
168 52 401
169 441 748
170 491 459
171 398 734
172 202 560
173 636 652
174 813 892
175 403 311
176 201 878
177 245 641
178 894 2
179 515 142
180 701 895
181 143 590
182 612 652
183 650 986
184 932 420
185 410 762
186 676 219
187 174 236
188 204 25
189 828 312
190 120 96
191 409 434
192 405 549
193 379 787
194 810 191
195 129 755
196 499 596
197 754 620
198 937 430
199 61 519
200 29 34
201 843 640
202 520 251
203 385 685
204 619 501
205 239 564
206 908 111
207 234 353
208 467 896
209 742 499
210 277 981
211 194 265
212 851 885
213 850 444
214 131 847
215 806 302
216 627 401
217 267 788
218 805 211
219 61 985
220 729 142
221 402 812
222 956 593
223 907 977
224 670 71
225 863 184
226 74 25
227 741 581
228 38 919
229 963 467
230 979 558
231 916 241
232 4 676
233 217 612
234 311 756
235 235 42
236 815 106
237 848 461
238 46 198
239 460 210
240 293 234
241 274 248
242 986 983
243 800 608
244 342 852
245 623 95
246 258 221
247 420 244
248 444 16
249 223 518
250 821 540
251 939 766
252 157 549
253 106 921
254 961 583
255 925 959
256 619 540
257 507 97
258 790 509
259 404 252
260 44 843
261 363 737
262 752 492
263 352 216
264 226 577
265 817 913
266 115 221
267 200 58
268 38 628
269 711 595
270 479 404
271 332 129
272 929 145
273 93 139
274 269 260
275 583 421
276 424 47
277 715 796
278 240 26
279 743 62
280 633 515
281 528 202
282 976 456
283 54 828
284 739 497
285 191 890
286 384 316
287 713 629
288 502 205
289 563 779
290 205 892
291 368 18
292 766 621
293 207 679
294 506 481
295 622 691
296 946 987
297 890 793
298 182 900
299 530 981
300 540 313
301 78 213
302 456 978
303 99 363
304 623 878
305 448 422
306 379 61
307 792 953
308 347 720
309 373 793
310 330 512
311 22 7
312 445 147
313 431 90
314 517 208
315 659 423
316 724 233
317 906 970
318 476 43
319 522 237
320 571 317
321 280 476
322 571 424
323 885 129
324 452 500
325 743 544
326 493 777
327 976 918
328 412 154
329 686 502
330 762 39
331 473 60
332 570 414
333 201 567
334 226 169
335 12 159
336 627 681
337 589 346
338 563 637
339 678 455
340 361 119
341 849 338
342 776 929
343 511 327
344 128 163
345 183 433
346 697 48
347 3 800
348 361 10
349 499 410
350 601 34
351 73 124
352 908 439
353 136 356
354 203 835
355 355 733
356 221 582
357 961 627
358 661 144
359 875 331
360 455 290
361 104 892
362 281 548
363 378 180
364 329 906
365 41 229
366 320 770
367 191 805
368 767 162
369 72 237
370 491 176
371 716 497
372 391 682
373 828 526
374 457 274
375 934 814
376 33 480
377 765 225
378 337 209
379 903 78
380 223 461
381 668 475
382 201 270
383 261 879
384 697 920
385 152 937
386 573 385
387 724 568
388 892 43
389 159 283
390 931 623
391 585 768
392 449 408
393 459 705
394 203 692
395 215 862
396 712 480
397 150 407
398 274 443
399 565 501
400 230 119
401 157 111
402 481 368
403 662 102
404 252 72
405 737 554
406 111 96
407 110 348
408 232 480
409 970 989
410 910 901
411 598 686
412 327 371
413 267 682
414 571 194
415 383 829
416 897 166
417 869 417
418 244 30
419 809 255
420 4 177
421 340 996
422 32 602
423 793 712
424 916 104
425 77 731
426 489 744
427 330 707
428 600 540
429 803 954
430 123 430
431 998 17
432 229 468
433 67 511
434 897 279
435 448 185
436 680 762
437 752 263
438 724 44
439 911 15
440 29 685
441 563 589
442 972 125
443 696 82
444 61 393
445 536 881
446 963 57
447 690 225
448 759 430
449 535 47
450 468 19
451 860 45
452 810 233
453 753 13
454 217 331
455 747 415
456 106 630
457 207 218
458 389 952
459 974 969
460 242 335
461 249 118
462 118 982
463 741 606
464 15 459
465 52 684
466 990 159
467 325 995
468 926 999
469 123 903
470 544 369
471 582 67
472 676 344
473 793 276
474 774 131
475 447 520
476 675 775
477 723 323
478 624 108
479 431 317
480 531 961
481 401 76
482 493 604
483 125 188
484 558 463
485 646 587
486 736 62
487 698 127
488 270 234
489 100 418
490 154 568
491 396 895
492 890 116
493 740 150
494 509 345
495 42 516
496 837 341
497 363 882
498 9 260
499 543 783
500 238 33
501 101 723
502 823 319
503 376 753
504 421 707
505 912 300
506 564 169
507 101 247
508 418 767
509 79 258
510 806 598
511 857 357
512 465 7
513 718 756
514 571 33
515 858 934
516 498 115
517 270 966
518 837 44
519 897 98
520 659 168
521 6 579
522 33 841
523 846 736
524 792 131
525 524 301
526 545 773
527 154 997
528 945 365
529 248 354
530 206 831
531 351 798
532 868 116
533 936 974
534 809 145
535 542 321
536 515 23
537 167 912
538 594 490
539 910 515
540 542 619
541 855 937
542 758 776
543 217 592
544 810 821
545 735 333
546 950 557
547 305 532
548 880 441
549 877 400
550 771 528
551 592 578
552 520 681
553 175 953
554 276 21
555 574 742
556 199 633
557 852 821
558 476 514
559 326 299
560 589 781
561 960 350
562 830 120
563 0 291
564 65 496
565 877 905
566 753 97
567 329 24
568 207 545
569 811 359
570 113 342
571 120 573
572 295 581
573 298 609
574 731 893
575 763 273
576 816 651
577 702 61
578 880 426
579 719 232
580 955 689
581 715 141
582 788 762
583 34 817
584 105 22
585 857 788
586 134 359
587 831 163
588 361 870
589 975 958
590 553 819
591 807 673
592 19 838
593 746 121
594 130 380
595 741 511
596 80 424
597 173 767
598 906 426
599 990 111
600 748 520
601 92 895
602 371 978
603 986 670
604 929 905
605 661 524
606 974 197
607 742 652
608 732 747
609 870 188
610 612 890
611 348 284
612 973 109
613 34 437
614 137 997
615 474 63
616 665 444
617 300 335
618 856 104
619 866 249
620 528 91
621 140 964
622 25 937
623 848 367
624 486 786
625 857 918
626 357 860
627 823 709
628 162 150
629 77 809
630 516 380
631 772 832
632 387 199
633 261 767
634 619 645
635 754 57
636 692 838
637 193 932
638 738 941
639 406 976
640 811 360
641 487 965
642 396 197
643 444 940
644 182 954
645 85 539
646 70 483
647 161 570
648 447 194
649 757 845
650 692 506
651 930 251
652 950 549
653 601 86
654 143 117
655 698 634
656 238 877
657 543 987
658 761 809
659 494 134
660 562 925
661 838 282
662 834 210
663 926 436
664 375 833
665 568 225
666 106 594
667 675 986
668 835 632
669 144 83
670 272 373
671 4 496
672 299 740
673 805 641
674 482 600
675 255 448
676 834 470
677 117 696
678 837 469
679 345 585
680 703 523
681 476 565
682 893 816
683 271 417
684 877 492
685 605 578
686 156 613
687 607 721
688 527 358
689 54 581
690 591 478
691 7 37
692 529 997
693 705 436
694 110 166
695 702 173
696 962 671
697 262 521
698 82 75
699 1000 703
700 607 536
701 764 227
702 827 744
703 788 463
704 450 136
705 72 466
706 119 348
707 32 58
708 178 910
709 381 159
710 686 207
711 276 358
712 683 682
713 708 748
714 707 282
715 141 999
716 558 169
717 403 688
718 315 671
719 827 880
720 601 481
721 641 950
722 98 116
723 611 668
724 313 616
725 928 521
726 595 498
727 350 295
728 397 963
729 595 904
730 798 339
731 978 460
732 260 800
733 302 615
734 653 302
735 5 126
736 512 800
737 541 691
738 559 690
739 24 21
740 465 522
741 125 178
742 868 947
743 204 141
744 636 919
745 703 643
746 385 155
747 790 245
748 244 833
749 244 666
750 870 543
751 606 359
752 712 497
753 553 343
754 532 975
755 555 276
756 165 33
757 757 787
758 537 457
759 120 51
760 932 958
761 815 623
762 502 636
763 859 508
764 42 675
765 10 496
766 999 300
767 908 736
768 735 980
769 459 564
770 49 877
771 483 587
772 945 557
773 602 2
774 633 936
775 379 182
776 814 486
777 710 500
778 178 687
779 466 406
780 186 732
781 381 762
782 69 478
783 193 411
784 109 653
785 40 10
786 142 303
787 90 111
788 334 499
789 443 482
790 187 290
791 262 691
792 814 908
793 171 930
794 446 214
795 893 96
796 205 410
797 137 120
798 115 986
799 745 541
800 368 926
801 77 338
DEMAND_SECTION
2 1
3 1
4 1
5 1
6 1
7 1
8 1
9 1
10 1
11 1
12 1
13 1
14 1
15 1
16 1
17 1
18 1
19 1
20 1
21 1
22 1
23 1
24 1
25 1
26 1
27 1
28 1
29 1
30 1
31 1
32 1
33 1
34 1
35 1
36 1
37 1
38 1
39 1
40 1
41 1
42 1
43 1
44 1
45 1
46 1
47 1
48 1
49 1
50 1
51 1
52 1
53 1
54 1
55 1
56 1
57 1
58 1
59 1
60 1
61 1
62 1
63 1
64 1
65 1
66 1
67 1
68 1
69 1
70 1
71 1
72 1
73 1
74 1
75 1
76 1
77 1
78 1
79 1
80 1
81 1
82 1
83 1
84 1
85 1
86 1
87 1
88 1
89 1
90 1
91 1
92 1
93 1
94 1
95 1
96 1
97 1
98 1
99 1
100 1
101 1
102 1
103 1
104 1
105 1
106 1
107 1
108 1
109 1
110 1
111 1
112 1
113 1
114 1
115 1
116 1
117 1
118 1
119 1
120 1
121 1
122 1
123 1
124 1
125 1
126 1
127 1
128 1
129 1
130 1
131 1
132 1
133 1
134 1
135 1
136 1
137 1
138 1
139 1
140 1
141 1
142 1
143 1
144 1
145 1
146 1
147 1
148 1
149 1
150 1
151 1
152 1
153 1
154 1
155 1
156 1
157 1
158 1
159 1
160 1
161 1
162 1
163 1
164 1
165 1
166 1
167 1
168 1
169 1
170 1
171 1
172 1
173 1
174 1
175 1
176 1
177 1
178 1
179 1
180 1
181 1
182 1
183 1
184 1
185 1
186 1
187 1
188 1
189 1
190 1
191 1
192 1
193 1
194 1
195 1
196 1
197 1
198 1
199 1
200 1
201 1
202 1
203 1
204 1
205 1
206 1
207 1
208 1
209 1
210 1
211 1
212 1
213 1
214 1
215 1
216 1
217 1
218 1
219 1
220 1
221 1
222 1
223 1
224 1
225 1
226 1
227 1
228 1
229 1
230 1
231 1
232 1
233 1
234 1
235 1
236 1
237 1
238 1
239 1
240 1
241 1
242 1
243 1
244 1
245 1
246 1
247 1
248 1
249 1
250 1
251 1
252 1
253 1
254 1
255 1
256 1
257 1
258 1
259 1
260 1
261 1
262 1
263 1
264 1
265 1
266 1
267 1
268 1
269 1
270 1
271 1
272 1
273 1
274 1
275 1
276 1
277 1
278 1
279 1
280 1
281 1
282 1
283 1
284 1
285 1
286 1
287 1
288 1
289 1
290 1
291 1
292 1
293 1
294 1
295 1
296 1
297 1
298 1
299 1
300 1
301 1
302 1
303 1
304 1
305 1
306 1
307 1
308 1
309 1
310 1
311 1
312 1
313 1
314 1
315 1
316 1
317 1
318 1
319 1
320 1
321 1
COVERAGE_SECTION
2 11 636 143 277 476 33 436 304 180 513 713 649 
3 11 399 59 428 26 441 700 726 83 551 538 294 
4 11 801 47 36 155 563 65 498 509 303 407 570 
5 11 145 322 332 758 275 349 484 386 630 470 170 
6 11 689 134 422 521 58 268 645 131 199 666 495 
7 11 345 783 60 380 796 397 432 408 430 675 249 
8 11 113 22 679 724 733 372 203 573 718 192 717 
9 11 672 791 234 413 427 633 718 366 308 355 217 
10 11 613 168 42 464 444 596 376 705 782 489 65 
11 11 472 102 734 477 545 714 50 751 216 315 32 
12 11 707 107 698 200 351 691 787 735 739 226 722 
13 11 38 272 424 442 612 138 206 599 519 492 795 
14 11 404 19 235 98 500 418 278 267 461 400 554 
15 11 192 769 475 740 681 324 558 771 789 674 196 
16 11 445 74 590 736 208 167 92 81 624 499 95 
17 11 657 41 754 299 480 692 95 147 55 660 92 
18 11 501 425 677 195 90 88 465 100 784 597 764 
19 11 404 14 235 461 418 500 554 98 278 140 400 
20 11 244 45 626 364 588 383 497 123 112 166 56 
21 11 750 129 763 539 684 373 136 250 725 115 772 
22 11 8 113 203 372 718 724 679 733 717 573 427 
23 11 431 446 599 612 439 442 138 13 38 379 424 
24 11 755 202 142 525 319 300 535 665 320 343 314 
25 11 213 237 69 548 417 578 678 61 676 549 352 
26 11 551 685 428 700 256 441 3 485 280 83 726 
27 11 452 662 218 419 194 747 619 661 225 473 609 
28 11 306 291 348 481 276 567 140 248 313 340 62 
29 11 187 76 266 483 741 157 457 507 211 389 344 
30 11 316 437 579 119 714 575 447 701 377 186 477 
31 11 230 652 546 772 254 115 126 222 725 539 229 
32 11 751 386 216 337 275 332 50 322 470 753 5 
33 11 146 560 2 476 391 436 289 636 304 555 590 
34 11 450 512 536 318 62 248 331 615 449 276 514 
35 11 645 571 199 433 666 252 564 490 689 181 495 
36 11 47 155 498 563 4 365 509 369 122 507 301 
37 11 742 541 515 429 223 317 307 625 265 792 255 
38 11 13 442 138 612 272 424 206 599 53 466 519 
39 11 342 792 265 174 307 429 719 638 574 625 541 
40 11 462 798 621 70 253 385 614 715 469 219 527 
41 11 17 657 55 754 480 299 660 95 692 92 147 
42 11 10 613 168 464 444 65 376 596 671 765 705 
43 11 584 226 759 785 94 200 311 739 698 756 707 
44 11 398 321 788 683 675 310 163 412 547 670 432 
45 11 383 748 20 656 395 732 217 158 530 244 354 
46 11 124 523 627 767 111 201 702 591 576 668 91 
47 11 36 155 498 563 4 365 509 369 122 507 301 
48 11 106 453 438 330 151 486 635 279 110 346 577 
49 11 478 245 653 358 403 520 471 506 72 224 716 
50 11 337 751 320 32 734 753 386 472 11 216 535 
51 11 260 283 522 770 99 629 135 583 592 152 601 
52 11 552 426 737 393 738 326 160 526 555 762 169 
53 11 466 138 442 599 612 606 38 13 272 133 424 
54 11 411 723 295 336 182 738 687 634 160 63 173 
55 11 41 183 721 17 774 657 744 660 667 754 299 
56 11 664 123 415 166 626 118 244 221 112 588 309 
57 11 580 91 696 699 603 127 111 767 357 251 390 
58 11 268 422 131 134 6 689 521 764 232 440 465 
59 11 83 196 771 681 3 482 674 441 540 769 558 
60 11 430 7 345 397 489 596 705 782 783 646 594 
61 11 213 25 417 69 237 676 678 578 549 548 623 
62 11 318 450 331 615 512 248 34 276 536 313 449 
63 11 634 173 182 148 723 336 295 54 411 485 338 
64 11 637 708 793 298 537 67 285 644 290 553 385 
65 11 444 801 168 303 4 407 570 706 10 596 489 
66 11 529 460 207 711 670 454 617 149 683 154 796 
67 11 290 285 176 298 708 64 395 637 537 656 793 
68 11 766 561 528 128 85 117 505 120 89 651 184 
69 11 237 678 676 213 25 776 548 61 684 763 417 
70 11 219 40 798 462 614 621 253 715 139 622 228 
71 11 659 704 516 312 179 370 257 435 313 648 328 
72 11 350 471 73 653 514 245 773 478 449 224 49 
73 11 514 471 350 72 449 773 653 536 245 620 478 
74 11 16 208 116 445 736 81 624 326 109 590 167 
75 11 152 135 214 99 629 90 51 88 195 283 361 
76 11 266 507 29 483 122 301 369 741 509 187 157 
77 11 286 727 559 611 175 412 617 479 87 711 259 
78 11 517 210 156 144 364 467 421 383 800 656 20 
79 11 550 510 250 325 799 227 243 405 136 258 600 
80 11 274 241 488 246 149 240 382 457 211 559 790 
81 11 208 165 643 641 302 74 95 480 16 445 92 
82 11 780 394 778 100 293 597 86 749 791 195 677 
83 11 441 540 59 196 482 338 551 771 762 674 3 
84 11 473 215 575 419 189 502 661 747 730 437 452 
85 11 505 128 117 561 120 434 528 359 651 68 766 
86 11 556 293 164 778 394 233 686 749 177 82 543 
87 11 479 360 175 374 259 247 286 727 794 77 611 
88 11 629 90 425 135 152 195 283 18 583 501 75 
89 11 184 198 663 598 352 528 578 120 549 548 417 
90 11 195 88 18 501 425 629 152 597 75 135 100 
91 11 580 696 57 111 127 603 699 357 390 767 46 
92 11 660 95 445 729 480 41 17 754 610 16 299 
93 11 602 728 639 458 421 800 156 467 643 302 491 
94 11 759 669 190 406 698 584 756 654 401 159 797 
95 11 92 660 480 754 17 41 299 657 165 445 147 
96 11 334 743 400 461 628 457 98 246 401 654 157 
97 11 642 153 632 775 363 709 746 328 263 648 435 
98 11 267 14 159 400 404 235 461 19 500 743 188 
99 11 135 152 75 214 51 629 361 283 601 260 469 
100 11 780 597 82 195 778 394 367 90 18 293 677 
101 11 474 524 236 566 593 534 368 562 493 220 110 
102 11 472 11 693 545 315 455 477 616 216 339 448 
103 11 494 402 688 343 630 470 270 349 535 753 150 
104 11 273 694 125 351 344 741 114 722 157 483 787 
105 11 414 665 281 716 506 314 319 288 202 179 370 
106 11 48 453 438 151 346 330 486 577 279 635 110 
107 11 707 691 200 739 12 311 785 226 698 735 351 
108 11 712 745 655 607 287 137 173 197 713 148 336 
109 11 508 169 185 624 221 326 118 426 193 781 171 
110 11 635 279 486 330 438 566 453 48 577 151 106 
111 11 91 696 580 390 127 357 57 603 46 124 767 
112 11 531 309 193 56 123 664 415 118 366 244 221 
113 11 8 679 22 724 733 573 192 572 718 163 547 
114 11 722 787 273 406 351 190 797 654 125 104 694 
115 11 772 546 652 126 254 725 222 230 129 31 539 
116 11 221 415 166 664 118 56 491 123 74 588 208 
117 11 651 505 434 231 85 128 766 619 561 359 133 
118 11 221 193 309 415 664 56 123 531 112 781 508 
119 11 579 316 447 30 710 186 437 701 714 377 695 
120 11 128 528 359 85 511 549 561 89 505 623 341 
121 11 375 251 327 682 604 297 410 699 767 57 589 
122 11 369 509 507 301 266 365 76 36 47 155 238 
123 11 56 664 415 166 626 244 588 112 118 531 221 
124 11 201 46 668 576 161 591 111 673 761 627 390 
125 11 351 104 273 787 114 722 694 238 335 344 735 
126 11 254 222 546 772 115 230 652 31 357 390 725 
127 11 603 696 580 91 57 357 699 111 390 222 254 
128 11 120 528 85 561 505 359 89 117 68 434 511 
129 11 21 750 539 725 115 763 772 684 652 546 373 
130 11 204 720 381 690 538 280 616 726 339 315 605 
131 11 268 58 456 764 422 134 465 784 689 6 440 
132 11 702 582 523 585 627 423 542 544 757 557 162 
133 11 416 609 231 225 272 651 606 323 619 38 13 
134 11 6 689 422 58 268 521 131 666 645 456 35 
135 11 152 99 75 629 214 51 283 88 90 260 361 
136 11 373 250 258 763 776 550 750 79 21 676 678 
137 11 607 423 591 161 108 673 576 292 197 627 608 
138 11 442 612 599 38 53 13 466 272 424 206 606 
139 11 622 228 219 70 770 601 253 40 361 260 522 
140 11 567 554 348 291 19 28 306 418 404 278 14 
141 11 703 776 258 262 676 678 209 448 284 550 69 
142 11 525 24 300 343 202 535 755 494 319 360 374 
143 11 636 277 649 2 658 631 757 574 180 542 476 
144 11 517 78 637 64 656 67 290 383 210 644 285 
145 11 5 758 322 332 349 484 630 275 170 386 470 
146 11 560 289 391 590 33 167 499 526 555 736 160 
147 11 692 299 754 657 480 641 17 165 302 41 95 
148 11 63 173 634 182 485 723 336 655 295 745 712 
149 11 274 80 241 488 460 382 454 246 211 240 66 
150 11 392 779 305 270 402 349 103 191 630 479 494 
151 11 346 577 438 443 486 106 48 224 279 635 110 
152 11 135 75 99 214 629 51 88 283 90 260 361 
153 11 97 642 632 775 363 328 709 746 648 435 794 
154 11 790 454 389 786 382 211 460 207 353 586 706 
155 11 47 36 498 563 365 4 509 369 122 238 301 
156 11 78 800 364 467 421 602 458 93 210 517 728 
157 11 741 344 483 694 628 104 266 273 29 797 76 
158 11 354 530 395 176 367 748 285 656 290 67 298 
159 11 267 98 669 401 756 654 94 188 797 400 235 
160 11 555 687 738 411 54 391 737 289 295 526 560 
161 11 576 673 591 761 668 201 243 137 292 627 124 
162 11 608 542 513 757 713 582 277 658 436 423 132 
163 11 310 547 788 362 697 321 572 679 44 113 192 
164 11 686 556 86 233 181 543 647 778 293 490 333 
165 11 641 81 302 480 643 147 754 95 299 208 692 
166 11 588 626 123 56 664 497 415 244 491 116 118 
167 11 499 526 590 736 289 146 326 560 391 624 16 
168 11 444 10 596 65 613 42 489 303 705 801 464 
169 11 508 185 109 171 504 393 426 624 326 781 503 
170 11 294 758 349 789 145 270 305 324 558 779 5 
171 11 503 185 781 261 504 508 355 169 717 203 372 
172 11 333 568 264 356 543 205 647 252 249 490 233 
173 11 63 634 148 182 336 723 295 54 411 712 655 
174 11 792 719 265 39 212 625 342 515 541 429 307 
175 11 286 479 87 77 727 360 259 611 374 247 559 
176 11 290 285 67 395 298 158 656 708 354 64 530 
177 11 749 233 413 556 791 293 543 86 573 733 356 
178 11 439 388 451 518 379 446 795 519 23 424 431 
179 11 659 516 71 370 257 716 620 506 281 288 704 
180 11 384 574 636 638 143 744 2 649 774 304 721 
181 11 490 686 647 571 666 252 164 456 333 35 172 
182 11 634 63 723 173 336 54 148 411 295 338 738 
183 11 667 721 55 774 744 41 384 768 17 638 729 
184 11 89 198 663 598 352 578 229 548 282 528 549 
185 11 508 781 171 169 503 109 193 309 118 221 261 
186 11 447 710 119 579 316 695 520 30 714 358 734 
187 11 29 211 457 382 389 76 790 266 483 507 786 
188 11 267 235 500 278 418 756 159 14 98 404 554 
189 11 502 215 496 661 341 84 730 473 569 359 640 
190 11 406 669 797 114 722 654 94 787 401 698 759 
191 11 305 392 789 150 779 270 324 170 44 349 475 
192 11 15 475 769 740 113 324 679 681 789 8 558 
193 11 309 118 781 531 221 503 112 185 415 508 664 
194 11 218 662 587 27 452 534 368 225 377 701 747 
195 11 90 18 501 100 597 88 425 677 780 75 152 
196 11 482 674 771 59 681 83 762 540 769 441 338 
197 11 292 463 607 227 287 243 269 673 510 745 655 
198 11 184 663 89 352 598 229 282 731 578 548 528 
199 11 433 495 564 645 646 782 35 376 705 765 671 
200 11 739 107 691 707 785 311 226 12 698 43 584 
201 11 668 576 124 761 673 161 591 243 510 46 627 
202 11 319 24 142 314 755 288 281 525 665 105 300 
203 11 372 717 504 22 171 308 261 355 427 8 503 
204 11 280 726 538 720 130 690 700 256 428 605 399 
205 11 264 356 543 172 568 333 362 249 697 233 572 
206 11 424 519 492 795 323 379 13 272 532 38 618 
207 11 529 66 460 454 711 670 154 796 617 783 149 
208 11 81 74 643 165 16 116 445 491 641 302 95 
209 11 284 262 595 600 371 752 777 396 550 799 325 
210 11 517 78 467 144 156 421 364 602 637 644 64 
211 11 382 790 187 389 457 154 29 149 786 80 454 
212 11 719 565 625 174 265 792 515 541 410 557 742 
213 11 25 237 69 678 548 676 61 417 578 549 684 
214 11 75 99 152 135 361 469 601 51 629 158 354 
215 11 84 189 502 473 661 730 419 496 575 341 569 
216 11 32 315 751 275 386 616 332 322 337 50 130 
217 11 732 633 748 234 366 672 45 9 530 367 354 
218 11 194 452 27 662 747 377 419 701 587 368 225 
219 11 70 798 139 40 462 622 228 614 253 715 621 
220 11 493 581 593 487 695 368 474 566 101 524 358 
221 11 118 415 193 664 309 56 116 123 508 109 185 
222 11 126 254 357 546 772 390 115 230 652 31 127 
223 11 317 255 468 533 760 296 742 37 409 515 541 
224 11 443 403 577 346 151 245 478 438 487 486 72 
225 11 609 416 587 662 133 194 27 323 218 619 534 
226 11 43 584 785 200 739 698 707 759 311 107 12 
227 11 387 463 405 269 325 799 197 79 292 287 550 
228 11 622 139 770 601 253 219 361 70 51 260 522 
229 11 282 731 198 663 184 352 725 89 598 539 31 
230 11 31 546 652 254 126 772 115 222 725 357 390 
231 11 651 117 434 133 619 505 609 606 85 416 225 
232 11 440 764 465 268 58 131 422 425 134 521 6 
233 11 543 556 356 264 177 164 333 86 205 172 749 
234 11 366 672 9 355 308 633 427 217 261 531 112 
235 11 500 418 278 14 404 188 267 554 98 19 159 
236 11 562 524 101 534 618 474 532 587 566 518 593 
237 11 69 678 213 676 25 548 684 776 61 578 763 
238 11 365 301 369 420 335 104 125 122 509 498 694 
239 11 794 648 435 288 370 247 314 153 374 312 642 
240 11 488 241 274 80 246 378 263 149 559 611 727 
241 11 274 80 488 240 246 149 457 559 378 382 211 
242 11 409 459 589 296 533 760 468 255 327 223 317 
243 11 510 761 673 292 668 576 79 197 161 201 463 
244 11 626 588 123 20 166 56 497 664 112 415 531 
245 11 478 653 49 403 72 471 224 358 350 73 443 
246 11 488 80 241 240 274 457 334 149 96 382 211 
247 11 259 794 374 87 239 642 97 632 153 648 360 
248 11 512 450 62 276 318 34 331 615 28 536 481 
249 11 568 408 697 172 205 432 333 380 264 356 362 
250 11 136 373 79 258 750 763 550 21 776 510 243 
251 11 767 375 297 682 57 121 580 91 585 699 46 
252 11 490 647 181 571 172 333 568 35 686 666 356 
253 11 469 361 601 40 385 621 70 462 537 793 798 
254 11 126 222 546 230 772 115 652 31 357 390 725 
255 11 760 533 317 223 296 468 459 589 409 604 742 
256 11 700 428 280 26 204 685 605 551 726 485 538 
257 11 516 620 659 179 615 71 331 449 318 704 62 
258 11 550 776 141 136 262 373 600 250 703 209 595 
259 11 247 87 632 642 374 794 97 175 153 263 360 
260 11 522 283 51 592 583 770 629 347 135 99 152 
261 11 355 503 308 781 171 427 193 185 366 234 203 
262 11 209 284 595 600 371 141 752 550 258 396 777 
263 11 378 632 775 363 642 97 153 240 259 709 611 
264 11 356 543 205 333 172 233 568 249 362 556 647 
265 11 792 174 39 719 625 429 212 342 541 515 307 
266 11 76 507 483 29 301 122 741 369 157 509 694 
267 11 159 98 188 235 756 500 14 278 418 404 669 
268 11 58 131 422 134 764 6 689 440 465 232 521 
269 11 387 463 227 287 655 405 745 197 325 292 799 
270 11 779 349 392 150 305 402 630 103 170 145 5 
271 11 340 709 746 363 775 378 19 306 328 461 481 
272 11 13 38 416 206 424 323 442 138 492 133 519 
273 11 114 104 722 351 125 787 694 344 406 797 741 
274 11 80 241 488 149 240 246 382 559 211 457 460 
275 11 322 332 386 5 32 216 145 484 690 758 720 
276 11 248 481 62 313 28 306 331 318 450 615 512 
277 11 143 513 757 476 542 636 658 162 436 713 2 
278 11 418 500 235 188 554 14 404 267 19 98 140 
279 11 486 635 110 438 330 566 577 151 48 346 453 
280 11 204 256 605 700 428 726 130 538 720 381 329 
281 11 314 288 105 319 414 370 716 665 506 202 179 
282 11 731 229 198 663 184 89 352 598 725 31 539 
283 11 260 51 583 522 629 592 135 770 99 88 152 
284 11 209 262 595 371 600 752 777 396 680 799 550 
285 11 67 298 290 176 708 64 537 395 637 793 158 
286 11 175 77 727 479 611 87 559 259 360 412 247 
287 11 655 745 269 463 607 197 108 292 227 712 387 
288 11 314 281 370 319 239 202 105 648 794 435 179 
289 11 526 499 391 560 167 146 555 590 736 160 33 
290 11 67 285 176 298 395 708 64 656 637 537 158 
291 11 348 28 567 306 140 276 481 248 554 313 512 
292 11 197 463 243 607 673 510 227 761 161 287 576 
293 11 394 86 778 82 749 556 177 791 780 413 164 
294 11 170 758 558 484 324 740 399 145 789 3 5 
295 11 336 411 723 54 687 182 173 63 634 160 148 
296 11 533 468 409 760 459 255 223 242 589 317 327 
297 11 682 585 557 375 251 767 523 702 132 544 46 
298 11 708 285 537 67 290 64 176 793 637 385 395 
299 11 754 657 692 147 480 17 41 641 95 165 660 
300 11 535 525 320 343 753 142 755 24 494 688 470 
301 11 369 122 238 266 365 507 509 76 104 483 694 
302 11 641 643 165 639 147 728 81 458 93 299 692 
303 11 407 570 706 801 586 594 353 65 444 489 168 
304 11 610 729 744 774 2 721 660 33 180 636 92 
305 11 392 779 150 270 191 349 170 789 402 324 630 
306 11 28 481 291 276 348 313 340 567 140 248 271 
307 11 429 342 39 265 792 638 37 768 174 541 515 
308 11 355 427 261 503 234 203 672 171 781 366 372 
309 11 193 118 531 112 781 221 415 56 503 664 123 
310 11 788 163 547 362 321 44 697 679 572 192 398 
311 11 739 785 200 691 107 707 226 43 12 584 698 
312 11 704 71 328 435 648 659 370 313 153 746 516 
313 11 481 276 704 615 331 312 306 62 71 318 328 
314 11 281 288 319 370 105 202 665 414 239 716 506 
315 11 616 339 216 693 381 130 102 32 275 396 472 
316 11 579 119 30 447 701 437 377 710 186 714 575 
317 11 223 255 760 533 468 296 742 37 515 541 409 
318 11 62 331 615 450 34 512 248 536 276 449 257 
319 11 202 314 281 24 288 665 755 105 142 525 414 
320 11 535 300 753 337 50 755 525 751 24 470 688 
321 11 398 675 44 408 697 432 380 788 683 547 163 
322 11 332 275 5 145 386 484 758 32 690 216 470 
323 11 492 532 206 519 795 618 416 424 272 379 562 
324 11 789 475 740 558 15 170 294 769 192 681 305 
325 11 799 405 600 387 550 595 227 79 209 680 284 
326 11 624 736 426 109 499 167 526 169 52 289 590 
327 11 589 604 459 760 255 242 410 533 409 296 317 
328 11 746 709 312 153 704 97 363 775 642 435 632 
329 11 650 777 752 680 371 381 605 396 339 284 280 
330 11 110 635 453 279 486 48 438 106 566 151 577 
331 11 615 318 62 450 34 257 276 313 248 512 536 
332 11 322 275 5 386 145 32 484 470 758 216 630 
333 11 172 568 356 264 543 205 647 490 233 252 249 
334 11 96 743 400 457 461 246 628 488 98 187 80 
335 11 420 735 238 125 351 104 365 273 12 301 787 
336 11 295 723 411 173 54 182 63 634 687 148 712 
337 11 751 50 320 753 32 386 470 535 300 688 216 
338 11 540 441 83 182 738 54 634 723 737 411 762 
339 11 616 381 693 315 396 329 130 650 752 777 371 
340 11 271 746 709 481 306 328 363 775 313 28 153 
341 11 496 511 359 623 502 189 569 640 730 215 661 
342 11 39 307 429 638 792 265 174 574 768 719 541 
343 11 494 525 103 300 535 688 142 753 402 470 630 
344 11 157 741 694 483 628 104 273 797 654 114 722 
345 11 7 783 796 397 380 60 432 430 408 675 594 
346 11 151 577 438 443 224 486 106 48 279 635 110 
347 11 583 592 522 283 260 629 51 88 770 425 135 
348 11 291 567 28 140 306 276 481 248 554 512 313 
349 11 270 779 630 145 5 402 170 392 305 103 150 
350 11 72 73 514 773 471 653 245 449 478 224 536 
351 11 787 125 273 722 114 104 406 698 12 190 694 
352 11 598 663 548 198 184 578 89 417 549 25 213 
353 11 586 706 594 407 570 303 397 786 801 154 489 
354 11 530 158 395 367 748 176 656 285 290 67 732 
355 11 261 308 503 427 781 171 234 366 672 203 193 
356 11 264 543 205 333 172 233 568 556 647 164 177 
357 11 390 222 127 254 696 126 603 111 91 580 230 
358 11 520 487 403 49 695 478 581 245 220 710 443 
359 11 341 511 496 120 623 505 189 502 128 434 85 
360 11 374 87 479 175 142 247 259 343 525 202 286 
361 11 601 469 253 99 214 770 51 40 385 537 135 
362 11 547 697 572 205 163 310 264 573 249 356 733 
363 11 775 632 709 97 642 153 746 328 263 378 340 
364 11 497 156 800 588 20 78 626 244 166 491 383 
365 11 238 369 301 36 122 155 498 47 509 507 420 
366 11 234 672 531 112 355 261 217 308 309 9 503 
367 11 530 354 158 597 748 395 100 732 75 214 780 
368 11 493 474 524 220 534 593 101 194 581 218 377 
369 11 122 509 301 507 365 266 238 36 76 47 155 
370 11 288 314 179 659 71 435 281 239 648 312 704 
371 11 752 777 396 284 209 650 595 680 329 262 600 
372 11 203 717 504 22 171 308 261 355 427 8 393 
373 11 136 250 763 258 776 750 21 676 79 550 678 
374 11 360 87 247 479 259 142 794 239 175 202 525 
375 11 682 251 297 121 585 557 767 410 604 565 212 
376 11 464 765 671 564 782 495 646 705 613 433 199 
377 11 701 747 437 218 316 452 579 575 30 119 419 
378 11 263 363 775 240 632 642 97 709 153 488 746 
379 11 519 795 424 206 388 492 532 323 451 618 13 
380 11 432 408 675 7 345 398 796 249 783 321 683 
381 11 339 616 329 130 650 396 605 752 777 280 315 
382 11 211 790 187 389 154 457 149 80 454 29 786 
383 11 656 45 395 748 20 144 290 176 67 158 285 
384 11 180 574 638 744 721 774 667 768 342 183 636 
385 11 793 553 537 621 644 708 637 64 469 40 298 
386 11 32 332 470 275 322 337 751 5 753 688 145 
387 11 405 227 269 325 799 463 680 600 595 79 197 
388 11 451 439 379 178 795 518 519 424 206 618 446 
389 11 786 790 211 154 382 187 29 76 507 454 570 
390 11 357 222 111 126 254 696 127 91 115 772 546 
391 11 560 289 555 146 526 499 160 687 33 167 590 
392 11 305 779 150 270 191 349 402 170 103 630 789 
393 11 504 169 52 426 717 552 171 372 508 185 203 
394 11 293 82 778 86 780 749 556 791 100 413 177 
395 11 176 158 656 354 290 530 67 285 748 383 298 
396 11 371 752 777 284 650 329 209 262 339 595 381 
397 11 594 430 345 783 60 489 586 7 353 796 303 
398 11 675 683 321 44 432 380 408 670 796 697 788 
399 11 726 538 690 3 484 720 428 758 204 700 294 
400 11 461 743 98 96 334 404 14 19 159 267 401 
401 11 654 797 669 628 190 159 406 94 743 114 722 
402 11 103 270 494 630 150 779 349 688 343 392 305 
403 11 224 478 443 245 358 487 49 577 653 346 520 
404 11 14 19 235 98 500 418 461 278 400 267 554 
405 11 325 799 387 227 600 550 595 680 79 269 463 
406 11 190 722 114 787 669 797 94 698 654 759 273 
407 11 570 706 303 586 353 801 594 786 65 444 397 
408 11 432 380 249 675 321 697 398 7 345 568 683 
409 11 242 459 296 589 533 468 760 255 223 317 327 
410 11 604 565 625 255 212 760 515 742 541 327 317 
411 11 54 723 295 336 687 182 738 160 634 63 173 
412 11 617 77 711 670 559 683 44 66 286 727 529 
413 11 791 749 9 177 718 293 394 672 427 733 573 
414 11 105 506 716 665 281 314 319 288 179 202 370 
415 11 664 56 123 118 221 166 309 626 193 112 116 
416 11 133 609 225 272 323 492 206 532 13 424 587 
417 11 578 549 548 25 213 598 61 352 237 69 623 
418 11 278 500 235 554 14 188 404 19 267 98 140 
419 11 747 452 473 27 84 661 218 215 575 662 377 
420 11 335 238 735 365 125 301 498 104 351 369 155 
421 11 467 602 93 156 210 458 728 639 78 800 517 
422 11 58 134 6 268 689 521 131 666 764 232 456 
423 11 627 137 591 702 582 132 161 523 576 162 608 
424 11 206 519 795 379 492 13 38 323 272 532 612 
425 11 501 18 88 90 465 677 195 440 764 629 784 
426 11 326 52 624 169 393 109 736 526 499 552 167 
427 11 308 355 718 9 261 672 234 203 366 503 372 
428 11 700 256 26 685 551 280 726 204 538 3 399 
429 11 307 342 39 265 792 37 541 515 174 625 742 
430 11 489 60 397 596 594 7 345 705 303 444 586 
431 11 23 446 439 599 612 178 388 442 138 379 13 
432 11 380 408 675 249 398 7 321 345 697 796 683 
433 11 199 564 495 646 645 782 35 705 376 765 671 
434 11 505 117 231 619 651 85 359 661 128 189 341 
435 11 648 239 794 312 370 153 328 704 97 642 71 
436 11 476 713 513 277 608 2 33 162 636 542 143 
437 11 575 30 701 377 316 747 473 579 714 84 119 
438 11 151 486 279 346 48 577 635 106 110 330 453 
439 11 178 388 451 379 446 518 23 795 519 431 424 
440 11 764 465 232 268 131 58 425 501 422 18 784 
441 11 83 551 540 26 685 338 59 3 428 196 700 
442 11 138 612 38 599 13 53 466 272 424 206 446 
443 11 577 224 346 151 403 486 487 438 279 566 581 
444 11 168 65 596 10 489 303 613 801 42 407 594 
445 11 16 92 660 95 74 729 590 208 81 610 480 
446 11 23 431 612 599 379 13 424 439 38 442 138 
447 11 186 710 119 579 316 30 695 714 520 437 701 
448 11 455 703 141 693 262 396 61 284 209 776 102 
449 11 536 514 73 620 471 257 34 318 331 615 72 
450 11 512 62 34 248 318 331 615 536 276 449 313 
451 11 518 388 379 178 439 618 795 519 532 236 492 
452 11 27 419 218 747 662 194 377 473 701 661 619 
453 11 48 330 106 438 635 110 279 486 151 346 577 
454 11 460 207 154 66 529 790 149 382 711 670 211 
455 11 448 693 102 703 141 396 262 339 61 284 545 
456 11 784 666 131 686 181 571 677 268 164 58 689 
457 11 187 211 246 382 334 29 96 80 488 241 274 
458 11 728 93 639 602 800 156 643 491 421 302 497 
459 11 589 242 409 296 533 760 255 327 468 223 317 
460 11 66 207 529 454 711 670 149 617 154 790 382 
461 11 400 404 98 14 19 96 743 334 235 267 159 
462 11 798 614 40 621 715 70 527 385 219 253 553 
463 11 197 227 292 269 287 387 607 655 405 745 243 
464 11 376 613 765 10 671 42 705 782 646 564 495 
465 11 764 440 131 232 425 268 501 784 58 677 18 
466 11 53 138 442 606 599 612 38 13 272 133 424 
467 11 421 156 602 210 93 78 517 458 728 800 639 
468 11 296 533 223 317 255 760 409 459 242 589 742 
469 11 361 253 601 385 537 708 793 40 214 298 99 
470 11 688 753 630 386 494 535 103 5 337 332 343 
471 11 72 73 653 514 350 245 449 478 620 773 49 
472 11 11 102 734 477 545 50 714 751 216 315 32 
473 11 84 419 215 575 747 437 661 452 189 502 701 
474 11 101 524 593 368 534 493 566 220 236 562 581 
475 11 740 324 558 15 789 769 192 681 294 170 771 
476 11 436 713 277 513 2 33 608 636 143 162 542 
477 11 545 714 11 472 102 575 30 437 734 730 84 
478 11 245 49 653 403 358 72 224 471 520 487 350 
479 11 87 175 360 286 374 259 402 150 247 103 77 
480 11 754 299 17 95 657 147 692 41 641 165 660 
481 11 306 313 276 28 340 291 248 331 615 62 348 
482 11 196 674 771 762 681 59 83 540 769 441 338 
483 11 741 157 344 694 266 76 29 104 301 628 273 
484 11 758 690 399 322 145 538 5 720 275 332 726 
485 11 685 148 256 26 551 63 634 700 269 605 173 
486 11 279 110 635 438 577 330 151 566 346 48 443 
487 11 581 220 358 403 443 695 493 593 520 224 566 
488 11 241 246 80 240 274 149 457 378 334 382 211 
489 11 596 430 444 594 168 397 60 303 705 10 586 
490 11 647 252 181 571 686 333 172 666 568 35 164 
491 11 497 166 800 588 626 116 458 123 664 56 643 
492 11 323 206 519 795 532 424 618 379 272 416 13 
493 11 220 581 368 593 474 695 487 101 524 566 534 
494 11 103 343 688 402 630 535 470 753 300 525 142 
495 11 199 433 564 376 765 646 671 782 645 705 464 
496 11 341 502 511 623 189 569 640 359 730 215 661 
497 11 588 626 166 491 244 364 800 123 56 664 415 
498 11 155 47 36 563 365 4 369 509 122 238 301 
499 11 526 167 289 736 590 146 391 560 326 555 624 
500 11 278 418 235 188 14 554 404 267 19 98 159 
501 11 18 425 677 195 90 88 465 784 100 764 440 
502 11 189 215 496 341 730 661 84 569 640 511 473 
503 11 781 261 171 355 193 185 309 308 508 531 118 
504 11 717 171 393 372 203 169 185 508 503 261 781 
505 11 85 434 117 128 359 651 120 231 561 619 528 
506 11 716 414 105 281 179 665 314 49 288 370 659 
507 11 122 509 76 266 369 301 29 365 483 389 36 
508 11 185 109 169 781 171 193 503 118 221 309 504 
509 11 122 369 507 36 301 47 365 76 266 155 4 
510 11 243 761 79 673 668 292 576 197 201 161 250 
511 11 623 341 496 359 569 640 549 120 502 189 417 
512 11 450 248 34 62 318 536 331 276 615 449 313 
513 11 713 608 162 436 277 542 476 757 658 582 143 
514 11 73 350 471 72 449 773 536 653 620 245 34 
515 11 541 625 742 565 265 37 212 792 429 317 174 
516 11 659 257 71 179 620 704 615 331 370 312 313 
517 11 210 78 144 467 156 421 364 637 383 64 644 
518 11 451 388 618 236 178 379 330 562 795 532 439 
519 11 795 206 492 424 379 323 532 618 13 388 272 
520 11 358 695 710 186 487 49 581 447 403 478 220 
521 11 422 6 134 689 58 268 495 131 199 671 765 
522 11 260 592 583 283 51 770 347 629 135 99 88 
523 11 702 627 132 46 585 423 767 582 297 591 124 
524 11 101 474 534 236 368 562 593 587 566 493 194 
525 11 142 300 535 343 24 755 494 202 320 753 688 
526 11 499 289 167 391 555 736 560 590 146 326 160 
527 11 715 614 621 462 798 553 644 40 385 793 70 
528 11 561 128 120 89 85 184 68 198 598 505 663 
529 11 66 207 460 711 670 454 617 683 149 796 154 
530 11 354 158 367 395 748 176 656 285 290 732 67 
531 11 112 309 193 56 118 123 366 664 415 781 503 
532 11 618 323 492 795 519 562 206 424 379 236 416 
533 11 296 760 255 468 223 317 409 459 589 242 327 
534 11 524 587 562 474 101 236 368 194 618 218 532 
535 11 300 753 525 320 343 688 494 142 755 470 24 
536 11 34 449 318 450 62 512 331 514 615 73 620 
537 11 708 793 298 64 385 285 637 67 553 290 469 
538 11 726 720 690 204 399 130 484 280 700 428 256 
539 11 725 129 684 21 750 115 763 652 772 546 229 
540 11 83 338 441 762 196 482 59 674 551 552 771 
541 11 515 742 625 565 37 265 792 212 429 317 174 
542 11 757 162 582 658 608 513 277 713 631 132 143 
543 11 356 264 233 333 172 205 556 568 164 177 647 
544 11 631 557 658 585 649 719 132 582 757 542 174 
545 11 477 11 102 714 472 730 575 437 84 30 215 
546 11 772 652 115 126 254 230 31 222 725 129 539 
547 11 163 362 310 697 788 572 321 679 205 573 249 
548 11 578 25 417 352 213 598 237 549 69 663 678 
549 11 417 578 598 548 623 511 25 352 120 213 61 
550 11 600 258 799 325 595 79 209 262 405 284 136 
551 11 685 26 441 428 700 256 83 485 3 540 338 
552 11 737 52 738 762 338 393 540 160 426 54 411 
553 11 644 793 385 637 64 621 537 708 527 298 715 
554 11 418 278 140 500 235 19 567 14 404 188 267 
555 11 160 391 289 687 526 560 499 738 146 411 737 
556 11 86 164 233 543 177 293 686 356 749 778 394 
557 11 585 682 544 297 212 719 132 174 631 702 375 
558 11 740 324 475 294 789 681 769 15 170 59 771 
559 11 727 611 77 617 286 274 412 240 241 149 711 
560 11 391 146 289 555 33 526 499 167 590 160 687 
561 11 528 128 68 85 120 766 89 505 184 117 198 
562 11 236 618 534 532 524 587 101 323 474 492 795 
563 11 498 155 47 36 4 365 509 369 801 65 122 
564 11 646 433 782 199 495 705 376 645 765 35 671 
565 11 625 212 410 515 541 742 604 719 265 792 174 
566 11 593 101 279 110 486 474 635 220 524 493 581 
567 11 140 348 291 28 554 306 19 418 278 481 404 
568 11 172 333 249 205 264 356 543 252 647 490 697 
569 11 640 730 496 623 502 341 511 189 215 61 359 
570 11 407 706 303 353 586 801 594 786 65 444 4 
571 11 666 181 490 35 647 252 645 686 456 689 6 
572 11 573 733 362 724 547 679 205 163 113 697 264 
573 11 733 724 572 679 177 113 362 718 22 8 205 
574 11 180 384 638 649 342 39 143 636 631 174 792 
575 11 437 473 84 747 30 701 377 419 215 316 714 
576 11 161 673 591 668 761 201 243 124 510 292 627 
577 11 346 151 443 438 224 486 279 635 110 48 106 
578 11 417 548 549 598 25 352 213 237 663 61 69 
579 11 316 119 30 447 710 186 437 701 377 714 575 
580 11 91 57 696 127 111 603 699 357 767 390 251 
581 11 220 487 493 695 593 358 368 566 474 443 520 
582 11 132 542 757 162 702 423 658 608 544 523 627 
583 11 283 522 592 260 347 629 51 88 770 135 152 
584 11 43 226 759 94 698 756 785 669 406 190 200 
585 11 297 557 682 132 523 702 544 767 582 375 251 
586 11 353 706 594 407 570 303 397 786 801 154 489 
587 11 534 194 225 562 609 662 524 218 236 532 323 
588 11 626 497 166 244 123 56 664 491 415 364 20 
589 11 459 242 409 327 296 533 760 255 468 317 604 
590 11 167 499 146 289 736 526 560 16 391 445 326 
591 11 161 576 673 627 423 137 201 668 761 124 243 
592 11 522 260 583 283 347 51 770 629 228 88 135 
593 11 566 220 474 493 101 581 368 524 487 279 486 
594 11 586 353 397 706 303 407 570 489 430 596 801 
595 11 600 209 284 262 371 799 752 325 777 550 680 
596 11 489 168 444 430 705 10 613 782 646 303 65 
597 11 100 780 367 195 82 90 530 354 75 18 778 
598 11 352 663 578 184 89 548 198 417 549 25 213 
599 11 612 138 442 53 38 466 13 446 23 272 424 
600 11 595 799 209 550 284 325 262 405 371 258 752 
601 11 361 253 469 770 51 99 228 214 40 135 260 
602 11 93 728 458 639 421 156 467 800 643 364 302 
603 11 127 696 57 580 699 91 357 111 390 222 254 
604 11 410 327 565 760 255 317 533 589 625 742 223 
605 11 280 329 650 680 256 204 381 700 777 752 130 
606 11 466 53 133 138 272 651 442 231 38 416 13 
607 11 197 287 137 292 745 108 463 655 673 161 269 
608 11 162 513 713 542 757 277 436 582 476 658 137 
609 11 225 416 662 133 587 27 194 323 619 218 231 
610 11 304 729 744 774 660 92 721 445 95 41 180 
611 11 727 559 77 286 175 259 263 617 240 378 87 
612 11 442 599 138 38 13 53 446 466 272 424 206 
613 11 10 464 168 42 376 596 705 444 782 646 765 
614 11 715 527 462 798 621 40 70 553 385 644 793 
615 11 331 318 62 450 257 313 276 34 248 512 516 
616 11 339 315 381 693 130 216 396 329 650 752 777 
617 11 711 559 412 670 66 529 77 460 727 207 149 
618 11 532 562 492 323 795 236 519 206 379 451 424 
619 11 434 661 27 662 231 419 452 609 651 225 505 
620 11 257 516 449 179 659 471 615 331 71 73 536 
621 11 462 40 385 614 798 715 527 553 644 793 253 
622 11 139 228 219 770 70 601 253 40 361 260 522 
623 11 511 496 341 569 640 549 359 417 502 730 61 
624 11 326 736 426 109 167 499 169 526 74 508 590 
625 11 515 541 565 742 212 265 792 719 174 410 37 
626 11 588 244 166 497 123 56 664 415 20 491 364 
627 11 423 523 702 591 132 46 161 576 124 582 137 
628 11 344 157 654 401 797 743 741 483 694 96 334 
629 11 88 135 283 152 51 583 99 260 75 522 90 
630 11 688 470 103 349 494 402 270 5 145 753 343 
631 11 649 658 544 757 143 542 277 582 174 574 719 
632 11 642 97 153 775 363 263 709 746 328 378 247 
633 11 217 732 672 234 9 366 748 791 367 780 530 
634 11 63 182 173 723 148 336 54 295 411 338 485 
635 11 110 279 486 330 438 566 453 48 577 151 106 
636 11 2 143 277 180 476 649 574 33 658 436 304 
637 11 64 793 644 708 553 537 298 67 385 285 290 
638 11 768 342 384 574 39 307 180 429 667 792 265 
639 11 728 93 458 602 302 643 800 421 156 491 641 
640 11 569 730 496 623 502 341 511 189 215 61 359 
641 11 165 302 147 480 299 754 81 643 692 657 95 
642 11 97 153 632 775 363 709 746 328 263 648 247 
643 11 81 302 165 208 641 639 728 458 491 93 800 
644 11 553 637 793 64 385 621 708 537 527 298 67 
645 11 35 199 433 564 495 571 689 6 646 666 782 
646 11 782 564 705 433 199 376 495 613 645 464 596 
647 11 490 252 181 333 571 172 686 568 164 543 666 
648 11 435 794 239 153 312 370 97 642 328 288 247 
649 11 631 658 143 574 544 757 277 636 542 174 180 
650 11 329 777 680 752 371 396 605 381 284 595 209 
651 11 231 117 434 505 133 85 619 606 766 609 416 
652 11 546 772 115 230 31 126 254 725 222 539 129 
653 11 245 471 72 478 49 73 350 514 403 224 620 
654 11 797 401 190 669 406 628 114 722 344 787 94 
655 11 745 287 108 269 607 712 463 148 197 173 227 
656 11 383 395 290 176 45 67 748 158 285 144 354 
657 11 299 17 754 692 480 147 41 95 641 55 660 
658 11 757 631 542 649 277 143 544 162 582 513 608 
659 11 71 516 179 257 370 704 312 620 435 288 716 
660 11 92 95 729 41 480 445 17 754 610 299 657 
661 11 189 215 419 502 619 84 473 27 452 341 434 
662 11 27 218 194 452 225 609 587 619 419 747 534 
663 11 198 184 352 598 89 548 578 229 282 731 417 
664 11 56 123 415 166 118 626 221 244 112 309 588 
665 11 105 414 281 319 755 314 24 202 506 716 288 
666 11 571 456 181 35 686 689 490 645 784 134 647 
667 11 183 721 768 774 55 384 638 744 180 41 574 
668 11 201 761 576 673 161 124 243 510 591 292 46 
669 11 94 190 401 654 406 159 797 759 756 114 722 
670 11 711 66 529 207 683 617 460 412 454 398 675 
671 11 765 376 464 495 199 564 433 613 646 782 705 
672 11 234 9 366 427 633 308 355 217 791 261 413 
673 11 161 576 761 668 591 243 201 510 292 197 137 
674 11 482 771 196 681 762 769 59 83 540 15 740 
675 11 398 432 380 683 321 408 44 796 783 697 345 
676 11 678 69 237 776 213 25 763 141 703 684 61 
677 11 501 18 784 425 195 778 465 456 90 100 82 
678 11 676 69 237 213 776 25 763 684 61 703 141 
679 11 113 8 724 572 733 573 22 547 163 192 362 
680 11 650 777 329 752 371 595 605 284 396 325 600 
681 11 769 771 674 196 59 482 740 15 558 475 83 
682 11 297 375 557 585 251 212 767 544 410 565 719 
683 11 398 675 670 44 711 321 380 432 796 529 66 
684 11 763 539 237 69 21 678 676 548 750 129 25 
685 11 551 26 428 256 485 700 441 148 83 634 280 
686 11 164 181 647 490 556 86 456 666 571 233 784 
687 11 160 295 411 555 54 336 391 723 738 560 182 
688 11 470 494 630 103 753 343 535 300 402 386 525 
689 11 6 134 422 58 521 268 645 666 131 35 199 
690 11 720 538 726 399 204 484 130 280 275 322 758 
691 11 107 200 739 707 311 785 12 226 698 735 43 
692 11 299 147 657 754 17 480 41 641 95 165 302 
693 11 339 616 396 455 315 381 448 102 752 371 777 
694 11 344 741 157 104 483 273 125 114 722 797 628 
695 11 581 710 220 520 493 487 358 186 447 119 579 
696 11 127 580 91 603 57 111 357 699 390 222 767 
697 11 362 249 547 321 205 408 163 568 432 264 572 
698 11 406 787 12 190 722 759 94 114 351 226 707 
699 11 57 603 127 580 696 91 111 357 251 767 390 
700 11 428 256 26 280 204 726 685 551 538 399 605 
701 11 377 747 437 316 218 579 452 575 30 119 419 
702 11 132 523 627 582 423 585 46 591 542 544 297 
703 11 141 776 448 258 262 676 678 69 61 209 237 
704 11 312 71 328 659 435 313 516 370 648 179 746 
705 11 782 646 564 376 596 433 613 10 199 489 464 
706 11 570 407 353 586 303 594 801 786 65 397 154 
707 11 107 200 12 691 739 785 311 226 698 735 351 
708 11 298 537 64 793 285 637 67 290 385 176 553 
709 11 746 363 775 328 153 97 632 642 340 271 263 
710 11 186 447 119 695 579 316 520 30 358 581 220 
711 11 670 66 529 617 460 207 412 683 454 559 149 
712 11 108 745 655 173 336 287 295 148 607 63 713 
713 11 513 608 436 162 476 277 542 757 712 108 582 
714 11 30 477 437 579 119 316 575 545 734 447 11 
715 11 614 527 462 798 621 40 553 644 70 385 793 
716 11 506 414 105 281 179 314 665 288 370 659 49 
717 11 372 203 504 171 393 261 22 308 355 503 169 
718 11 427 413 22 724 9 733 791 308 573 203 672 
719 11 174 212 792 265 625 39 565 544 515 541 557 
720 11 690 538 726 204 130 399 280 484 700 428 256 
721 11 774 744 183 55 667 384 729 610 41 304 180 
722 11 114 787 273 406 351 190 797 125 698 654 104 
723 11 182 54 336 411 634 295 63 173 148 687 738 
724 11 733 573 572 679 113 22 718 8 177 362 413 
725 11 539 115 652 129 772 546 21 31 684 750 230 
726 11 538 720 690 204 399 700 280 428 130 256 484 
727 11 611 559 77 286 175 617 259 87 263 412 240 
728 11 458 639 93 602 800 643 302 156 421 491 467 
729 11 610 304 660 744 92 774 95 445 721 41 55 
730 11 569 640 502 215 496 189 84 341 623 511 473 
731 11 282 229 198 663 184 89 352 725 598 31 539 
732 11 217 633 748 45 530 234 354 366 367 158 672 
733 11 573 724 572 679 718 113 22 177 8 362 413 
734 11 11 472 50 714 477 751 337 320 30 447 186 
735 11 335 420 12 125 351 707 107 238 787 104 273 
736 11 167 326 624 499 526 590 289 16 426 74 109 
737 11 738 552 52 160 54 411 338 555 762 540 687 
738 11 737 160 54 411 552 338 555 52 723 687 295 
739 11 200 311 785 691 107 707 226 12 43 698 584 
740 11 558 475 324 769 15 681 789 294 192 771 170 
741 11 157 483 344 694 104 266 628 76 273 29 301 
742 11 515 541 625 37 565 317 223 255 265 410 212 
743 11 96 400 334 628 461 401 98 654 159 797 457 
744 11 774 721 610 304 729 384 55 183 180 660 667 
745 11 655 287 108 607 712 269 463 197 148 292 173 
746 11 709 363 328 775 153 97 340 642 632 271 312 
747 11 419 452 473 377 701 218 575 27 437 84 662 
748 11 45 732 530 354 395 158 656 383 217 367 176 
749 11 177 413 791 293 394 86 556 233 778 9 82 
750 11 21 129 763 373 250 539 136 684 725 115 772 
751 11 337 32 50 386 216 320 753 470 275 332 472 
752 11 371 777 396 650 329 284 680 209 595 262 600 
753 11 535 470 688 320 300 337 494 343 386 525 630 
754 11 299 480 657 17 692 147 41 95 641 165 660 
755 11 24 300 525 202 320 142 535 319 665 343 753 
756 11 188 267 159 759 94 669 584 235 98 500 278 
757 11 542 658 162 582 277 608 631 513 649 143 544 
758 11 484 145 5 294 170 322 399 332 275 690 349 
759 11 94 584 669 190 698 406 756 226 43 787 159 
760 11 255 533 317 223 296 468 459 589 409 604 327 
761 11 243 673 668 510 576 201 161 292 591 197 124 
762 11 482 196 674 540 552 771 83 338 737 59 52 
763 11 684 21 373 750 136 676 678 237 69 129 250 
764 11 465 440 232 131 268 58 425 784 422 501 456 
765 11 671 376 464 495 564 199 433 646 782 613 705 
766 11 68 561 117 85 128 528 651 505 231 434 606 
767 11 251 46 297 523 91 580 57 111 585 682 702 
768 11 638 667 307 342 384 429 39 183 574 180 721 
769 11 681 15 771 740 674 475 196 482 558 192 59 
770 11 51 260 522 228 601 283 592 361 583 622 99 
771 11 674 196 482 681 769 59 762 83 15 540 740 
772 11 546 115 652 126 254 230 31 222 725 129 539 
773 11 350 514 73 72 471 449 653 536 245 224 346 
774 11 721 744 729 610 55 183 304 667 384 41 660 
775 11 363 632 97 642 709 153 746 263 328 378 340 
776 11 676 678 141 258 703 69 136 237 373 763 250 
777 11 752 371 650 396 329 680 284 209 595 262 600 
778 11 394 293 82 86 780 100 556 164 677 749 686 
779 11 270 392 305 150 349 402 630 170 103 191 145 
780 11 100 82 597 394 778 293 195 367 86 677 90 
781 11 503 193 185 261 309 171 508 355 118 531 221 
782 11 646 705 564 433 376 199 495 613 596 464 10 
783 11 796 345 7 397 380 432 594 207 60 675 430 
784 11 456 677 131 666 686 465 501 164 764 181 18 
785 11 311 739 200 226 691 107 707 43 584 12 698 
786 11 389 154 790 570 706 353 407 586 211 382 507 
787 11 722 114 351 406 273 190 698 125 797 104 654 
788 11 310 163 547 44 321 362 697 398 192 679 572 
789 11 324 475 558 740 170 191 305 294 15 392 192 
790 11 154 382 211 389 786 454 187 149 460 29 457 
791 11 413 749 9 177 293 718 394 672 427 82 633 
792 11 265 174 39 719 342 212 625 429 307 541 515 
793 11 537 385 708 64 637 553 644 298 285 67 621 
794 11 239 648 435 247 153 642 97 259 288 370 374 
795 11 519 492 206 379 424 532 323 618 388 13 272 
796 11 783 345 7 380 397 432 675 207 683 529 408 
797 11 654 401 190 406 114 669 628 722 344 273 787 
798 11 462 614 40 715 621 70 527 219 385 253 553 
799 11 325 405 600 550 595 387 227 209 284 79 680 
800 11 458 156 491 364 497 728 602 93 588 639 626 
801 11 65 303 407 570 4 706 444 586 353 168 594 
DEPOT_SECTION
   1
   -1
EOF
