NAME :  X-n895-kX-w357-c7.cctp
COMMENT : 	Adapted by Maziero, Usberti and Cavellucci from the Uchoa, Pecin, Pessoa, Poggi, Subramanian, and Vidal (2013)
TYPE :  CCTP
DIMENSION :    879
EDGE_WEIGHT_TYPE : 	EUC_2D	
CAPACITY : 	1816
VERTICES_WITHIN_COVERAGE :  7
VERTICES_WITH_DEMAND : 	357
NODE_COORD_SECTION
1 706 137
2 392 662
3 692 274
4 944 370
5 726 945
6 869 43
7 621 770
8 112 402
9 523 374
10 619 178
11 553 457
12 95 814
13 696 130
14 27 417
15 940 487
16 943 965
17 670 435
18 931 752
19 307 776
20 404 101
21 199 526
22 117 312
23 762 505
24 433 864
25 868 155
26 832 870
27 488 624
28 686 782
29 585 89
30 268 339
31 248 344
32 22 776
33 89 614
34 75 271
35 882 646
36 6 656
37 449 27
38 857 362
39 809 774
40 403 626
41 559 145
42 667 945
43 524 737
44 683 777
45 641 798
46 514 495
47 102 813
48 517 591
49 748 330
50 859 127
51 699 41
52 281 442
53 257 106
54 116 99
55 41 732
56 555 95
57 378 1
58 155 308
59 942 955
60 619 205
61 646 910
62 796 791
63 785 49
64 958 817
65 424 240
66 311 226
67 37 119
68 761 866
69 404 417
70 929 432
71 743 535
72 418 679
73 107 379
74 329 868
75 22 432
76 24 474
77 380 83
78 145 135
79 576 209
80 877 859
81 901 0
82 464 473
83 181 35
84 976 331
85 672 617
86 324 264
87 193 341
88 525 782
89 527 935
90 218 529
91 48 325
92 431 989
93 626 974
94 594 432
95 757 450
96 805 123
97 959 266
98 348 776
99 409 946
100 458 247
101 841 361
102 333 503
103 675 306
104 407 811
105 418 325
106 856 199
107 300 792
108 371 156
109 163 237
110 172 589
111 609 928
112 273 18
113 379 694
114 996 38
115 4 6
116 738 18
117 693 307
118 989 54
119 468 585
120 594 172
121 563 205
122 271 783
123 58 987
124 374 383
125 775 530
126 913 512
127 413 798
128 813 948
129 943 941
130 437 169
131 247 374
132 347 51
133 8 111
134 321 825
135 854 335
136 619 272
137 742 232
138 496 187
139 605 66
140 973 75
141 241 509
142 845 106
143 451 217
144 955 319
145 432 662
146 704 73
147 418 205
148 817 754
149 570 429
150 362 720
151 114 713
152 11 516
153 737 62
154 563 318
155 222 187
156 697 638
157 343 830
158 1 279
159 3 342
160 231 539
161 628 515
162 827 658
163 801 656
164 679 529
165 158 918
166 142 648
167 530 874
168 305 312
169 328 352
170 501 82
171 189 506
172 78 479
173 863 149
174 413 938
175 353 328
176 173 12
177 311 155
178 839 829
179 674 882
180 463 786
181 554 231
182 693 512
183 382 975
184 28 64
185 298 757
186 343 385
187 789 178
188 650 2
189 580 122
190 111 986
191 779 332
192 311 146
193 263 238
194 770 491
195 319 39
196 703 930
197 539 28
198 45 221
199 954 171
200 714 181
201 428 934
202 120 134
203 301 361
204 940 618
205 277 407
206 126 331
207 564 510
208 177 346
209 265 422
210 651 553
211 19 286
212 928 367
213 894 965
214 232 681
215 523 620
216 894 67
217 498 538
218 864 235
219 8 209
220 482 729
221 736 659
222 491 881
223 990 18
224 303 19
225 98 362
226 513 920
227 54 777
228 669 503
229 401 696
230 282 796
231 373 477
232 97 129
233 289 226
234 604 594
235 192 881
236 806 742
237 737 534
238 235 539
239 335 13
240 218 573
241 544 714
242 389 497
243 706 668
244 459 745
245 841 879
246 229 474
247 786 899
248 857 774
249 585 656
250 373 117
251 132 531
252 444 64
253 60 688
254 392 214
255 884 652
256 455 410
257 384 134
258 309 192
259 255 115
260 828 499
261 995 168
262 102 622
263 40 41
264 704 407
265 164 482
266 201 711
267 110 315
268 928 101
269 490 778
270 991 811
271 916 88
272 545 940
273 398 279
274 304 912
275 984 276
276 308 171
277 644 223
278 934 144
279 420 61
280 169 435
281 810 360
282 121 281
283 409 392
284 787 260
285 805 460
286 62 236
287 713 481
288 18 568
289 369 806
290 407 560
291 172 307
292 429 168
293 570 697
294 755 949
295 204 115
296 785 263
297 301 949
298 163 735
299 308 916
300 553 947
301 787 391
302 640 395
303 556 985
304 408 699
305 77 370
306 647 45
307 101 363
308 724 896
309 554 248
310 597 941
311 677 358
312 80 300
313 422 903
314 359 979
315 89 43
316 759 567
317 217 226
318 755 196
319 727 756
320 243 741
321 305 628
322 55 272
323 54 601
324 723 760
325 376 531
326 491 26
327 116 948
328 588 950
329 952 878
330 740 917
331 33 931
332 934 527
333 878 622
334 436 544
335 506 952
336 56 100
337 833 235
338 666 148
339 311 177
340 958 167
341 820 203
342 468 112
343 805 38
344 840 619
345 672 531
346 336 457
347 422 735
348 610 233
349 549 234
350 717 345
351 174 728
352 379 181
353 441 849
354 507 580
355 152 247
356 959 525
357 665 922
358 560 104
359 24 789
360 366 714
361 364 519
362 180 505
363 537 611
364 319 92
365 12 721
366 627 506
367 14 240
368 742 392
369 913 124
370 611 472
371 861 969
372 258 237
373 692 340
374 798 911
375 55 353
376 698 642
377 810 497
378 303 968
379 659 716
380 592 510
381 50 737
382 199 933
383 307 646
384 676 138
385 27 719
386 9 732
387 717 497
388 387 712
389 684 116
390 211 434
391 180 889
392 367 808
393 790 121
394 735 751
395 69 205
396 960 894
397 442 938
398 464 531
399 334 100
400 713 827
401 568 287
402 734 265
403 1 988
404 877 355
405 421 908
406 835 584
407 679 551
408 905 619
409 84 49
410 509 761
411 49 237
412 954 648
413 970 982
414 452 208
415 375 760
416 314 488
417 815 978
418 997 598
419 258 573
420 685 368
421 697 265
422 833 497
423 842 481
424 654 904
425 880 966
426 105 180
427 415 523
428 196 870
429 712 781
430 220 652
431 47 976
432 283 778
433 984 484
434 62 771
435 256 155
436 830 384
437 924 883
438 710 801
439 748 439
440 203 86
441 843 548
442 946 896
443 558 219
444 726 422
445 627 320
446 753 602
447 551 407
448 170 569
449 242 803
450 822 356
451 918 925
452 232 865
453 40 984
454 678 213
455 187 214
456 218 141
457 5 201
458 181 727
459 73 772
460 400 534
461 514 119
462 603 438
463 509 260
464 55 709
465 65 734
466 448 333
467 32 560
468 40 598
469 364 436
470 48 915
471 638 194
472 289 900
473 817 504
474 65 701
475 270 825
476 313 577
477 33 609
478 988 726
479 328 755
480 704 359
481 327 312
482 631 37
483 165 429
484 629 240
485 212 564
486 642 201
487 585 932
488 335 982
489 911 208
490 993 799
491 347 487
492 648 607
493 844 478
494 484 925
495 662 962
496 469 911
497 136 495
498 246 693
499 694 362
500 279 948
501 117 776
502 237 728
503 61 334
504 639 541
505 819 723
506 742 676
507 335 666
508 685 781
509 475 132
510 875 693
511 538 786
512 631 519
513 76 956
514 649 263
515 609 475
516 618 152
517 97 306
518 481 737
519 71 451
520 96 989
521 265 266
522 705 252
523 459 979
524 991 133
525 473 340
526 524 304
527 902 482
528 62 39
529 891 180
530 218 68
531 564 128
532 724 756
533 142 723
534 838 393
535 170 195
536 991 179
537 327 422
538 462 560
539 50 912
540 274 530
541 165 743
542 503 930
543 966 598
544 414 19
545 478 965
546 857 314
547 974 589
548 905 657
549 736 179
550 746 547
551 79 359
552 822 719
553 611 871
554 221 972
555 747 25
556 317 246
557 479 411
558 663 953
559 390 844
560 123 548
561 919 567
562 277 365
563 48 695
564 211 991
565 602 104
566 25 664
567 480 25
568 842 729
569 1000 577
570 113 381
571 884 645
572 998 717
573 161 208
574 366 683
575 302 922
576 71 282
577 608 939
578 463 27
579 857 993
580 155 642
581 188 723
582 39 15
583 248 256
584 549 404
585 577 32
586 180 887
587 251 66
588 780 353
589 925 23
590 229 298
591 467 518
592 629 690
593 767 447
594 609 706
595 101 540
596 285 58
597 151 320
598 405 567
599 266 302
600 737 994
601 979 446
602 709 111
603 773 865
604 301 43
605 98 770
606 186 834
607 638 680
608 122 275
609 818 874
610 587 993
611 581 90
612 675 767
613 394 485
614 233 115
615 523 829
616 258 116
617 540 968
618 530 493
619 91 519
620 504 936
621 919 829
622 456 683
623 114 174
624 869 350
625 648 215
626 72 7
627 122 700
628 137 505
629 799 415
630 14 55
631 852 391
632 925 58
633 896 356
634 1000 181
635 740 435
636 171 685
637 414 107
638 319 3
639 428 407
640 649 573
641 287 377
642 345 908
643 260 775
644 455 930
645 395 17
646 29 545
647 784 396
648 515 475
649 76 518
650 397 332
651 249 19
652 84 948
653 619 511
654 55 952
655 110 785
656 245 598
657 767 266
658 689 850
659 524 721
660 408 696
661 215 198
662 559 740
663 850 248
664 813 23
665 113 360
666 5 103
667 150 678
668 24 381
669 564 946
670 948 682
671 692 713
672 439 83
673 120 789
674 383 989
675 444 944
676 780 460
677 291 865
678 884 797
679 580 354
680 597 359
681 39 789
682 105 650
683 974 818
684 772 641
685 278 318
686 277 353
687 705 598
688 10 683
689 376 850
690 709 481
691 554 851
692 349 880
693 654 921
694 287 871
695 507 121
696 651 137
697 978 127
698 108 383
699 796 535
700 324 120
701 680 848
702 741 55
703 567 356
704 948 484
705 384 849
706 898 609
707 333 274
708 48 119
709 162 955
710 755 16
711 680 28
712 516 164
713 815 264
714 145 502
715 370 139
716 147 867
717 413 855
718 725 215
719 382 152
720 465 342
721 207 306
722 362 832
723 450 698
724 76 260
725 689 652
726 456 653
727 166 505
728 297 183
729 674 941
730 360 125
731 698 567
732 641 61
733 806 739
734 879 332
735 291 644
736 328 738
737 60 626
738 771 498
739 773 764
740 782 446
741 236 699
742 246 489
743 44 716
744 125 308
745 465 68
746 471 311
747 586 559
748 690 839
749 703 363
750 61 613
751 959 114
752 505 443
753 236 226
754 591 180
755 298 472
756 808 917
757 80 442
758 820 484
759 534 945
760 971 304
761 508 967
762 318 272
763 826 605
764 884 385
765 305 965
766 664 720
767 527 864
768 516 762
769 853 785
770 306 979
771 686 79
772 294 656
773 990 418
774 775 966
775 52 500
776 972 304
777 504 998
778 173 863
779 580 766
780 130 459
781 639 292
782 688 616
783 926 405
784 683 889
785 590 217
786 80 441
787 949 339
788 366 878
789 5 325
790 189 316
791 213 379
792 248 724
793 435 486
794 484 727
795 224 242
796 94 504
797 314 961
798 231 474
799 516 264
800 832 385
801 900 15
802 127 103
803 176 136
804 160 67
805 346 693
806 547 990
807 584 219
808 495 809
809 383 299
810 69 896
811 947 391
812 705 505
813 822 909
814 976 477
815 799 545
816 610 193
817 46 858
818 752 779
819 505 89
820 483 553
821 525 251
822 585 737
823 759 448
824 553 402
825 300 459
826 867 678
827 77 562
828 499 201
829 492 616
830 690 820
831 310 386
832 956 549
833 803 123
834 354 770
835 134 392
836 6 687
837 8 147
838 859 27
839 553 65
840 695 997
841 465 120
842 407 480
843 399 411
844 510 499
845 608 240
846 906 910
847 834 444
848 900 358
849 448 970
850 466 485
851 763 376
852 899 267
853 750 729
854 950 497
855 161 440
856 222 709
857 693 594
858 768 305
859 449 937
860 154 151
861 148 376
862 474 526
863 265 553
864 617 328
865 417 672
866 781 526
867 11 580
868 237 863
869 128 92
870 351 810
871 669 575
872 843 769
873 740 767
874 304 526
875 298 862
876 966 953
877 37 837
878 711 961
879 534 28
DEMAND_SECTION
2 67
3 86
4 82
5 99
6 54
7 52
8 54
9 71
10 70
11 61
12 74
13 91
14 97
15 92
16 63
17 84
18 90
19 53
20 66
21 79
22 57
23 53
24 72
25 58
26 94
27 86
28 64
29 74
30 82
31 78
32 77
33 78
34 58
35 51
36 64
37 61
38 87
39 92
40 80
41 62
42 97
43 88
44 78
45 78
46 86
47 75
48 62
49 96
50 82
51 50
52 61
53 86
54 67
55 92
56 57
57 51
58 70
59 93
60 83
61 99
62 64
63 62
64 78
65 64
66 81
67 85
68 56
69 56
70 87
71 91
72 92
73 58
74 68
75 93
76 58
77 98
78 87
79 85
80 94
81 71
82 93
83 50
84 60
85 90
86 95
87 87
88 85
89 79
90 54
91 89
92 98
93 98
94 85
95 97
96 94
97 69
98 62
99 56
100 98
101 65
102 55
103 93
104 52
105 69
106 60
107 97
108 55
109 85
110 52
111 66
112 72
113 69
114 50
115 73
116 54
117 74
118 93
119 84
120 69
121 99
122 74
123 94
124 98
125 55
126 95
127 74
128 88
129 100
130 79
131 85
132 78
133 71
134 96
135 96
136 76
137 50
138 100
139 70
140 55
141 70
142 82
143 64
144 61
145 97
146 82
147 89
148 81
149 73
150 63
151 78
152 74
153 69
154 53
155 78
156 71
157 52
158 96
159 92
160 75
161 63
162 56
163 93
164 86
165 58
166 58
167 93
168 78
169 62
170 64
171 83
172 100
173 88
174 79
175 75
176 76
177 62
178 62
179 68
180 80
181 68
182 56
183 65
184 64
185 99
186 71
187 62
188 58
189 74
190 89
191 95
192 70
193 69
194 72
195 99
196 60
197 57
198 95
199 81
200 72
201 60
202 79
203 55
204 76
205 70
206 94
207 95
208 79
209 73
210 69
211 81
212 89
213 92
214 74
215 90
216 53
217 94
218 52
219 66
220 97
221 50
222 75
223 79
224 86
225 74
226 51
227 74
228 90
229 51
230 57
231 53
232 72
233 54
234 71
235 59
236 75
237 50
238 78
239 66
240 85
241 87
242 79
243 99
244 100
245 78
246 69
247 98
248 54
249 62
250 75
251 61
252 77
253 67
254 58
255 88
256 86
257 86
258 73
259 88
260 64
261 75
262 97
263 58
264 91
265 50
266 68
267 63
268 84
269 61
270 84
271 87
272 58
273 61
274 68
275 90
276 99
277 59
278 92
279 84
280 83
281 63
282 65
283 67
284 88
285 54
286 88
287 68
288 86
289 63
290 61
291 62
292 73
293 59
294 65
295 89
296 95
297 57
298 95
299 88
300 93
301 85
302 63
303 50
304 63
305 55
306 62
307 76
308 76
309 67
310 94
311 95
312 52
313 53
314 99
315 53
316 67
317 98
318 66
319 65
320 100
321 63
322 95
323 66
324 54
325 88
326 63
327 90
328 96
329 83
330 79
331 54
332 91
333 54
334 66
335 54
336 63
337 76
338 90
339 78
340 70
341 87
342 76
343 74
344 77
345 92
346 51
347 92
348 55
349 77
350 95
351 74
352 90
353 94
354 98
355 70
356 98
357 94
358 95
COVERAGE_SECTION
2 7 865 72 574 113 229 40 660 
3 7 421 522 117 103 402 514 781 
4 7 212 811 787 783 848 84 633 
5 7 878 196 294 330 308 600 729 
6 7 838 216 801 81 632 589 664 
7 7 45 779 822 612 44 508 594 
8 7 698 570 73 835 307 225 665 
9 7 584 824 447 703 557 525 679 
10 7 816 471 120 516 60 754 486 
11 7 149 648 618 94 447 752 462 
12 7 47 655 673 501 605 459 434 
13 7 389 384 602 338 696 771 200 
14 7 75 668 519 76 786 757 305 
15 7 704 854 126 814 527 332 356 
16 7 59 129 876 413 451 213 425 
17 7 264 302 444 690 287 462 228 
18 3 478 678 64 
19 7 107 185 432 479 230 122 98 
20 7 637 77 250 257 672 279 730 
21 7 90 171 362 160 238 727 485 
22 7 267 744 206 517 282 597 608 
23 7 738 194 125 866 71 237 550 
24 6 353 717 313 405 559 705 
25 7 173 50 529 106 142 369 278 
26 7 245 609 813 178 80 374 756 
27 7 829 215 726 48 119 354 363 
28 7 508 44 612 429 438 830 324 
29 7 611 565 358 139 56 189 839 
30 7 686 31 685 562 599 203 131 
31 7 30 131 686 562 685 599 791 
32 7 359 681 227 434 386 55 381 
33 7 262 750 737 323 682 468 827 
34 7 724 576 322 312 286 517 411 
35 7 571 255 333 548 408 826 706 
36 6 566 688 836 477 563 737 
37 7 578 567 544 252 326 745 279 
38 7 101 624 404 135 631 800 436 
39 7 62 148 236 872 733 739 769 
40 7 2 145 865 72 598 726 290 
41 7 531 189 358 120 712 754 56 
42 7 729 558 495 357 693 196 61 
43 7 659 768 410 241 662 794 220 
44 7 508 28 612 429 438 324 830 
45 7 7 612 44 508 28 830 701 
46 7 844 618 648 217 850 862 207 
47 7 12 655 673 501 605 459 434 
48 7 354 363 215 829 27 119 820 
49 7 191 858 350 588 851 480 749 
50 7 173 142 25 96 369 833 529 
51 7 711 146 771 153 702 116 555 
52 7 825 209 755 205 537 346 416 
53 7 259 616 614 587 435 456 295 
54 7 802 869 202 232 78 804 409 
55 7 381 743 385 465 464 365 386 
56 7 358 611 839 29 531 189 461 
57 7 645 544 239 132 638 195 279 
58 7 597 291 744 790 206 22 282 
59 7 16 129 876 451 413 213 846 
60 7 816 471 486 10 348 277 625 
61 7 424 693 357 179 42 111 729 
62 7 39 739 148 818 236 872 733 
63 7 343 664 702 555 710 153 116 
64 7 683 270 490 621 329 18 437 
65 7 100 143 147 254 414 273 130 
66 7 556 233 258 86 728 762 193 
67 7 708 336 133 666 837 184 232 
68 7 603 247 308 330 374 609 400 
69 7 843 283 639 469 124 256 842 
70 7 783 811 601 704 15 527 773 
71 7 237 550 125 23 316 866 387 
72 7 865 660 145 304 229 2 723 
73 7 698 570 307 225 665 8 835 
74 7 692 875 677 788 157 694 642 
75 7 14 76 668 519 757 786 172 
76 7 775 75 152 519 172 14 757 
77 7 20 250 637 132 279 730 399 
78 7 860 202 803 802 54 869 232 
79 7 807 121 785 443 181 754 349 
80 7 245 26 178 621 437 846 609 
81 7 801 589 838 6 632 216 271 
82 7 850 793 591 648 752 844 862 
83 7 176 804 530 440 651 587 869 
84 7 144 760 776 787 4 275 212 
85 7 782 492 857 156 376 687 725 
86 7 762 707 556 66 481 168 233 
87 7 208 790 721 291 791 597 58 
88 7 511 768 410 269 808 43 615 
89 7 759 272 226 620 542 335 300 
90 7 160 21 238 141 485 171 240 
91 7 503 375 312 789 551 159 211 
92 7 849 523 675 99 674 183 397 
93 7 495 577 558 610 310 328 111 
94 7 462 149 370 515 11 447 824 
95 7 823 593 439 635 676 740 444 
96 7 833 393 142 50 187 173 25 
97 7 275 760 776 144 852 84 787 
98 7 834 479 415 870 289 392 19 
99 7 174 201 397 675 183 405 859 
100 7 143 65 414 463 147 799 828 
101 7 38 450 436 800 135 624 281 
102 7 491 416 361 874 346 755 231 
103 7 117 3 373 781 421 445 514 
104 7 127 559 289 392 705 717 689 
105 7 650 466 809 273 720 746 525 
106 7 341 218 529 337 25 663 173 
107 7 19 230 432 122 185 134 643 
108 7 719 715 257 352 730 250 292 
109 7 355 573 455 535 317 608 282 
110 7 448 485 240 580 560 166 21 
111 7 577 310 487 328 61 693 669 
112 7 651 224 604 596 638 195 587 
113 7 574 388 229 360 304 660 150 
114 7 118 223 140 589 632 751 697 
115 7 582 263 630 184 528 626 409 
116 7 555 710 702 153 51 63 711 
117 7 103 3 373 421 350 311 480 
118 7 114 140 223 632 751 589 697 
119 7 538 820 354 829 27 48 334 
120 7 754 10 816 516 60 79 41 
121 7 79 443 807 181 785 349 754 
122 7 432 643 230 107 449 19 185 
123 7 431 453 654 513 520 652 190 
124 7 186 283 843 69 469 169 650 
125 7 866 699 23 815 71 738 550 
126 7 332 527 15 854 704 356 561 
127 7 104 289 392 180 559 415 717 
128 7 417 756 374 813 774 371 247 
129 7 59 16 876 451 442 846 413 
130 7 292 147 414 143 509 841 719 
131 7 31 562 791 686 641 30 205 
132 7 195 239 77 604 364 399 224 
133 7 666 67 837 708 336 184 630 
134 7 157 870 107 722 74 875 230 
135 7 546 624 734 38 101 404 450 
136 7 781 514 484 845 348 445 401 
137 7 718 402 318 522 657 284 296 
138 7 828 712 414 143 509 130 695 
139 7 29 611 732 565 482 585 306 
140 7 118 751 114 632 268 697 271 
141 7 742 90 238 160 798 246 540 
142 7 50 96 833 173 25 393 216 
143 7 414 100 65 147 130 828 138 
144 7 787 760 776 84 4 275 97 
145 7 865 72 726 622 2 723 660 
146 7 771 51 153 602 702 389 711 
147 7 254 414 143 65 292 130 352 
148 7 236 733 39 872 505 552 568 
149 7 94 447 824 11 584 462 370 
150 7 360 388 113 805 574 736 415 
151 7 627 533 474 667 465 298 464 
152 7 646 76 775 467 288 867 649 
153 7 702 146 555 51 116 710 63 
154 7 401 703 679 526 680 864 445 
155 7 661 317 753 455 456 435 535 
156 7 376 725 782 243 85 687 221 
157 7 722 870 134 392 289 689 74 
158 7 211 367 789 322 159 411 91 
159 7 789 668 91 375 211 503 158 
160 7 238 90 485 141 21 240 863 
161 7 512 366 653 504 380 228 210 
162 6 163 344 826 763 35 255 
163 6 162 684 344 763 506 221 
164 7 345 182 407 228 812 210 504 
165 7 391 709 586 382 235 327 716 
166 7 580 667 682 636 262 627 33 
167 7 767 691 222 615 226 89 542 
168 7 481 685 599 762 30 169 707 
169 7 203 175 186 831 481 168 641 
170 7 819 461 695 745 342 841 839 
171 7 362 21 727 265 90 714 246 
172 7 519 796 775 757 786 649 619 
173 7 25 50 529 142 106 369 96 
174 7 99 201 397 405 675 313 859 
175 7 481 169 809 650 168 186 707 
176 7 83 804 530 651 440 315 869 
177 7 192 276 339 728 258 700 435 
178 7 26 769 80 245 609 678 62 
179 7 784 424 658 701 61 357 693 
180 7 269 808 244 127 410 518 768 
181 7 349 443 309 121 79 807 821 
182 7 812 164 228 345 387 690 287 
183 7 674 314 99 174 488 92 201 
184 7 630 263 528 666 336 582 133 
185 7 19 432 479 107 736 122 230 
186 7 124 831 169 537 203 469 641 
187 7 318 341 549 96 393 833 106 
188 7 482 711 306 732 51 139 585 
189 7 531 358 565 41 611 29 56 
190 7 520 327 513 652 123 709 431 
191 7 588 858 49 281 851 450 301 
192 7 177 276 700 339 728 258 399 
193 7 372 583 521 233 753 795 317 
194 7 738 23 676 866 125 377 95 
195 7 604 224 132 239 638 596 112 
196 7 5 729 878 42 330 357 308 
197 7 879 585 839 326 567 170 56 
198 7 411 286 395 367 219 457 724 
199 7 340 278 536 261 634 697 524 
200 7 549 718 318 454 13 384 137 
201 7 397 174 675 859 99 405 644 
202 7 232 78 802 54 860 623 869 
203 7 641 562 686 831 169 30 186 
204 7 412 543 408 706 547 548 561 
205 7 209 641 52 831 562 131 203 
206 7 22 267 744 597 665 58 517 
207 7 380 618 46 11 747 653 844 
208 7 87 790 597 291 861 58 791 
209 7 205 52 641 131 825 390 562 
210 7 504 640 407 871 345 164 512 
211 7 158 322 789 367 91 576 411 
212 7 4 848 811 633 787 783 764 
213 7 425 371 579 451 16 59 129 
214 7 498 741 856 430 266 792 502 
215 7 363 48 829 27 354 119 249 
216 7 271 632 6 268 801 838 589 
217 7 820 862 398 591 844 538 354 
218 7 663 337 106 852 341 489 713 
219 7 457 367 198 411 286 395 837 
220 7 794 518 244 410 43 659 723 
221 7 506 243 684 376 156 725 446 
222 7 496 167 767 226 494 542 620 
223 7 114 118 140 589 632 801 81 
224 7 638 604 195 112 239 596 132 
225 7 307 665 73 551 305 698 570 
226 7 542 620 89 494 335 759 272 
227 7 434 681 459 32 359 381 465 
228 7 182 164 345 812 512 366 161 
229 7 660 304 388 113 72 865 2 
230 7 122 107 432 643 475 19 449 
231 7 613 242 491 842 346 469 361 
232 7 202 54 802 78 623 869 336 
233 7 66 193 372 556 258 728 521 
234 7 747 492 640 210 504 249 871 
235 7 428 586 391 778 452 606 716 
236 7 733 148 505 552 39 568 739 
237 7 71 550 23 125 316 387 812 
238 7 160 90 141 863 485 21 240 
239 7 638 195 224 132 57 604 645 
240 7 485 160 656 238 419 90 448 
241 7 659 43 662 293 822 768 410 
242 7 613 842 231 361 325 427 460 
243 7 725 376 156 221 506 671 782 
244 7 518 220 794 347 180 269 723 
245 7 26 609 813 80 178 756 374 
246 7 798 742 141 390 171 90 362 
247 7 374 756 603 813 68 609 330 
248 7 769 872 678 148 568 39 178 
249 7 293 594 592 607 234 363 241 
250 7 730 257 715 20 77 719 108 
251 7 560 628 595 714 497 619 727 
252 7 672 745 279 37 578 637 567 
253 6 474 563 464 743 566 385 
254 7 147 352 65 143 292 414 108 
255 7 35 571 548 333 826 408 510 
256 7 557 639 283 69 843 752 82 
257 7 715 719 250 108 730 20 637 
258 7 339 728 276 66 177 233 192 
259 7 616 53 614 435 456 587 295 
260 7 422 473 758 377 423 493 285 
261 7 536 634 524 340 199 697 751 
262 7 33 682 737 750 166 323 580 
263 7 528 184 582 630 409 626 315 
264 7 444 368 420 17 749 499 635 
265 7 727 362 714 497 171 628 780 
266 7 581 856 458 351 741 502 636 
267 7 22 517 744 206 312 282 597 
268 7 271 369 751 278 632 216 140 
269 7 410 180 768 808 88 518 244 
270 7 490 683 64 621 329 18 478 
271 7 268 216 632 369 751 140 278 
272 7 300 759 89 669 617 226 335 
273 7 809 65 105 650 254 707 175 
274 7 299 575 472 297 642 500 694 
275 7 97 776 760 144 84 787 852 
276 7 339 177 728 258 192 700 435 
277 7 625 486 484 471 60 348 454 
278 7 369 340 199 751 268 697 529 
279 7 252 672 544 20 37 77 637 
280 7 483 855 390 780 265 835 861 
281 7 450 101 436 588 800 301 191 
282 7 608 744 22 517 267 58 312 
283 7 843 639 69 124 256 650 469 
284 7 296 657 713 858 337 137 402 
285 7 676 740 758 847 377 593 423 
286 7 411 198 724 395 34 322 576 
287 7 690 387 812 182 228 635 95 
288 7 867 467 646 468 477 323 152 
289 7 392 870 722 157 98 104 834 
290 7 598 460 334 427 325 538 361 
291 7 58 790 597 721 208 87 744 
292 7 130 147 414 719 352 143 257 
293 7 241 594 822 249 662 659 592 
294 7 774 5 330 878 600 196 374 
295 7 440 614 456 803 530 259 53 
296 7 284 657 713 858 402 137 337 
297 7 765 797 378 500 575 770 299 
298 7 541 351 458 533 581 266 636 
299 7 274 575 472 297 642 500 797 
300 7 272 669 759 617 89 328 487 
301 7 647 629 851 281 588 436 368 
302 7 17 311 420 680 462 94 499 
303 7 806 617 610 300 669 272 759 
304 7 660 229 72 388 865 113 347 
305 7 551 225 307 375 73 698 665 
306 7 732 482 711 188 139 51 771 
307 7 225 665 73 698 551 570 305 
308 7 330 196 784 68 5 179 603 
309 7 349 181 443 821 401 799 807 
310 7 577 328 487 111 669 93 300 
311 7 420 499 373 749 480 350 103 
312 7 517 576 34 267 322 22 503 
313 7 405 201 174 397 24 644 859 
314 7 183 488 674 797 770 765 378 
315 7 409 528 626 263 582 54 869 
316 7 550 71 446 125 237 815 866 
317 7 795 753 661 455 155 372 583 
318 7 549 718 137 187 200 341 657 
319 7 532 324 394 873 429 818 853 
320 7 502 792 643 856 741 498 122 
321 7 383 735 772 507 476 656 419 
322 7 576 34 724 411 286 312 211 
323 7 468 750 477 737 33 827 467 
324 7 532 319 394 873 429 818 853 
325 7 361 460 242 427 290 598 613 
326 7 567 578 37 879 197 745 170 
327 7 652 190 513 520 709 165 654 
328 7 310 487 577 669 111 300 610 
329 7 396 442 437 846 451 621 64 
330 7 308 5 294 196 247 878 68 
331 7 470 539 654 431 513 810 453 
332 7 356 126 832 854 15 561 704 
333 7 35 571 706 408 255 344 548 
334 7 427 398 538 290 460 598 591 
335 7 761 620 542 89 759 545 226 
336 7 708 67 184 133 232 666 409 
337 7 663 218 713 341 106 284 296 
338 7 384 696 13 389 516 471 10 
339 7 276 258 728 177 192 66 233 
340 7 199 278 536 261 634 697 524 
341 7 337 106 187 218 663 713 318 
342 7 841 509 695 672 745 819 170 
343 7 664 63 710 838 555 6 702 
344 7 763 406 333 162 35 571 163 
345 7 164 407 182 228 210 504 812 
346 7 491 469 537 825 416 755 231 
347 7 244 304 660 388 229 723 415 
348 7 845 484 785 60 807 277 136 
349 7 181 309 443 821 121 79 807 
350 7 480 749 373 499 49 420 311 
351 7 458 298 581 541 266 533 636 
352 7 108 719 254 715 147 257 292 
353 7 24 717 104 559 313 705 127 
354 7 48 820 119 829 215 217 363 
355 7 109 573 608 282 455 535 58 
356 7 832 332 854 15 704 126 433 
357 7 693 424 729 61 42 558 784 
358 7 56 531 611 189 29 839 41 
359 7 32 681 227 434 877 459 381 
360 7 150 388 113 805 574 229 304 
361 7 325 242 102 491 460 231 613 
362 7 171 727 21 265 714 628 90 
363 7 215 48 354 829 27 249 234 
364 7 399 700 596 132 604 195 730 
365 6 386 385 55 743 836 688 
366 7 161 653 512 380 515 504 370 
367 7 219 411 198 457 158 211 286 
368 7 851 444 264 647 635 301 439 
369 7 268 278 271 751 50 25 173 
370 7 515 462 366 653 380 94 161 
371 7 425 579 213 417 128 451 813 
372 7 193 583 753 521 233 795 317 
373 7 480 499 311 350 749 420 117 
374 7 756 247 813 128 609 603 26 
375 7 503 551 305 91 668 225 307 
376 7 156 725 243 782 85 221 687 
377 7 473 758 260 422 423 285 493 
378 7 765 770 797 297 500 488 575 
379 7 766 671 592 607 594 612 7 
380 7 653 207 366 161 515 512 370 
381 7 55 465 743 464 385 434 474 
382 7 709 165 554 391 586 235 564 
383 7 735 772 321 507 805 476 574 
384 7 338 13 389 696 602 200 516 
385 6 365 743 55 386 381 464 
386 6 365 385 55 743 381 836 
387 7 812 287 690 182 237 23 71 
388 7 113 229 360 304 150 660 574 
389 7 13 384 602 338 771 696 146 
390 7 280 246 798 483 855 209 791 
391 7 586 235 428 778 165 716 382 
392 7 289 870 722 157 98 104 834 
393 7 833 96 142 187 50 63 173 
394 7 319 532 324 873 853 818 429 
395 7 198 286 411 426 623 724 219 
396 7 442 329 437 129 451 846 876 
397 7 675 859 201 644 174 849 99 
398 7 862 591 538 820 334 217 850 
399 7 364 700 730 250 77 132 192 
400 7 830 438 748 658 701 429 28 
401 7 154 309 526 136 349 821 799 
402 7 522 657 137 421 3 296 718 
403 7 453 431 123 331 654 513 470 
404 7 624 633 38 734 848 135 764 
405 7 313 201 174 397 99 644 859 
406 7 763 344 441 815 333 699 706 
407 7 345 164 731 871 210 640 182 
408 7 706 333 571 35 204 548 255 
409 7 315 528 626 263 582 184 336 
410 7 768 269 88 43 518 511 220 
411 7 286 198 367 724 322 395 34 
412 6 204 670 548 543 408 547 
413 7 876 16 59 129 451 213 396 
414 7 143 147 100 130 65 292 828 
415 7 834 98 150 289 360 479 388 
416 7 755 102 825 491 346 874 52 
417 7 128 774 579 371 756 425 294 
418 7 569 547 543 204 832 412 356 
419 7 863 656 240 238 160 540 485 
420 7 499 311 749 480 373 350 264 
421 7 3 522 402 117 103 514 454 
422 7 260 473 423 758 493 377 285 
423 7 493 422 758 260 473 377 847 
424 7 61 693 357 179 784 729 42 
425 7 213 371 579 451 846 16 59 
426 7 623 395 202 232 860 78 573 
427 7 460 334 242 290 325 793 613 
428 7 235 586 778 391 452 606 868 
429 7 438 324 28 508 532 44 319 
430 7 214 498 741 856 636 656 266 
431 7 453 123 654 513 652 331 403 
432 7 122 230 107 643 19 185 449 
433 7 814 704 854 601 15 356 332 
434 7 227 459 681 381 605 465 32 
435 7 616 259 456 614 155 53 728 
436 7 800 534 631 101 450 281 38 
437 7 442 329 846 396 451 80 621 
438 7 429 400 830 28 508 44 324 
439 7 635 95 823 593 444 740 676 
440 7 530 295 614 804 587 83 456 
441 7 406 815 699 260 473 422 763 
442 7 396 329 437 451 846 129 59 
443 7 181 121 349 79 807 309 785 
444 7 635 264 439 368 95 823 593 
445 7 864 781 136 680 103 679 514 
446 7 316 684 687 550 221 857 731 
447 7 584 824 149 9 11 94 703 
448 7 110 485 240 560 21 251 90 
449 5 643 122 475 230 432 
450 7 281 101 436 800 38 135 534 
451 7 846 129 59 442 437 16 213 
452 3 868 428 235 
453 7 431 123 654 403 513 331 520 
454 7 625 277 486 471 522 718 200 
455 7 535 573 317 661 109 155 795 
456 7 295 614 435 803 259 155 616 
457 7 219 367 198 837 411 395 286 
458 7 351 581 298 541 266 533 636 
459 7 434 227 605 681 465 655 381 
460 7 427 325 290 598 334 242 361 
461 7 695 819 170 509 712 342 56 
462 7 94 149 370 515 11 302 447 
463 6 799 821 526 309 349 100 
464 7 474 743 563 253 55 465 381 
465 7 381 55 464 743 474 434 459 
466 6 720 525 105 746 650 283 
467 7 646 288 867 468 827 323 152 
468 7 477 323 750 737 867 288 467 
469 7 346 537 231 843 69 124 491 
470 7 539 331 810 654 652 513 817 
471 7 486 60 625 10 816 277 454 
472 6 274 299 575 694 677 875 
473 7 377 260 422 758 423 493 699 
474 7 464 253 563 743 465 55 381 
475 5 230 449 122 107 677 
476 7 321 874 863 419 540 383 656 
477 7 468 323 750 737 867 288 467 
478 6 572 670 18 490 270 412 
479 7 736 98 19 185 834 107 415 
480 7 749 499 350 420 373 311 264 
481 7 168 175 707 169 762 86 685 
482 7 306 732 139 188 711 585 51 
483 7 280 855 390 780 835 265 861 
484 7 348 845 277 514 625 136 60 
485 7 240 160 238 90 21 448 110 
486 7 471 625 277 60 10 816 454 
487 7 310 328 111 577 669 300 272 
488 7 314 770 797 765 378 297 183 
489 7 529 218 106 199 852 340 25 
490 7 270 683 64 478 18 621 572 
491 7 102 231 346 416 361 242 613 
492 7 85 640 871 782 234 857 210 
493 7 423 422 758 260 847 473 377 
494 6 542 496 620 226 644 335 
495 7 558 42 729 93 357 693 840 
496 6 494 644 859 222 397 542 
497 7 628 714 265 727 251 780 796 
498 7 741 214 856 792 502 266 320 
499 7 749 480 420 311 373 350 264 
500 7 297 378 765 575 797 770 299 
501 7 655 673 605 47 12 459 434 
502 7 792 320 856 741 498 266 214 
503 7 91 375 551 305 312 225 517 
504 7 210 512 161 345 640 653 366 
505 6 552 733 236 568 148 39 
506 7 221 243 684 853 376 725 156 
507 7 805 383 574 772 321 735 113 
508 7 28 44 612 429 438 830 324 
509 7 841 342 695 461 712 819 130 
510 3 826 255 548 
511 7 88 768 410 615 779 269 808 
512 7 161 366 653 504 210 380 228 
513 7 652 654 431 123 520 327 190 
514 7 484 136 781 277 3 845 421 
515 7 370 366 462 653 380 161 94 
516 7 10 120 696 754 816 471 189 
517 7 267 312 22 744 282 576 206 
518 7 220 794 244 410 269 43 768 
519 7 757 786 172 76 75 775 14 
520 7 190 123 513 652 327 431 654 
521 7 583 193 372 599 233 590 795 
522 7 421 3 402 137 718 454 117 
523 6 849 545 92 675 859 397 
524 7 697 261 751 536 340 634 199 
525 6 720 466 746 105 9 526 
526 6 154 799 463 401 746 821 
527 7 126 15 704 854 332 70 493 
528 7 263 409 315 582 626 184 630 
529 7 25 489 106 173 278 369 218 
530 7 440 587 295 614 83 53 651 
531 7 189 41 358 56 611 29 565 
532 7 319 324 394 873 429 818 853 
533 7 298 151 541 627 351 458 581 
534 7 800 436 631 101 38 450 281 
535 7 573 455 109 661 860 155 355 
536 7 634 261 340 199 524 697 278 
537 7 346 186 469 831 825 52 205 
538 7 820 119 398 334 862 217 591 
539 7 470 331 810 654 652 513 817 
540 7 863 874 141 238 160 419 742 
541 7 298 351 458 533 581 266 501 
542 6 620 226 494 335 89 759 
543 7 547 418 204 569 832 412 561 
544 7 645 37 57 279 578 252 567 
545 6 523 761 849 335 620 494 
546 7 135 734 624 404 38 101 450 
547 7 543 418 569 832 204 561 412 
548 6 255 571 35 408 826 333 
549 7 200 318 718 137 187 13 454 
550 7 71 237 316 125 866 23 699 
551 7 305 225 307 375 503 73 665 
552 6 505 568 733 236 148 872 
553 7 61 424 111 691 179 487 693 
554 7 564 382 709 500 378 165 297 
555 7 116 710 702 153 63 51 343 
556 7 86 66 762 707 233 193 258 
557 7 256 752 639 9 82 584 720 
558 7 42 495 729 357 693 93 61 
559 6 705 689 717 722 104 788 
560 6 251 595 619 628 827 448 
561 7 832 332 706 408 126 204 543 
562 7 686 641 203 30 131 31 831 
563 6 253 464 474 743 385 55 
564 7 554 382 709 500 165 378 770 
565 7 29 611 189 139 358 531 56 
566 6 36 688 836 563 253 737 
567 7 326 578 37 745 252 879 197 
568 5 552 505 148 733 236 
569 7 418 547 543 832 356 204 561 
570 7 698 73 8 665 307 225 835 
571 7 35 255 333 548 408 826 706 
572 6 478 670 18 412 490 270 
573 7 535 455 109 355 661 860 623 
574 7 113 805 360 2 507 388 150 
575 7 299 274 472 297 500 797 765 
576 7 34 322 312 724 517 286 91 
577 7 111 310 328 487 93 669 61 
578 7 37 567 326 745 252 544 279 
579 7 371 425 417 213 128 774 16 
580 7 166 667 636 682 110 262 430 
581 7 458 351 266 298 541 856 636 
582 7 263 528 626 115 630 184 409 
583 7 521 372 193 795 753 317 590 
584 7 447 824 149 9 703 11 94 
585 7 197 839 879 139 482 29 611 
586 7 391 235 428 778 165 716 382 
587 7 530 596 53 651 259 616 440 
588 7 191 851 281 49 301 450 647 
589 7 801 81 632 216 6 223 271 
590 7 721 599 790 583 521 31 685 
591 7 862 398 850 217 820 334 538 
592 7 607 594 379 766 249 293 822 
593 7 823 95 740 676 439 635 285 
594 7 592 607 822 293 379 249 766 
595 6 560 619 251 649 827 796 
596 7 604 587 195 112 224 364 651 
597 7 58 291 206 744 22 208 790 
598 7 290 460 334 427 325 538 40 
599 7 685 521 30 590 168 31 583 
600 7 840 878 774 294 5 196 330 
601 7 773 814 433 704 70 15 854 
602 7 13 389 146 771 384 153 338 
603 7 68 247 609 374 308 26 330 
604 7 195 596 224 112 638 239 132 
605 7 655 501 459 673 434 47 12 
606 5 778 428 235 716 586 
607 7 592 594 379 766 249 725 671 
608 7 282 744 22 517 355 267 34 
609 7 26 245 813 247 374 756 603 
610 7 303 806 93 328 669 310 617 
611 7 29 358 565 56 189 139 839 
612 7 44 508 28 429 45 766 324 
613 7 242 842 231 793 427 361 491 
614 7 259 616 53 295 456 440 435 
615 7 808 767 691 167 511 88 222 
616 7 259 53 614 435 456 587 295 
617 7 303 806 759 300 272 761 669 
618 7 46 844 648 207 11 217 752 
619 6 649 796 595 172 251 560 
620 6 542 335 226 89 494 759 
621 7 64 678 80 437 683 329 442 
622 7 723 726 145 72 865 660 304 
623 7 426 202 860 232 78 395 573 
624 7 404 38 135 734 633 101 848 
625 7 277 486 471 454 60 484 348 
626 7 528 582 315 409 263 115 184 
627 7 151 533 667 636 682 298 166 
628 7 714 497 251 727 265 362 796 
629 7 647 301 740 436 285 534 593 
630 7 184 263 582 666 115 528 133 
631 7 534 800 436 38 101 764 404 
632 7 271 216 589 268 801 140 6 
633 7 848 404 624 734 764 212 38 
634 7 536 261 340 199 524 697 278 
635 7 439 444 95 823 593 368 740 
636 7 667 266 581 351 458 580 166 
637 7 20 672 257 77 250 279 252 
638 7 239 224 195 604 112 132 57 
639 7 283 69 256 843 557 124 469 
640 7 210 871 492 504 407 345 731 
641 7 562 203 831 686 205 131 30 
642 7 692 788 299 274 74 575 472 
643 7 122 432 230 449 320 185 107 
644 6 859 397 675 496 201 494 
645 7 544 57 279 37 132 239 77 
646 6 467 288 152 867 775 827 
647 7 301 629 851 368 588 281 436 
648 7 46 618 844 752 11 850 82 
649 6 619 796 775 595 172 827 
650 7 105 809 175 466 273 124 283 
651 7 112 587 596 224 604 530 83 
652 7 513 654 327 520 431 123 190 
653 7 366 161 512 380 504 515 370 
654 7 513 431 652 331 123 453 470 
655 7 501 673 605 47 12 459 434 
656 7 419 240 485 863 238 430 160 
657 7 296 284 402 858 137 713 522 
658 7 701 748 830 400 179 784 438 
659 7 43 241 662 794 768 220 410 
660 7 304 229 72 388 865 113 2 
661 7 155 317 455 753 535 795 573 
662 7 822 241 779 43 659 293 768 
663 7 218 337 713 106 852 341 284 
664 7 343 63 838 710 6 555 116 
665 7 307 225 73 570 698 206 551 
666 7 133 67 837 184 708 630 336 
667 7 636 166 580 627 533 151 682 
668 7 14 375 159 75 305 551 789 
669 7 300 272 328 487 759 310 617 
670 5 412 548 478 572 204 
671 7 766 379 243 532 319 324 394 
672 7 252 279 745 637 20 342 841 
673 7 655 501 605 47 12 459 434 
674 7 183 314 92 488 99 174 849 
675 6 397 859 644 201 849 174 
676 7 740 593 823 95 285 194 439 
677 4 694 875 472 74 
678 7 769 248 621 872 178 80 18 
679 7 703 680 154 864 824 445 584 
680 7 679 703 864 445 154 302 824 
681 7 359 227 32 434 459 877 381 
682 7 262 166 33 580 737 627 667 
683 7 64 270 490 621 329 396 18 
684 7 163 221 446 506 162 763 243 
685 7 599 30 168 686 31 562 203 
686 7 562 30 203 641 31 685 131 
687 7 857 782 731 85 156 871 376 
688 6 836 566 36 365 385 563 
689 6 705 559 722 788 717 157 
690 7 287 387 812 182 228 635 95 
691 7 767 167 615 553 511 222 808 
692 6 788 74 642 689 705 157 
693 7 357 61 424 42 729 558 495 
694 4 677 875 472 74 
695 7 461 819 509 170 342 841 712 
696 7 338 384 516 389 13 10 471 
697 7 524 751 261 340 278 199 140 
698 7 73 570 8 307 225 665 835 
699 7 815 866 125 473 377 23 738 
700 7 399 364 192 730 177 250 715 
701 7 658 748 830 179 400 784 438 
702 7 153 555 116 146 710 51 63 
703 7 679 680 154 9 824 584 447 
704 7 15 854 814 433 356 126 332 
705 6 559 689 722 717 788 104 
706 7 408 333 571 35 204 255 561 
707 7 86 762 556 481 168 66 809 
708 7 67 336 133 666 837 232 184 
709 7 165 382 327 190 554 564 391 
710 7 555 116 702 63 153 343 664 
711 7 51 306 188 482 146 732 771 
712 7 138 828 695 461 41 509 531 
713 7 284 296 337 663 657 218 341 
714 7 628 497 727 265 251 362 171 
715 7 257 108 730 719 250 352 700 
716 7 778 586 391 235 428 606 165 
717 6 24 559 353 705 689 104 
718 7 137 200 318 549 522 454 402 
719 7 108 257 715 352 730 250 292 
720 6 525 466 746 105 9 256 
721 7 790 590 291 87 208 58 31 
722 7 157 689 392 870 289 705 559 
723 7 622 72 145 304 660 865 220 
724 7 34 576 322 286 411 312 608 
725 7 376 156 243 782 85 221 687 
726 7 145 622 27 865 723 72 829 
727 7 362 714 171 265 628 497 21 
728 7 258 339 276 177 192 233 66 
729 7 42 558 357 495 693 196 61 
730 7 250 715 257 108 719 399 700 
731 7 407 857 871 687 164 345 210 
732 7 306 482 139 771 711 565 188 
733 7 236 148 505 552 39 568 739 
734 7 624 404 135 546 633 848 38 
735 7 772 383 321 507 656 498 214 
736 7 479 185 150 834 19 98 360 
737 7 750 323 33 477 468 262 682 
738 7 194 23 866 125 377 676 699 
739 7 818 873 62 39 236 394 733 
740 7 676 593 823 95 285 439 629 
741 7 498 856 214 792 502 266 320 
742 7 141 798 246 90 540 238 160 
743 7 464 55 385 563 381 474 465 
744 7 22 267 206 282 517 597 58 
745 7 252 672 170 578 37 342 819 
746 6 525 466 720 526 105 463 
747 7 234 380 207 504 653 512 161 
748 7 658 701 830 400 438 179 784 
749 7 480 499 420 350 373 311 264 
750 7 737 323 468 33 477 262 827 
751 7 697 268 524 278 140 369 271 
752 7 648 557 11 82 46 618 844 
753 7 317 795 372 193 583 661 155 
754 7 120 816 10 79 785 60 121 
755 7 825 416 52 346 102 491 874 
756 7 374 813 247 128 609 245 26 
757 7 786 519 172 8 780 14 75 
758 7 377 260 422 473 423 493 285 
759 7 89 272 300 617 335 669 620 
760 7 776 144 84 275 97 787 4 
761 7 335 545 620 777 617 759 89 
762 7 86 707 556 481 168 66 521 
763 7 344 406 162 333 163 441 684 
764 7 404 633 848 631 38 624 534 
765 7 378 797 770 297 500 488 575 
766 7 379 671 592 607 612 594 44 
767 7 167 691 615 222 226 808 542 
768 7 410 88 43 269 511 659 518 
769 7 248 872 678 39 178 148 62 
770 7 378 765 797 488 297 500 314 
771 7 146 389 602 51 732 711 13 
772 7 735 383 321 507 498 805 214 
773 7 601 811 814 70 783 4 433 
774 7 294 128 417 600 5 756 330 
775 6 649 172 76 796 619 152 
776 7 760 144 84 275 97 787 4 
777 7 761 545 806 335 617 523 303 
778 6 428 586 235 716 391 606 
779 7 822 662 7 511 88 43 241 
780 7 497 855 265 280 483 714 628 
781 7 136 445 514 103 864 484 3 
782 7 85 857 156 687 376 725 492 
783 7 811 70 212 4 764 848 633 
784 7 179 424 357 658 701 308 61 
785 7 807 79 348 845 121 60 816 
786 7 757 519 172 8 780 14 75 
787 7 144 84 4 212 760 776 811 
788 6 692 689 705 642 74 559 
789 7 159 211 91 158 375 503 668 
790 7 291 721 87 208 58 597 590 
791 7 131 87 31 208 390 861 562 
792 7 502 320 741 856 498 214 266 
793 7 842 850 82 613 427 591 242 
794 7 220 518 244 659 43 410 723 
795 7 317 753 583 372 193 661 455 
796 6 619 649 172 595 775 497 
797 7 765 378 297 770 488 500 575 
798 7 246 742 141 390 171 90 52 
799 6 463 821 309 526 349 181 
800 7 436 534 631 101 450 281 38 
801 7 81 589 6 838 632 216 271 
802 7 869 54 202 78 232 804 860 
803 7 860 78 295 456 202 440 535 
804 7 83 869 440 802 54 176 530 
805 7 574 360 507 150 113 388 736 
806 7 303 617 610 300 777 761 669 
807 7 785 79 121 443 348 181 845 
808 7 269 615 180 88 511 410 768 
809 7 273 650 175 105 707 481 86 
810 7 539 470 817 331 652 654 513 
811 7 4 783 212 70 773 787 848 
812 7 182 387 690 287 164 228 345 
813 7 756 374 609 245 247 26 128 
814 7 433 704 601 854 15 356 773 
815 7 699 866 125 441 473 316 377 
816 7 60 10 754 120 471 785 486 
817 7 877 810 539 470 12 681 47 
818 7 873 739 394 319 324 532 429 
819 7 170 461 695 342 745 56 841 
820 7 217 538 862 398 119 354 591 
821 7 799 463 309 349 181 443 526 
822 7 662 779 594 293 241 7 43 
823 7 95 593 439 635 740 676 444 
824 7 584 447 149 9 703 94 11 
825 7 755 52 416 346 537 209 102 
826 4 510 255 35 571 
827 6 595 649 323 467 619 560 
828 7 138 712 414 143 821 349 463 
829 7 27 215 48 119 354 363 726 
830 7 748 400 438 658 701 28 508 
831 7 641 203 186 169 205 562 537 
832 7 356 332 561 547 543 569 854 
833 7 96 393 142 50 187 173 25 
834 7 98 415 479 289 392 870 736 
835 7 861 8 570 698 73 665 307 
836 6 688 566 36 365 385 563 
837 7 133 67 666 708 457 219 336 
838 7 6 801 664 81 216 343 589 
839 7 56 611 29 197 358 585 879 
840 7 878 600 495 558 42 729 5 
841 7 342 509 695 672 461 819 170 
842 7 613 242 793 231 427 460 82 
843 7 69 283 639 124 469 256 186 
844 7 46 618 648 217 862 850 591 
845 7 348 484 785 807 136 60 277 
846 7 451 437 442 129 213 329 396 
847 7 285 493 423 758 629 534 740 
848 7 633 404 212 764 624 734 38 
849 7 523 92 675 545 397 859 201 
850 7 82 793 591 862 398 844 46 
851 7 368 301 588 647 191 49 281 
852 7 218 663 97 489 546 734 337 
853 7 394 319 532 873 324 739 818 
854 7 704 15 356 814 332 433 126 
855 7 280 483 780 265 390 835 497 
856 7 741 266 502 498 214 792 581 
857 7 687 782 731 85 871 156 407 
858 7 191 49 657 296 284 588 402 
859 6 397 644 675 201 496 849 
860 7 78 803 202 623 535 802 426 
861 7 835 570 665 73 698 208 8 
862 7 398 591 217 820 538 334 850 
863 7 419 540 238 160 874 656 141 
864 7 445 680 781 679 154 136 703 
865 7 72 145 660 2 304 229 622 
866 7 125 699 815 23 738 194 71 
867 7 288 467 468 477 646 323 750 
868 3 452 428 235 
869 7 802 54 804 202 78 232 409 
870 7 392 289 157 722 98 134 834 
871 7 640 407 210 731 857 492 85 
872 7 248 769 148 39 568 236 733 
873 7 319 394 818 324 532 429 739 
874 7 540 102 416 863 476 755 491 
875 5 677 694 74 472 134 
876 7 59 16 129 413 451 396 442 
877 7 817 681 359 12 227 32 810 
878 7 5 196 840 600 729 294 42 
879 7 197 839 326 585 567 170 819 
DEPOT_SECTION
   1
   -1
EOF
