NAME :  X-n876-kX-w87-c11.cctp
COMMENT : 	Adapted by Maziero, Usberti and Cavellucci from the Uchoa, Pecin, Pessoa, Poggi, Subramanian, and Vidal (2013)
TYPE :  CCTP
DIMENSION :    638
EDGE_WEIGHT_TYPE : 	EUC_2D	
CAPACITY : 	764
VERTICES_WITHIN_COVERAGE :  11
VERTICES_WITH_DEMAND : 	87
NODE_COORD_SECTION
1 0 0
2 205 638
3 893 161
4 191 775
5 444 871
6 225 445
7 226 456
8 301 566
9 140 746
10 196 791
11 356 894
12 876 165
13 56 653
14 845 153
15 139 808
16 418 823
17 94 422
18 928 162
19 341 981
20 209 815
21 172 705
22 374 765
23 291 847
24 890 163
25 250 591
26 970 235
27 251 857
28 260 618
29 162 764
30 906 149
31 247 471
32 191 464
33 587 796
34 198 622
35 878 157
36 346 812
37 435 818
38 61 783
39 362 765
40 612 859
41 194 515
42 17 446
43 903 248
44 224 732
45 225 847
46 397 945
47 215 418
48 226 733
49 972 221
50 142 476
51 168 895
52 200 480
53 119 633
54 336 808
55 499 899
56 777 171
57 476 870
58 792 163
59 288 812
60 198 613
61 336 674
62 137 629
63 325 333
64 504 837
65 230 635
66 152 785
67 280 381
68 157 615
69 919 211
70 292 398
71 222 739
72 828 150
73 208 442
74 197 773
75 877 170
76 143 623
77 99 543
78 389 437
79 161 762
80 252 631
81 57 741
82 186 706
83 167 827
84 198 737
85 150 707
86 205 347
87 38 861
88 986 232
89 209 620
90 45 650
91 123 656
92 189 796
93 371 909
94 173 748
95 519 907
96 912 247
97 486 851
98 361 802
99 345 809
100 184 781
101 341 854
102 398 817
103 256 570
104 139 720
105 152 784
106 239 824
107 204 615
108 203 430
109 201 538
110 305 605
111 210 654
112 608 873
113 456 878
114 298 404
115 364 459
116 193 936
117 225 517
118 878 171
119 889 224
120 246 643
121 74 625
122 166 625
123 352 593
124 852 122
125 738 166
126 226 451
127 289 331
128 902 312
129 290 350
130 949 143
131 853 187
132 388 908
133 379 421
134 113 576
135 443 857
136 228 825
137 223 473
138 935 243
139 948 144
140 265 621
141 750 158
142 138 677
143 706 133
144 494 871
145 785 201
146 59 888
147 200 544
148 450 874
149 66 681
150 304 891
151 716 135
152 902 193
153 143 633
154 264 607
155 125 615
156 903 146
157 192 766
158 207 406
159 368 628
160 258 369
161 496 929
162 198 597
163 883 141
164 253 331
165 928 241
166 475 920
167 217 778
168 827 143
169 9 757
170 164 879
171 584 811
172 208 811
173 222 501
174 203 458
175 399 849
176 405 922
177 413 793
178 122 590
179 134 553
180 246 457
181 506 813
182 280 567
183 186 782
184 171 696
185 271 633
186 308 909
187 941 128
188 119 877
189 125 758
190 102 856
191 503 909
192 311 931
193 198 543
194 67 565
195 240 696
196 886 161
197 205 442
198 209 600
199 251 877
200 251 355
201 907 166
202 475 886
203 846 170
204 307 561
205 281 561
206 356 706
207 685 879
208 221 776
209 139 792
210 188 458
211 462 208
212 990 280
213 425 862
214 132 617
215 264 341
216 324 634
217 27 749
218 219 393
219 351 815
220 921 173
221 449 874
222 669 859
223 903 164
224 159 801
225 891 152
226 440 836
227 210 737
228 191 758
229 900 213
230 828 139
231 181 452
232 359 351
233 178 757
234 44 689
235 314 859
236 453 791
237 425 948
238 149 514
239 214 648
240 516 905
241 278 844
242 144 616
243 41 715
244 213 755
245 205 785
246 157 504
247 166 607
248 66 652
249 242 589
250 385 910
251 67 514
252 228 344
253 614 815
254 4 658
255 427 846
256 19 918
257 327 672
258 956 153
259 224 587
260 392 748
261 886 154
262 249 734
263 812 115
264 608 925
265 397 947
266 217 460
267 214 448
268 164 620
269 935 216
270 201 694
271 94 787
272 461 857
273 171 743
274 35 898
275 264 895
276 292 579
277 316 750
278 557 864
279 192 747
280 859 177
281 202 584
282 154 613
283 278 613
284 116 568
285 355 974
286 270 414
287 753 185
288 389 841
289 493 814
290 467 883
291 196 686
292 979 283
293 175 481
294 78 763
295 303 526
296 452 889
297 255 855
298 412 741
299 420 960
300 899 140
301 248 445
302 365 372
303 378 855
304 567 731
305 139 394
306 513 894
307 370 942
308 104 402
309 417 940
310 798 198
311 495 914
312 894 162
313 154 817
314 94 373
315 528 792
316 246 423
317 234 636
318 167 289
319 56 594
320 140 517
321 234 489
322 77 565
323 224 758
324 464 893
325 281 604
326 443 852
327 961 214
328 183 785
329 186 551
330 158 602
331 230 446
332 286 851
333 243 482
334 198 727
335 11 367
336 875 159
337 172 772
338 204 654
339 953 250
340 373 950
341 535 887
342 131 688
343 125 751
344 429 875
345 230 449
346 207 652
347 188 430
348 72 422
349 79 664
350 765 213
351 284 425
352 450 818
353 110 733
354 84 781
355 178 864
356 863 164
357 993 250
358 161 837
359 930 143
360 189 469
361 217 803
362 229 622
363 201 599
364 236 408
365 222 762
366 198 340
367 119 621
368 844 132
369 362 469
370 376 725
371 68 519
372 914 192
373 316 406
374 313 830
375 169 799
376 231 439
377 857 163
378 378 718
379 598 885
380 484 848
381 360 441
382 214 376
383 998 234
384 274 547
385 410 782
386 348 364
387 141 549
388 299 851
389 175 712
390 437 830
391 355 879
392 639 866
393 347 454
394 976 180
395 199 482
396 272 456
397 208 828
398 241 865
399 335 749
400 85 741
401 872 257
402 578 822
403 240 562
404 269 374
405 511 912
406 592 642
407 412 876
408 151 889
409 248 646
410 388 408
411 892 169
412 905 265
413 208 626
414 366 446
415 520 859
416 882 216
417 866 142
418 201 723
419 207 436
420 931 286
421 315 420
422 178 725
423 959 212
424 286 836
425 839 161
426 207 653
427 880 197
428 413 467
429 587 908
430 900 226
431 108 725
432 173 511
433 192 541
434 439 901
435 359 922
436 201 403
437 494 798
438 186 353
439 592 884
440 253 495
441 201 793
442 865 120
443 269 599
444 173 844
445 326 854
446 840 141
447 153 454
448 302 878
449 347 728
450 182 600
451 235 375
452 476 900
453 127 659
454 250 889
455 328 818
456 562 462
457 237 482
458 824 116
459 336 376
460 193 527
461 105 922
462 456 866
463 192 347
464 183 480
465 187 859
466 581 666
467 144 458
468 129 762
469 182 351
470 193 763
471 69 514
472 360 980
473 121 840
474 254 614
475 255 472
476 229 456
477 242 459
478 295 602
479 247 488
480 248 604
481 62 657
482 141 521
483 906 287
484 84 662
485 18 916
486 255 564
487 310 815
488 345 904
489 215 593
490 161 464
491 392 457
492 608 839
493 417 815
494 257 751
495 409 779
496 211 656
497 941 191
498 357 627
499 207 488
500 139 755
501 163 715
502 68 718
503 770 153
504 185 765
505 135 490
506 90 548
507 179 821
508 415 844
509 183 692
510 421 782
511 911 258
512 220 422
513 22 663
514 115 875
515 395 921
516 59 511
517 160 758
518 100 547
519 350 659
520 202 526
521 48 759
522 420 813
523 17 690
524 76 737
525 135 595
526 143 945
527 18 770
528 284 822
529 188 429
530 866 252
531 368 807
532 135 728
533 946 170
534 262 582
535 488 315
536 466 885
537 171 610
538 204 837
539 240 317
540 812 120
541 150 951
542 208 651
543 991 264
544 262 410
545 179 716
546 124 629
547 31 691
548 186 627
549 435 842
550 591 791
551 152 737
552 382 828
553 292 231
554 282 357
555 184 786
556 179 972
557 991 236
558 861 165
559 178 631
560 168 595
561 361 801
562 905 182
563 420 492
564 836 157
565 208 436
566 366 385
567 191 251
568 320 398
569 440 871
570 912 151
571 250 390
572 68 604
573 346 276
574 178 751
575 213 655
576 106 789
577 495 886
578 277 823
579 271 387
580 228 881
581 893 185
582 215 871
583 119 397
584 166 588
585 91 782
586 238 440
587 139 814
588 332 800
589 27 398
590 194 401
591 305 676
592 466 826
593 153 742
594 262 837
595 442 792
596 193 755
597 857 271
598 627 869
599 972 244
600 209 903
601 275 565
602 128 462
603 487 879
604 110 751
605 168 744
606 837 152
607 172 880
608 496 803
609 215 624
610 218 497
611 960 163
612 954 191
613 156 649
614 237 830
615 229 818
616 261 498
617 350 941
618 419 930
619 57 375
620 432 935
621 226 708
622 178 634
623 200 453
624 155 636
625 304 808
626 265 655
627 522 889
628 199 348
629 268 963
630 315 324
631 197 285
632 485 935
633 398 221
634 214 630
635 857 266
636 244 736
637 177 772
638 205 796
DEMAND_SECTION
2 25
3 94
4 71
5 59
6 35
7 5
8 45
9 40
10 6
11 72
12 23
13 93
14 13
15 83
16 26
17 11
18 6
19 91
20 68
21 7
22 75
23 31
24 33
25 86
26 42
27 43
28 77
29 35
30 74
31 37
32 55
33 49
34 18
35 72
36 69
37 72
38 72
39 65
40 51
41 71
42 69
43 23
44 58
45 28
46 91
47 4
48 2
49 62
50 11
51 94
52 1
53 76
54 56
55 21
56 57
57 24
58 95
59 84
60 54
61 6
62 55
63 10
64 87
65 94
66 55
67 42
68 14
69 70
70 79
71 40
72 32
73 1
74 57
75 21
76 78
77 33
78 82
79 8
80 54
81 11
82 49
83 23
84 83
85 26
86 21
87 86
88 83
COVERAGE_SECTION
2 11 413 634 239 542 346 426 338 34 111 609 89 
3 11 312 24 196 411 225 223 261 201 35 12 30 
4 11 74 100 157 183 470 504 328 555 637 10 228 
5 11 569 221 148 462 113 135 344 326 296 213 272 
6 11 331 126 345 376 7 267 476 586 73 266 565 
7 11 476 126 345 266 6 331 267 477 137 376 180 
8 11 204 276 182 205 601 384 478 110 295 534 325 
9 10 500 593 551 343 189 468 532 517 79 104 
10 11 441 92 638 245 183 555 328 100 4 74 172 
11 10 391 488 93 435 250 132 101 303 515 617 
12 11 75 118 336 35 196 356 24 261 558 411 3 
13 10 481 248 90 349 484 149 121 513 234 547 
14 11 606 425 564 446 377 72 203 558 168 356 368 
15 11 587 209 313 224 66 105 375 83 358 473 576 
16 11 493 522 37 390 102 508 255 549 226 177 175 
17 10 308 348 583 314 602 305 619 467 447 589 
18 11 220 359 570 533 201 223 30 139 130 258 156 
19 11 285 472 617 340 307 192 435 265 46 629 488 
20 11 172 397 361 638 615 136 441 538 10 92 245 
21 9 389 184 501 545 82 509 422 85 270 
22 11 39 260 495 561 98 370 385 399 531 298 449 
23 11 332 388 424 241 235 528 374 578 594 448 59 
24 11 3 196 312 411 261 225 35 223 12 118 75 
25 11 249 480 534 154 443 103 474 259 486 28 403 
26 11 599 49 88 557 327 339 423 357 383 138 543 
27 11 297 398 199 594 45 241 614 454 580 106 332 
28 11 140 474 154 80 480 185 283 443 325 25 120 
29 11 79 517 337 233 637 94 574 605 105 66 273 
30 11 156 570 300 223 225 201 3 312 24 261 196 
31 11 475 333 477 180 457 479 321 476 137 440 7 
32 11 360 210 174 623 231 52 464 395 293 197 266 
33 10 550 171 402 253 492 315 40 304 278 112 
34 11 60 107 89 413 548 2 609 634 559 363 622 
35 11 336 12 196 261 24 75 118 225 3 163 312 
36 11 99 219 54 98 588 455 561 531 487 374 552 
37 10 390 352 522 16 493 226 549 595 255 236 
38 8 354 294 521 585 271 81 527 576 
39 11 22 399 260 561 98 449 370 531 588 99 277 
40 11 112 598 492 392 379 439 253 402 278 429 171 
41 10 460 520 432 109 433 193 147 499 610 117 
42 11 589 348 516 335 17 619 251 471 371 308 314 
43 11 96 511 412 430 165 119 138 401 229 530 416 
44 11 48 71 227 636 621 244 262 418 84 323 334 
45 11 614 136 538 398 397 582 106 27 615 297 580 
46 10 265 309 176 515 340 299 307 618 237 620 
47 11 512 158 108 565 419 436 364 73 218 197 376 
48 11 44 71 227 636 262 323 621 244 418 84 334 
49 11 327 26 423 88 599 557 383 339 612 357 269 
50 11 505 467 602 490 447 246 293 238 320 464 482 
51 11 170 607 408 355 465 600 116 444 188 582 526 
52 11 395 499 360 464 32 174 137 210 293 610 266 
53 11 546 367 62 155 214 91 153 76 453 242 624 
54 11 99 588 36 455 219 98 561 487 374 531 625 
55 11 191 577 306 311 240 405 95 452 603 627 202 
56 10 58 503 287 141 145 310 125 350 72 168 
57 11 603 202 290 144 536 272 462 97 113 380 577 
58 11 56 503 310 72 145 168 141 230 564 287 606 
59 9 528 578 625 487 424 374 241 23 594 
60 11 107 34 89 363 162 413 198 548 609 450 634 
61 5 257 519 591 206 216 
62 11 153 76 214 546 242 53 155 624 367 282 68 
63 11 630 127 232 129 386 459 554 302 573 215 568 
64 11 97 380 181 289 415 144 608 437 592 57 603 
65 10 317 362 634 120 609 239 409 80 413 2 
66 11 105 209 224 375 29 337 79 15 517 637 328 
67 11 579 404 70 554 160 114 571 129 286 544 200 
68 11 282 268 247 122 242 330 537 76 624 153 560 
69 10 269 229 372 430 152 497 165 562 119 138 
70 10 114 67 579 373 286 351 568 421 544 404 
71 11 44 48 227 244 323 636 365 84 418 262 334 
72 11 168 606 230 564 446 425 14 368 203 377 458 
73 11 197 419 565 267 108 623 6 174 126 266 331 
74 11 4 157 470 183 245 504 100 228 10 328 555 
75 11 118 12 336 35 196 24 356 411 558 3 261 
76 11 242 62 153 214 282 68 624 155 546 268 122 
77 11 518 506 284 322 134 179 194 371 387 471 251 
78 10 133 491 414 381 410 115 428 369 393 566 
79 11 29 517 337 94 233 605 637 574 273 593 500 
80 11 120 28 140 409 474 185 317 65 362 154 480 
81 9 524 521 502 400 294 217 243 38 354 
82 11 545 389 21 509 184 270 422 291 418 334 501 
83 11 358 507 313 444 224 375 587 15 92 465 538 
84 11 334 227 279 418 596 228 244 422 71 574 44 
85 9 501 104 21 184 389 532 342 545 551 
86 10 628 366 463 438 252 469 382 451 539 200 
87 11 146 274 485 256 190 514 38 188 473 461 354 
88 11 557 383 26 49 599 357 327 543 423 339 212 
89 11 413 107 609 34 634 60 2 198 362 363 548 
90 11 13 481 248 513 149 349 121 234 484 254 547 
91 9 453 53 142 546 62 153 342 613 367 
92 11 10 555 441 328 183 100 638 245 375 4 74 
93 10 250 132 435 11 488 515 307 391 176 617 
94 9 273 574 605 233 517 79 29 279 228 
95 11 240 405 306 191 627 55 311 341 161 577 603 
96 11 43 511 165 412 138 430 119 229 69 269 483 
97 11 380 57 144 64 272 603 592 462 415 577 202 
98 11 561 531 219 99 36 54 588 552 39 455 22 
99 11 36 219 54 588 98 561 455 531 487 374 625 
100 11 183 328 555 4 637 74 337 10 92 504 157 
101 11 445 235 391 303 374 455 219 36 388 11 99 
102 11 493 552 16 522 288 177 175 508 531 37 385 
103 10 486 534 403 601 25 182 249 205 384 443 
104 9 532 85 551 501 9 593 431 353 342 
105 11 66 209 224 29 337 375 79 15 517 637 328 
106 6 614 136 615 594 45 361 
107 11 60 89 34 413 609 198 363 634 162 548 2 
108 11 419 565 197 73 347 529 47 512 267 623 158 
109 9 147 193 433 520 460 329 41 117 432 
110 8 478 325 283 276 216 443 8 154 
111 8 496 426 575 346 542 338 239 2 
112 10 40 379 439 598 392 492 429 264 278 253 
113 10 148 221 290 296 462 536 5 324 569 202 
114 9 70 373 421 568 351 67 286 579 544 
115 8 369 414 381 393 491 78 133 428 
116 8 600 556 541 51 526 607 408 170 
117 6 173 610 520 321 41 109 
118 11 75 12 336 196 24 35 411 356 3 312 558 
119 8 416 430 229 43 427 69 96 152 
120 10 409 80 317 65 626 185 362 28 140 474 
121 10 572 248 13 481 319 90 484 349 367 53 
122 11 268 68 559 622 537 624 282 247 548 76 153 
123 6 498 159 110 216 204 8 
124 8 368 442 446 417 230 458 14 168 
125 10 141 287 503 151 56 143 58 350 145 310 
126 11 345 7 6 331 476 267 266 376 586 477 73 
127 11 129 215 554 630 63 164 200 404 160 67 539 
128 9 483 420 412 511 597 401 43 635 96 
129 11 554 127 215 404 67 630 160 63 200 164 579 
130 9 139 258 187 359 611 533 18 570 220 
131 6 280 203 558 377 356 75 
132 6 250 515 93 176 435 11 
133 10 410 78 381 414 491 566 115 393 302 369 
134 10 284 178 525 179 518 77 506 322 387 155 
135 11 326 5 569 462 549 148 221 272 213 255 226 
136 8 615 614 106 397 20 45 172 361 
137 11 266 7 457 476 321 126 333 499 31 52 477 
138 11 165 339 96 269 511 43 26 69 412 599 327 
139 10 130 258 187 359 611 533 18 570 220 30 
140 11 28 185 474 154 283 80 443 325 480 120 409 
141 11 125 503 287 56 151 58 143 145 350 310 540 
142 6 342 453 91 85 613 184 
143 8 151 125 141 503 287 56 58 350 
144 11 603 577 57 97 202 380 55 415 290 306 536 
145 6 310 350 56 287 58 503 
146 10 274 87 256 485 190 461 514 188 473 408 
147 8 193 109 433 329 460 520 41 117 
148 11 221 5 113 462 569 296 135 290 536 272 344 
149 8 349 234 481 484 248 13 547 90 
150 10 448 186 235 275 388 192 445 488 332 23 
151 9 143 125 141 503 287 56 58 350 145 
152 9 562 372 581 229 427 69 411 201 220 
153 10 62 76 624 242 214 546 613 68 282 53 
154 11 443 28 474 140 283 480 325 25 534 80 185 
155 11 214 367 546 62 53 242 76 525 153 178 282 
156 11 30 300 570 225 3 223 312 261 201 24 163 
157 11 470 504 228 4 74 596 637 100 183 233 279 
158 10 436 47 590 218 512 108 364 419 529 565 
159 5 498 519 123 216 61 
160 11 404 200 571 579 451 67 554 215 129 164 252 
161 9 632 311 191 166 405 55 240 95 452 
162 10 363 198 281 60 450 489 107 34 89 259 
163 11 261 225 300 35 417 196 336 156 3 24 30 
164 11 215 539 200 252 127 160 554 129 404 451 86 
165 11 138 96 511 43 269 339 69 430 412 229 26 
166 8 632 452 311 161 324 191 55 202 
167 10 208 245 365 74 323 441 638 244 10 361 
168 11 230 72 446 606 564 368 14 425 458 540 263 
169 11 527 217 521 81 243 38 523 294 524 547 502 
170 11 607 51 408 355 465 444 358 188 514 600 83 
171 11 402 33 550 253 492 40 278 315 112 598 439 
172 11 20 361 638 397 441 615 10 92 136 245 538 
173 9 610 117 321 499 457 137 333 479 52 
174 11 623 32 266 210 267 197 73 360 52 419 7 
175 9 288 508 303 552 255 213 407 16 102 
176 7 515 618 132 309 250 46 265 
177 10 385 510 495 522 493 102 595 16 37 236 
178 10 525 134 284 155 214 367 242 330 76 179 
179 8 387 284 134 482 518 77 320 178 
180 10 477 301 31 475 476 345 331 586 7 126 
181 8 289 608 437 64 315 380 592 97 
182 10 601 205 276 8 384 534 103 486 204 443 
183 11 100 328 555 4 10 637 74 92 157 337 504 
184 10 21 509 389 82 501 545 85 291 270 422 
185 8 140 28 80 283 626 474 409 120 
186 10 150 192 448 488 275 11 235 435 617 391 
187 9 130 139 359 258 18 570 611 30 156 
188 11 514 190 408 473 170 461 51 607 358 355 146 
189 7 468 343 500 604 9 353 532 
190 11 514 473 188 146 587 408 15 358 87 313 170 
191 11 311 405 55 240 95 306 161 577 452 627 166 
192 10 186 617 150 488 435 448 629 11 19 275 
193 8 147 109 433 329 460 520 41 117 
194 7 322 506 319 518 77 572 371 
195 3 621 44 262 
196 11 24 3 261 312 35 225 411 12 336 75 118 
197 11 73 419 565 267 108 623 174 6 347 529 266 
198 11 363 489 162 107 60 281 89 259 34 609 413 
199 11 454 398 27 275 297 580 582 45 594 241 332 
200 11 160 215 164 252 404 451 554 571 579 67 129 
201 11 223 312 3 411 220 562 570 24 30 156 18 
202 10 290 536 324 452 603 57 577 113 296 144 
203 10 425 377 280 558 564 14 131 356 606 72 
204 10 8 276 205 182 601 295 384 478 110 325 
205 9 182 601 384 8 276 204 486 103 534 
206 8 449 378 370 61 257 519 399 260 
207 10 222 392 598 40 112 379 492 264 439 253 
208 9 167 365 245 323 244 74 441 638 361 
209 9 66 105 15 224 587 313 375 468 576 
210 10 32 231 360 623 174 197 464 52 73 293 
211 9 633 535 573 553 232 63 630 302 386 
212 11 292 543 357 599 557 383 88 339 26 420 49 
213 10 344 255 569 135 407 5 326 508 549 221 
214 11 155 242 62 76 367 546 153 53 282 525 68 
215 11 164 200 554 127 129 160 404 539 252 67 451 
216 5 498 110 519 257 61 
217 11 169 521 527 81 243 38 524 502 294 547 400 
218 10 158 382 436 364 451 47 590 512 571 108 
219 11 36 99 98 54 561 531 455 588 552 101 374 
220 11 18 201 562 223 372 570 533 497 30 152 312 
221 11 148 5 113 569 462 296 135 290 344 536 272 
222 11 207 392 598 40 112 492 253 379 439 264 429 
223 11 201 312 3 411 24 30 570 196 225 156 562 
224 11 375 66 313 105 15 209 587 83 507 328 555 
225 11 261 3 196 312 24 156 35 163 300 30 223 
226 11 390 549 255 326 37 135 352 16 508 592 213 
227 11 71 84 44 48 334 418 244 279 323 596 228 
228 11 596 470 157 504 279 233 574 74 4 637 94 
229 8 430 119 416 69 152 372 427 581 
230 11 168 72 446 606 368 564 14 458 425 540 124 
231 9 210 32 360 623 174 347 490 529 197 
232 11 386 302 459 566 63 630 568 410 129 373 127 
233 11 574 94 504 228 596 637 273 337 470 605 29 
234 10 547 149 243 523 513 481 13 502 90 248 
235 11 445 388 448 23 101 332 374 150 424 241 455 
236 3 595 352 37 
237 7 309 299 620 618 46 265 176 
238 11 320 482 246 432 505 387 50 179 293 41 460 
239 10 111 542 575 346 426 496 338 2 634 65 
240 11 95 405 306 191 627 55 311 341 577 161 603 
241 11 332 424 23 594 578 388 528 297 27 59 374 
242 11 76 282 214 68 62 153 155 268 330 525 624 
243 10 234 547 502 81 523 217 524 149 521 400 
244 11 323 365 71 227 596 208 228 279 470 84 167 
245 11 441 10 638 74 167 4 208 92 183 100 555 
246 11 238 432 320 482 505 293 50 464 41 490 460 
247 10 537 330 68 560 268 282 450 122 584 242 
248 8 481 13 349 90 484 121 149 234 
249 11 25 480 259 534 103 403 489 154 474 486 443 
250 6 132 93 515 176 435 11 
251 8 471 371 516 506 77 518 194 322 
252 11 86 200 164 628 366 539 451 382 215 463 160 
253 11 492 171 33 550 402 40 598 392 112 222 379 
254 11 513 523 90 547 234 13 481 248 149 243 349 
255 10 549 508 213 226 326 135 390 16 175 569 
256 10 485 274 146 87 461 190 514 188 526 473 
257 5 61 591 519 216 206 
258 9 611 130 139 533 359 18 187 394 612 
259 11 489 249 198 281 25 363 162 480 403 107 362 
260 10 298 22 370 378 39 495 385 510 449 177 
261 11 225 196 35 3 24 312 336 163 12 411 75 
262 6 636 494 48 44 71 323 
263 9 540 458 230 168 368 72 446 124 606 
264 6 429 379 439 112 598 40 
265 10 46 309 340 176 299 515 307 237 618 620 
266 11 7 267 126 476 137 174 6 345 623 331 73 
267 11 73 6 197 126 266 565 7 419 174 623 331 
268 11 122 68 282 537 247 559 624 330 242 622 76 
269 11 69 423 165 327 497 138 612 372 229 430 49 
270 7 291 509 82 418 621 184 21 
271 8 585 354 576 294 38 604 189 468 
272 11 462 135 326 57 148 221 5 113 380 569 97 
273 9 605 94 574 233 593 422 517 551 79 
274 10 485 146 256 87 461 190 514 188 473 408 
275 10 454 199 398 580 27 150 297 448 186 332 
276 10 8 182 205 601 204 478 325 110 443 534 
277 3 399 449 39 
278 10 341 415 439 627 379 402 112 306 429 40 
279 11 596 228 84 574 470 233 94 157 504 227 273 
280 10 131 558 356 377 203 75 118 12 336 425 
281 9 162 363 489 198 259 450 60 107 560 
282 11 68 242 268 330 247 76 122 537 214 62 153 
283 10 325 140 154 443 28 478 185 474 110 480 
284 9 134 178 179 518 77 387 506 525 322 
285 11 472 19 340 617 307 265 46 435 192 299 515 
286 7 544 351 316 70 579 114 571 
287 10 125 141 56 350 145 503 58 310 151 143 
288 9 175 552 303 102 508 16 255 493 531 
289 6 608 181 437 64 592 380 
290 10 536 202 324 113 57 296 148 452 221 462 
291 3 270 509 82 
292 11 212 543 357 599 339 420 26 557 88 383 138 
293 11 464 360 490 32 395 52 210 246 231 432 50 
294 8 354 400 585 38 524 271 81 521 
295 4 204 384 8 205 
296 9 113 324 148 221 536 290 434 5 569 
297 11 27 398 594 199 241 45 332 614 454 106 424 
298 8 260 495 370 378 385 510 22 177 
299 7 237 309 265 46 620 618 176 
300 11 156 30 225 163 570 261 3 312 223 24 196 
301 9 586 180 477 331 345 376 316 476 6 
302 11 566 386 232 459 410 133 568 63 373 78 381 
303 9 288 175 552 391 101 508 407 102 11 
304 8 550 466 33 315 171 402 406 253 
305 4 583 308 314 17 
306 11 627 240 95 55 191 405 577 341 311 144 603 
307 11 340 617 435 46 265 93 515 250 285 132 472 
308 8 583 17 314 305 348 619 602 467 
309 8 618 237 620 299 46 265 176 515 
310 4 145 56 58 350 
311 11 191 161 55 405 166 240 632 452 95 306 577 
312 11 3 24 411 196 223 225 261 201 35 12 30 
313 11 587 83 15 224 358 375 507 209 66 105 444 
314 8 308 583 619 17 305 348 589 335 
315 8 181 608 437 289 64 402 33 171 
316 9 364 586 544 301 376 286 512 331 6 
317 9 65 120 362 409 80 634 609 239 413 
318 10 631 567 366 463 469 438 628 86 539 252 
319 7 572 194 121 322 90 506 13 
320 10 482 238 246 505 387 432 179 50 77 293 
321 9 457 333 479 173 610 137 440 31 475 
322 8 194 506 518 77 319 134 284 572 
323 8 365 244 208 71 167 48 227 44 
324 9 536 290 202 296 452 113 148 221 57 
325 10 283 443 478 154 140 110 28 276 474 534 
326 11 135 549 226 255 5 272 462 569 213 148 221 
327 11 423 49 26 612 269 497 88 599 339 394 557 
328 11 555 100 183 4 92 10 637 337 74 375 441 
329 8 433 193 147 109 460 520 41 281 
330 10 247 282 560 68 537 584 268 242 122 450 
331 11 345 6 126 376 476 586 7 267 301 477 180 
332 11 23 241 388 424 594 235 528 578 297 448 374 
333 10 457 479 321 31 440 475 137 477 616 180 
334 11 418 84 227 422 279 545 82 44 71 389 596 
335 10 589 619 42 348 314 308 17 583 305 602 
336 11 35 12 75 196 118 261 356 558 24 225 3 
337 11 637 29 79 100 504 233 183 328 517 555 4 
338 8 426 346 542 111 496 575 239 2 
339 11 138 599 26 165 49 327 88 269 423 357 543 
340 11 307 265 46 617 285 435 472 515 93 250 176 
341 11 627 306 95 240 278 415 405 55 191 577 144 
342 7 142 85 453 91 104 532 184 
343 10 189 468 500 604 9 353 532 593 551 431 
344 8 569 213 5 407 221 148 135 113 
345 11 331 126 6 476 7 376 586 267 477 266 180 
346 8 426 542 111 338 496 575 239 2 
347 7 529 108 419 197 565 73 231 
348 11 17 308 619 589 583 314 42 602 305 467 335 
349 7 484 248 481 149 13 90 121 
350 7 145 287 310 56 125 58 141 
351 5 286 114 544 70 421 
352 7 37 390 592 226 236 595 549 
353 9 431 604 343 532 400 189 104 9 524 
354 8 585 271 294 38 576 400 604 521 
355 11 465 607 170 444 358 51 408 538 582 83 507 
356 11 558 377 12 336 280 75 35 118 203 14 417 
357 11 543 557 383 88 599 26 212 49 292 339 327 
358 11 83 444 313 507 355 587 465 15 224 375 473 
359 11 139 18 130 187 570 30 156 258 220 300 533 
360 11 32 210 464 52 395 174 293 231 623 499 490 
361 9 172 20 638 441 615 245 10 136 167 
362 11 65 609 317 634 89 413 80 107 474 480 120 
363 10 162 198 60 281 489 107 450 89 34 259 
364 10 316 512 47 218 571 544 158 376 586 451 
365 8 323 244 208 167 71 74 227 48 
366 9 628 463 86 438 469 252 382 539 451 
367 11 155 546 53 214 62 76 242 153 178 525 91 
368 11 446 124 230 168 14 606 72 417 442 458 564 
369 6 115 393 414 381 491 78 
370 8 378 206 260 449 298 22 39 399 
371 8 251 471 516 506 77 518 194 322 
372 10 152 562 69 220 581 229 201 497 223 269 
373 7 568 421 114 70 459 351 67 
374 11 487 455 625 388 445 23 424 235 528 59 54 
375 11 224 92 328 555 66 100 105 313 183 507 337 
376 11 331 586 6 345 126 476 7 301 267 512 316 
377 11 558 356 203 280 14 336 425 12 75 35 118 
378 8 370 206 260 449 298 22 39 399 
379 9 439 112 429 40 598 264 392 278 492 
380 11 97 57 64 144 272 592 603 462 289 415 202 
381 9 414 115 393 133 369 78 491 410 421 
382 10 218 451 86 436 158 590 628 252 438 463 
383 11 557 88 357 26 599 49 543 327 423 212 339 
384 8 205 601 182 486 103 8 204 295 
385 10 495 177 510 522 493 595 102 260 22 298 
386 11 232 459 302 566 63 568 630 373 410 129 114 
387 8 179 482 284 320 238 134 518 77 
388 11 23 332 235 424 241 374 445 448 528 578 487 
389 9 545 21 501 82 422 184 509 85 334 
390 11 226 37 549 352 255 16 326 522 493 508 135 
391 10 11 488 101 303 93 445 250 435 132 235 
392 11 598 40 222 112 492 379 207 439 253 264 429 
393 5 115 381 369 414 78 
394 9 611 612 533 258 423 327 497 49 130 
395 11 52 499 360 464 32 174 293 610 137 210 266 
396 5 475 180 301 31 477 
397 11 538 20 172 136 615 45 361 614 507 106 638 
398 11 27 199 297 580 45 454 582 594 614 275 106 
399 6 277 449 39 22 206 370 
400 9 524 294 353 604 81 431 502 354 343 
401 9 530 635 597 43 412 119 511 96 416 
402 11 171 33 492 550 253 278 40 315 112 439 379 
403 7 486 103 249 259 534 25 601 
404 11 160 67 579 554 571 200 129 70 215 451 544 
405 11 95 191 240 311 55 306 161 627 577 341 632 
406 4 466 304 550 33 
407 5 344 213 569 175 5 
408 11 170 51 607 188 355 514 465 444 358 461 473 
409 7 120 80 317 626 65 185 28 
410 11 133 78 566 302 381 414 491 115 386 459 393 
411 11 24 312 3 196 223 118 75 201 12 261 581 
412 11 511 43 96 483 165 420 401 138 430 530 119 
413 11 89 609 634 34 2 107 60 362 548 239 65 
414 9 381 115 393 369 78 133 491 410 428 
415 11 64 144 627 341 97 306 278 577 380 603 55 
416 7 119 229 427 430 152 581 69 
417 11 163 35 336 356 442 261 377 14 124 368 558 
418 11 334 84 227 82 422 545 44 71 279 48 389 
419 11 565 73 197 108 267 623 512 6 47 347 529 
420 10 483 412 511 128 339 96 138 165 43 292 
421 5 373 114 568 351 70 
422 9 545 389 501 273 334 21 82 605 84 
423 11 327 49 612 269 26 497 88 599 394 339 138 
424 11 241 23 528 332 578 388 59 594 374 487 625 
425 11 564 606 14 203 72 377 446 168 558 356 230 
426 8 346 542 111 338 496 575 239 2 
427 8 581 416 152 118 229 75 119 131 
428 9 491 563 78 115 369 414 133 381 410 
429 8 379 439 264 112 278 40 341 598 
430 8 119 229 416 43 69 96 165 152 
431 9 353 604 532 400 104 343 524 189 9 
432 11 246 41 238 460 293 464 520 320 482 433 109 
433 9 193 109 147 329 460 520 41 432 117 
434 7 296 324 344 113 148 221 5 
435 11 93 617 307 488 11 250 340 132 515 391 46 
436 9 158 590 47 218 108 512 529 347 382 
437 6 608 289 181 315 64 592 
438 8 469 463 628 366 86 382 252 590 
439 9 379 112 429 40 598 278 264 492 392 
440 7 479 616 333 321 457 475 31 
441 11 10 638 245 92 555 172 183 361 74 328 4 
442 6 124 417 368 163 446 14 
443 11 154 325 283 534 25 28 474 140 480 478 249 
444 11 358 83 355 465 507 538 313 170 607 397 224 
445 11 235 101 374 388 448 23 455 391 332 487 150 
446 11 368 606 230 14 168 72 564 425 124 417 377 
447 8 467 490 50 602 231 210 293 32 
448 11 150 235 388 332 186 23 445 241 275 424 101 
449 8 206 399 370 378 277 39 22 260 
450 10 537 560 162 247 363 584 60 330 281 34 
451 11 382 571 160 218 200 252 364 404 579 86 158 
452 10 202 324 536 290 166 55 311 577 603 296 
453 9 91 142 53 342 546 153 613 62 624 
454 10 199 275 580 398 27 297 582 600 45 332 
455 11 54 487 588 36 99 374 219 625 445 98 561 
456 7 563 428 535 491 78 406 410 
457 10 333 321 479 31 137 440 475 173 477 610 
458 9 263 540 230 368 168 124 446 72 606 
459 11 386 568 302 566 232 373 63 114 70 421 129 
460 9 520 41 109 433 193 147 329 432 117 
461 10 526 188 514 541 146 408 190 51 170 274 
462 11 148 272 221 113 5 135 569 326 57 290 536 
463 8 628 438 366 469 86 252 382 451 
464 11 293 360 395 52 32 210 499 490 231 174 623 
465 11 355 444 607 538 170 582 358 397 83 507 45 
466 5 406 304 550 33 315 
467 8 447 602 50 490 505 231 293 210 
468 9 189 343 500 9 604 517 593 79 105 
469 8 438 463 628 366 86 382 252 590 
470 11 157 228 504 596 74 4 233 279 637 574 100 
471 8 251 371 516 506 77 518 194 322 
472 11 285 19 340 307 617 265 46 435 299 192 515 
473 11 190 587 514 15 188 313 358 83 209 444 576 
474 11 28 154 480 140 80 443 25 283 185 362 249 
475 11 31 333 180 477 479 457 396 440 321 616 301 
476 11 7 126 345 331 6 266 477 180 267 376 137 
477 11 180 31 476 301 7 345 126 331 475 586 6 
478 9 110 325 283 276 443 154 8 140 28 
479 9 333 440 457 321 31 616 475 137 173 
480 11 474 25 154 249 28 443 140 362 534 80 259 
481 9 248 13 90 349 484 149 121 234 513 
482 9 320 238 246 387 505 179 432 50 77 
483 10 412 128 420 511 43 96 401 165 597 138 
484 7 349 248 481 149 13 121 91 
485 10 256 274 146 87 461 190 514 188 473 526 
486 9 103 403 534 601 182 384 205 25 249 
487 11 625 374 455 59 54 528 588 424 578 36 99 
488 11 11 435 93 391 186 617 250 132 150 192 307 
489 11 198 259 363 281 162 107 60 249 89 609 362 
490 10 447 467 50 293 231 464 210 360 32 602 
491 10 78 428 115 414 369 381 133 393 563 410 
492 11 40 253 112 402 598 171 392 379 33 439 550 
493 11 522 16 37 102 177 390 508 226 549 255 352 
494 4 262 636 323 48 
495 10 385 510 177 260 595 522 493 22 298 102 
496 8 111 575 426 346 542 338 239 2 
497 11 612 533 269 220 372 423 69 327 18 611 394 
498 7 159 519 123 216 61 257 110 
499 9 395 52 610 173 137 464 360 321 32 
500 11 9 468 189 343 593 517 551 79 29 532 604 
501 9 389 21 85 545 422 184 82 104 551 
502 7 524 81 243 400 149 234 431 
503 11 56 141 58 125 287 145 310 540 151 263 72 
504 11 157 470 228 233 637 4 596 74 337 100 574 
505 11 50 246 320 238 602 482 467 490 447 293 432 
506 11 77 518 322 194 284 134 371 471 251 179 516 
507 11 83 358 375 444 313 92 224 397 538 20 172 
508 10 255 175 549 16 213 226 288 390 326 493 
509 7 184 82 291 21 270 389 545 
510 9 385 495 177 595 522 236 493 37 16 
511 11 412 96 43 165 138 483 420 430 401 119 339 
512 11 47 565 108 419 376 158 364 73 6 197 586 
513 11 254 90 523 547 234 13 481 248 149 243 349 
514 11 188 190 473 408 461 170 51 146 607 358 355 
515 8 176 132 250 46 265 618 93 309 
516 8 251 471 371 506 77 194 518 322 
517 11 79 29 94 605 593 233 337 273 574 500 551 
518 11 77 506 284 322 134 179 194 387 371 471 251 
519 7 61 257 498 159 216 206 591 
520 9 460 109 41 193 147 433 117 329 173 
521 11 81 217 38 294 527 524 169 400 354 243 502 
522 11 493 16 37 177 102 390 226 352 595 508 510 
523 11 547 234 513 243 254 90 149 13 481 502 217 
524 9 400 81 502 294 353 431 521 604 243 
525 11 178 155 214 242 330 282 76 134 68 367 584 
526 10 541 461 556 116 51 408 170 607 188 514 
527 11 169 217 521 38 81 243 294 354 524 502 400 
528 10 578 59 424 241 625 23 487 594 332 374 
529 7 347 108 419 197 565 73 231 
530 7 401 635 597 119 43 416 412 
531 11 98 561 219 36 99 552 54 102 588 288 455 
532 9 104 9 551 593 343 353 85 431 500 
533 11 611 18 258 497 612 220 139 130 359 394 201 
534 11 103 25 443 486 249 601 182 154 480 205 325 
535 10 211 633 232 302 410 566 573 386 133 78 
536 10 290 324 202 113 296 57 452 148 221 462 
537 10 247 268 68 330 450 560 122 282 559 548 
538 11 397 20 45 172 136 465 507 615 444 614 361 
539 11 164 252 215 200 86 366 127 628 631 160 463 
540 9 263 458 230 168 72 368 446 124 606 
541 9 526 556 116 461 51 408 170 607 600 
542 8 346 426 111 338 496 575 239 2 
543 11 357 212 292 557 599 383 88 26 339 49 327 
544 8 286 316 571 579 364 351 70 67 
545 9 389 422 82 21 501 184 334 418 509 
546 11 53 367 62 155 214 153 76 242 91 453 624 
547 10 234 523 243 513 149 90 254 13 481 502 
548 11 559 622 34 60 122 2 107 413 268 537 89 
549 10 226 255 390 326 135 508 213 37 16 352 
550 10 33 171 253 402 492 315 304 40 278 112 
551 9 593 9 605 532 273 104 500 517 94 
552 11 288 102 531 175 303 98 219 561 16 493 508 
553 10 573 630 127 539 567 633 63 164 631 215 
554 11 129 404 67 215 127 160 200 579 164 70 571 
555 11 328 183 100 92 4 10 637 74 337 441 375 
556 8 541 116 526 600 51 408 461 629 
557 11 88 383 357 26 599 49 543 327 339 423 212 
558 11 356 377 280 12 336 203 75 118 35 14 425 
559 9 622 548 122 268 34 537 624 68 60 
560 8 584 247 330 450 537 68 282 268 
561 11 98 531 219 99 36 54 588 552 39 455 22 
562 10 152 581 372 201 220 223 411 312 3 24 
563 8 428 491 369 78 115 414 381 133 
564 11 425 606 14 72 203 446 168 230 377 368 558 
565 11 419 73 197 108 267 512 6 47 623 347 529 
566 11 302 386 459 410 232 133 568 373 381 78 414 
567 10 631 318 539 366 463 86 628 252 469 164 
568 8 373 114 421 459 70 67 386 351 
569 10 5 221 148 344 135 113 213 462 326 296 
570 11 30 156 201 223 300 18 359 3 225 312 220 
571 10 451 579 160 364 544 404 67 218 286 316 
572 9 319 121 194 322 248 13 90 134 481 
573 11 630 63 553 232 633 127 386 129 302 459 554 
574 11 94 233 273 605 228 279 504 596 470 517 79 
575 8 496 111 426 542 239 346 338 2 
576 8 271 585 354 209 468 189 15 294 
577 11 603 55 144 202 306 191 452 57 627 240 290 
578 8 528 59 424 241 594 23 332 625 
579 10 67 404 571 160 70 544 286 114 554 200 
580 11 582 398 199 454 600 27 45 297 275 465 538 
581 9 152 562 411 427 118 24 75 372 223 
582 11 580 45 398 465 600 199 538 355 27 454 297 
583 6 308 305 17 314 348 447 
584 7 560 330 247 450 537 68 282 
585 8 271 354 576 294 38 604 400 189 
586 10 376 331 301 345 6 126 476 180 316 477 
587 11 15 313 209 224 83 66 358 473 105 375 507 
588 11 54 99 36 455 219 487 98 561 625 374 531 
589 11 335 619 42 348 17 314 308 583 305 516 602 
590 7 436 158 218 47 529 108 347 
591 2 257 61 
592 7 352 226 380 390 289 272 37 
593 9 551 9 605 517 273 500 94 79 532 
594 9 241 297 578 27 424 106 614 528 332 
595 5 236 510 37 352 177 
596 11 228 279 470 157 504 233 574 74 84 4 244 
597 7 635 401 530 412 43 483 511 
598 11 392 40 112 379 492 439 222 253 429 207 264 
599 11 26 88 339 557 357 49 383 543 327 423 138 
600 10 580 582 116 51 454 607 199 465 355 398 
601 10 182 205 384 103 486 534 276 8 204 403 
602 11 467 50 447 505 490 246 293 17 231 238 320 
603 11 144 577 57 202 290 536 55 452 324 97 306 
604 8 343 189 353 468 431 400 500 9 
605 9 273 94 574 593 233 517 551 79 29 
606 11 564 14 72 425 446 168 230 203 368 377 558 
607 11 170 51 355 408 465 444 358 582 600 83 188 
608 6 437 289 181 315 64 592 
609 11 634 89 413 107 362 2 34 65 60 317 239 
610 9 173 499 321 117 395 457 52 137 333 
611 9 258 533 139 130 394 612 18 497 359 
612 11 497 423 533 327 394 611 269 49 220 258 18 
613 6 624 153 122 622 62 559 
614 6 106 136 615 45 594 397 
615 7 136 106 614 361 20 172 397 
616 7 440 479 333 475 321 457 31 
617 11 307 435 340 285 488 93 192 472 19 11 46 
618 8 309 620 176 237 515 46 265 299 
619 9 314 589 335 348 308 17 583 42 305 
620 8 618 237 309 299 176 434 46 265 
621 8 195 44 48 270 418 71 227 636 
622 7 559 548 122 268 34 624 537 
623 11 174 197 210 32 73 267 266 419 231 360 565 
624 10 153 613 122 76 268 62 68 242 282 622 
625 11 487 59 374 528 455 588 578 54 424 23 99 
626 4 409 120 185 80 
627 11 306 341 240 95 55 405 577 191 415 144 603 
628 8 86 463 366 438 469 252 382 451 
629 7 192 186 275 19 454 116 150 
630 11 63 127 129 554 232 386 215 459 573 164 67 
631 10 318 567 539 366 463 86 628 252 469 438 
632 7 161 166 311 191 405 452 55 
633 10 211 573 553 535 630 63 232 386 127 302 
634 11 609 413 89 2 65 362 34 107 239 317 542 
635 7 597 401 530 412 43 119 483 
636 8 262 48 44 494 71 323 621 227 
637 11 337 100 504 183 4 328 233 157 555 29 470 
638 11 441 10 245 361 172 92 20 167 555 74 183 
DEPOT_SECTION
   1
   -1
EOF
