NAME :  X-n837-kX-w167-c11.cctp
COMMENT : 	Adapted by Maziero, Usberti and Cavellucci from the Uchoa, Pecin, Pessoa, Poggi, Subramanian, and Vidal (2013)
TYPE :  CCTP
DIMENSION :    686
EDGE_WEIGHT_TYPE : 	EUC_2D	
CAPACITY : 	44
VERTICES_WITHIN_COVERAGE :  11
VERTICES_WITH_DEMAND : 	167
NODE_COORD_SECTION
1 940 231
2 721 848
3 618 44
4 993 145
5 636 512
6 274 496
7 245 945
8 449 812
9 29 650
10 399 8
11 548 19
12 769 717
13 221 850
14 980 233
15 477 922
16 498 720
17 136 832
18 351 663
19 58 67
20 889 569
21 28 334
22 804 928
23 900 138
24 393 403
25 982 609
26 79 299
27 684 582
28 169 252
29 405 925
30 875 191
31 674 112
32 576 537
33 539 63
34 338 657
35 210 209
36 676 568
37 949 826
38 572 890
39 210 615
40 737 46
41 30 527
42 131 724
43 671 842
44 727 566
45 507 497
46 524 134
47 167 665
48 819 108
49 929 582
50 713 738
51 352 626
52 887 547
53 176 645
54 611 289
55 457 532
56 11 147
57 958 60
58 587 187
59 790 956
60 974 63
61 306 225
62 961 969
63 238 736
64 758 840
65 88 44
66 507 811
67 768 476
68 51 914
69 494 445
70 953 33
71 922 45
72 748 111
73 544 867
74 477 596
75 322 79
76 439 150
77 586 764
78 214 599
79 168 480
80 925 138
81 797 107
82 751 783
83 738 913
84 703 73
85 681 886
86 627 27
87 887 310
88 478 345
89 571 600
90 834 858
91 549 370
92 657 233
93 126 769
94 317 934
95 237 55
96 851 409
97 838 426
98 477 559
99 542 94
100 370 432
101 520 621
102 666 178
103 631 484
104 733 255
105 820 918
106 687 877
107 752 983
108 157 720
109 709 898
110 300 878
111 728 617
112 66 59
113 991 657
114 717 47
115 463 177
116 586 397
117 792 307
118 100 392
119 438 722
120 43 247
121 71 476
122 69 560
123 211 73
124 471 14
125 115 806
126 194 337
127 921 320
128 104 495
129 36 456
130 500 152
131 782 316
132 881 374
133 277 601
134 962 575
135 588 181
136 941 728
137 108 931
138 11 814
139 209 800
140 129 525
141 126 149
142 31 219
143 97 324
144 495 122
145 759 480
146 859 782
147 780 669
148 786 769
149 759 159
150 282 633
151 361 17
152 957 103
153 711 939
154 544 544
155 27 318
156 665 656
157 523 586
158 842 429
159 539 783
160 769 347
161 937 386
162 824 841
163 738 391
164 833 988
165 16 637
166 91 472
167 41 388
168 623 780
169 660 155
170 700 658
171 946 783
172 607 815
173 87 771
174 658 874
175 527 853
176 459 577
177 937 639
178 833 692
179 421 999
180 908 447
181 469 163
182 737 238
183 509 61
184 246 352
185 488 408
186 600 359
187 510 460
188 342 691
189 95 216
190 787 465
191 700 873
192 659 568
193 478 525
194 988 980
195 241 353
196 28 661
197 724 842
198 2 660
199 210 180
200 840 841
201 843 9
202 265 453
203 209 673
204 20 952
205 673 659
206 185 335
207 138 655
208 769 741
209 325 260
210 831 678
211 401 625
212 212 360
213 118 426
214 192 520
215 596 376
216 449 679
217 579 295
218 333 352
219 837 944
220 377 500
221 797 97
222 65 235
223 440 877
224 849 769
225 439 326
226 407 621
227 550 241
228 169 68
229 253 243
230 76 852
231 642 116
232 598 124
233 564 374
234 997 660
235 14 98
236 845 303
237 774 9
238 791 671
239 575 109
240 865 708
241 290 897
242 953 348
243 906 692
244 895 790
245 25 242
246 761 886
247 909 336
248 501 846
249 731 4
250 337 71
251 106 973
252 846 368
253 623 580
254 978 669
255 884 559
256 10 910
257 390 602
258 451 134
259 324 221
260 569 98
261 735 341
262 672 867
263 69 790
264 584 520
265 193 416
266 954 912
267 761 734
268 192 875
269 88 353
270 777 38
271 98 68
272 642 658
273 838 305
274 824 694
275 238 825
276 137 683
277 357 593
278 541 423
279 537 99
280 137 539
281 719 213
282 68 173
283 788 339
284 939 69
285 826 300
286 86 779
287 492 174
288 566 830
289 371 935
290 840 180
291 979 466
292 970 249
293 975 291
294 298 94
295 192 630
296 560 724
297 310 503
298 506 445
299 720 806
300 259 450
301 156 388
302 81 518
303 597 384
304 388 967
305 399 787
306 11 859
307 688 276
308 721 451
309 3 300
310 983 902
311 184 404
312 984 221
313 514 801
314 887 476
315 106 208
316 552 923
317 803 145
318 974 602
319 316 566
320 73 473
321 448 186
322 86 398
323 653 3
324 239 470
325 717 351
326 762 276
327 434 39
328 420 378
329 141 122
330 805 572
331 769 874
332 909 440
333 875 676
334 38 852
335 105 958
336 504 740
337 840 804
338 62 24
339 360 375
340 199 310
341 661 252
342 484 955
343 481 777
344 277 225
345 223 388
346 504 527
347 242 931
348 801 74
349 538 483
350 510 183
351 377 842
352 244 834
353 115 811
354 37 611
355 570 338
356 30 147
357 658 235
358 109 856
359 950 351
360 34 512
361 937 779
362 840 77
363 470 783
364 890 127
365 672 450
366 875 663
367 719 972
368 893 283
369 86 437
370 45 423
371 119 237
372 199 550
373 221 723
374 613 950
375 357 566
376 582 795
377 815 464
378 329 481
379 223 90
380 144 199
381 819 300
382 778 769
383 960 581
384 891 760
385 869 582
386 762 952
387 129 544
388 891 765
389 279 754
390 152 677
391 262 932
392 563 354
393 128 42
394 527 584
395 322 73
396 562 370
397 392 609
398 736 268
399 598 496
400 433 748
401 331 889
402 240 788
403 258 809
404 519 923
405 326 931
406 117 800
407 202 115
408 323 190
409 44 588
410 326 102
411 446 362
412 469 593
413 764 469
414 595 304
415 511 582
416 552 544
417 267 814
418 82 52
419 505 535
420 232 30
421 234 71
422 296 920
423 39 226
424 348 79
425 513 307
426 333 16
427 382 971
428 532 444
429 451 579
430 380 524
431 64 69
432 483 514
433 750 328
434 497 64
435 286 695
436 248 949
437 375 378
438 465 221
439 665 270
440 366 0
441 237 52
442 573 528
443 355 35
444 120 742
445 247 1
446 542 619
447 352 892
448 91 80
449 538 87
450 902 274
451 654 479
452 195 998
453 115 52
454 274 243
455 174 77
456 213 892
457 128 133
458 449 314
459 556 888
460 600 669
461 324 50
462 342 957
463 430 128
464 207 933
465 468 125
466 175 709
467 162 859
468 51 47
469 442 125
470 616 462
471 444 691
472 40 840
473 464 616
474 127 21
475 285 942
476 79 85
477 164 732
478 802 300
479 601 607
480 340 363
481 414 154
482 77 257
483 964 400
484 410 533
485 461 585
486 298 981
487 410 716
488 181 164
489 150 224
490 446 55
491 241 697
492 395 26
493 451 196
494 136 5
495 270 851
496 507 75
497 398 622
498 352 730
499 305 69
500 751 566
501 249 494
502 209 637
503 345 960
504 413 673
505 130 914
506 780 402
507 482 279
508 246 922
509 245 939
510 484 170
511 542 595
512 534 437
513 139 685
514 780 618
515 22 4
516 436 370
517 304 987
518 171 660
519 764 567
520 594 247
521 255 840
522 495 395
523 579 590
524 86 560
525 378 926
526 540 352
527 249 45
528 601 470
529 723 669
530 457 108
531 289 292
532 136 898
533 213 165
534 455 745
535 642 706
536 608 601
537 556 353
538 515 475
539 263 868
540 186 643
541 443 30
542 246 21
543 634 512
544 144 764
545 460 151
546 555 359
547 327 83
548 345 249
549 530 192
550 213 657
551 597 751
552 518 599
553 324 43
554 102 914
555 603 302
556 480 125
557 189 49
558 561 541
559 424 174
560 542 198
561 276 191
562 263 655
563 468 282
564 199 7
565 336 851
566 59 564
567 521 545
568 516 627
569 554 621
570 300 98
571 242 77
572 201 388
573 503 99
574 512 898
575 375 11
576 318 181
577 482 548
578 137 621
579 67 799
580 620 405
581 155 793
582 249 50
583 205 733
584 554 130
585 599 693
586 365 919
587 473 164
588 34 929
589 150 787
590 543 575
591 178 253
592 690 409
593 55 99
594 242 68
595 230 108
596 112 800
597 195 119
598 519 123
599 346 372
600 55 79
601 470 430
602 109 474
603 121 716
604 46 87
605 388 31
606 627 292
607 105 831
608 196 879
609 70 101
610 182 429
611 461 727
612 611 551
613 250 928
614 605 605
615 116 708
616 257 883
617 593 306
618 335 249
619 113 146
620 631 430
621 251 203
622 349 223
623 549 148
624 99 354
625 65 569
626 174 66
627 599 697
628 546 563
629 294 994
630 197 184
631 316 899
632 603 611
633 792 373
634 240 583
635 142 783
636 684 693
637 269 748
638 646 519
639 268 693
640 213 33
641 111 771
642 61 608
643 658 591
644 312 448
645 210 48
646 180 107
647 539 169
648 18 18
649 248 946
650 565 83
651 198 787
652 518 10
653 554 356
654 64 665
655 301 987
656 219 644
657 637 463
658 415 133
659 190 59
660 301 863
661 747 120
662 469 369
663 591 776
664 657 311
665 375 17
666 496 587
667 332 242
668 571 590
669 236 921
670 439 545
671 114 190
672 324 21
673 656 228
674 526 747
675 202 580
676 238 966
677 513 551
678 163 299
679 141 898
680 264 956
681 95 725
682 60 249
683 667 557
684 266 960
685 567 423
686 348 955
DEMAND_SECTION
2 7
3 9
4 6
5 7
6 6
7 8
8 9
9 5
10 8
11 10
12 7
13 5
14 7
15 10
16 6
17 5
18 5
19 7
20 6
21 10
22 8
23 10
24 9
25 6
26 10
27 10
28 10
29 10
30 5
31 7
32 8
33 9
34 5
35 7
36 10
37 9
38 6
39 7
40 6
41 7
42 7
43 9
44 6
45 8
46 6
47 5
48 7
49 6
50 7
51 6
52 10
53 6
54 7
55 6
56 7
57 5
58 6
59 9
60 7
61 7
62 8
63 9
64 10
65 10
66 8
67 8
68 5
69 9
70 9
71 10
72 9
73 7
74 10
75 5
76 5
77 10
78 8
79 8
80 10
81 6
82 6
83 8
84 8
85 5
86 9
87 7
88 8
89 6
90 6
91 6
92 9
93 7
94 10
95 10
96 10
97 10
98 7
99 6
100 8
101 6
102 8
103 8
104 10
105 10
106 7
107 7
108 9
109 7
110 10
111 7
112 5
113 9
114 5
115 5
116 9
117 8
118 7
119 9
120 5
121 5
122 8
123 7
124 9
125 10
126 10
127 6
128 8
129 5
130 10
131 10
132 10
133 7
134 9
135 8
136 7
137 6
138 7
139 9
140 9
141 10
142 8
143 6
144 10
145 6
146 7
147 8
148 5
149 9
150 6
151 9
152 7
153 10
154 8
155 10
156 5
157 10
158 8
159 5
160 10
161 10
162 8
163 7
164 8
165 7
166 5
167 6
168 10
COVERAGE_SECTION
2 11 197 191 64 299 106 43 109 262 85 246 331 
3 11 86 323 650 260 11 231 239 33 232 31 84 
4 11 152 80 312 60 14 57 23 284 364 292 70 
5 11 543 638 103 451 399 612 657 264 470 528 683 
6 11 501 297 202 324 300 378 644 319 214 372 634 
7 11 649 436 509 347 613 391 676 680 508 669 684 
8 11 363 343 305 66 248 223 313 400 534 351 611 
9 7 196 165 198 654 354 642 409 
10 9 492 575 605 665 440 151 327 541 443 
11 11 652 33 183 650 434 449 496 3 99 124 86 
12 11 267 208 147 238 382 148 50 274 529 82 178 
13 9 352 275 521 268 608 456 539 495 616 
14 11 312 292 293 450 4 368 127 80 30 242 87 
15 11 342 404 574 223 29 316 248 175 459 73 179 
16 11 336 611 674 534 343 119 471 296 216 363 400 
17 11 353 607 125 358 406 467 596 581 589 635 230 
18 11 34 188 51 497 211 504 498 397 226 277 257 
19 11 431 112 600 468 604 418 476 593 448 609 65 
20 11 255 52 385 49 383 134 330 177 318 314 366 
21 11 155 309 167 26 269 143 624 322 120 370 482 
22 11 105 59 219 386 246 331 164 83 90 107 162 
23 11 364 80 30 152 290 284 48 362 4 71 57 
24 10 437 100 328 339 516 599 480 411 218 601 
25 11 318 383 134 113 234 177 49 254 20 255 52 
26 11 143 482 682 155 269 624 21 120 222 371 309 
27 11 36 643 192 683 44 111 253 500 638 156 170 
28 11 591 489 678 371 35 380 340 630 315 189 199 
29 11 525 289 586 304 427 223 447 686 503 462 15 
30 11 290 23 364 80 317 450 368 48 292 14 312 
31 11 231 169 84 102 661 72 232 114 3 40 86 
32 11 442 558 264 416 154 612 628 399 590 523 668 
33 11 449 183 99 650 496 279 434 11 260 573 652 
34 11 18 51 188 150 435 277 497 211 397 498 562 
35 10 630 199 621 533 488 591 229 28 489 380 
36 11 683 27 192 643 44 253 638 612 5 543 111 
37 11 171 361 244 310 388 266 384 136 146 200 337 
38 11 459 73 316 175 288 574 404 374 172 248 174 
39 11 78 502 295 656 675 540 550 634 53 203 518 
40 11 114 270 249 84 237 72 348 661 221 81 31 
41 11 360 566 122 302 625 409 121 524 320 129 128 
42 8 603 444 615 108 477 681 513 276 
43 11 262 174 106 191 85 2 197 299 109 172 168 
44 11 500 519 27 36 111 683 192 643 514 330 145 
45 9 538 432 346 349 187 419 193 567 298 
46 11 598 623 130 584 144 279 647 573 99 556 449 
47 9 518 390 53 540 207 513 276 203 295 
48 11 81 221 362 348 317 72 364 661 290 149 270 
49 11 383 134 20 318 255 52 177 25 385 113 366 
50 11 267 636 208 82 12 299 529 382 535 148 170 
51 11 277 34 18 397 257 497 211 226 375 188 150 
52 11 255 20 385 49 314 134 383 330 180 318 177 
53 11 540 518 47 295 502 207 550 390 203 656 39 
54 10 555 606 414 617 217 520 664 439 341 355 
55 11 193 670 577 432 98 176 346 429 484 419 485 
56 11 356 235 282 593 604 142 609 600 423 476 19 
57 11 60 284 70 71 152 80 4 364 23 362 201 
58 11 135 560 647 623 549 520 232 227 584 350 239 
59 11 386 22 107 105 219 164 83 367 246 153 331 
60 11 57 284 70 152 71 4 80 23 364 362 201 
61 10 259 344 667 454 618 408 209 622 561 548 
62 11 194 266 310 219 164 37 105 22 90 59 200 
63 11 373 583 637 491 389 402 639 435 651 203 466 
64 11 197 331 2 246 299 82 162 191 382 83 109 
65 11 418 271 112 453 338 431 448 468 19 393 476 
66 11 313 248 159 343 363 175 8 288 73 674 336 
67 11 413 145 190 377 308 506 97 158 163 519 500 
68 11 588 256 204 554 137 334 230 306 335 472 505 
69 10 298 187 601 185 538 428 512 522 278 45 
70 11 57 71 60 284 152 80 201 364 23 4 362 
71 11 284 70 57 60 152 201 362 364 80 23 48 
72 11 661 81 149 221 84 317 348 40 48 114 31 
73 11 175 459 38 288 574 248 316 404 66 313 376 
74 11 412 485 666 473 176 429 98 415 552 157 577 
75 9 395 547 250 499 410 424 294 461 570 
76 10 258 545 463 469 481 559 658 181 115 321 
77 11 663 551 376 168 296 159 172 674 627 288 585 
78 11 39 675 634 295 502 656 372 540 550 53 133 
79 11 214 610 602 140 128 280 265 324 213 387 166 
80 11 23 364 152 4 284 30 57 60 71 290 312 
81 11 221 48 348 317 72 362 661 149 270 290 40 
82 11 382 148 299 208 267 64 50 197 12 2 337 
83 11 109 246 153 386 331 191 106 367 85 2 59 
84 11 114 40 31 72 661 249 231 270 323 86 3 
85 11 106 262 191 174 109 43 2 153 197 83 246 
86 11 3 323 11 650 84 231 114 260 33 31 239 
87 11 368 247 127 450 236 273 285 132 381 252 359 
88 10 662 411 458 225 516 425 522 526 185 563 
89 11 668 523 569 511 479 614 632 446 536 590 628 
90 11 200 162 337 105 331 22 64 246 146 219 224 
91 10 396 546 653 233 537 526 392 355 116 215 
92 11 357 673 341 439 307 102 281 520 606 54 169 
93 11 641 544 635 444 589 406 596 581 125 173 286 
94 10 405 422 475 462 631 686 503 241 401 586 
95 11 441 582 594 421 527 571 420 645 123 640 542 
96 11 97 158 252 132 332 377 180 633 506 314 190 
97 11 158 96 377 252 506 190 132 314 633 332 180 
98 11 577 176 485 429 55 193 666 412 74 419 677 
99 11 279 449 650 260 33 239 598 584 573 496 46 
100 11 24 437 339 644 378 599 220 328 480 218 516 
101 11 568 446 552 511 569 157 394 415 666 74 590 
102 11 169 673 92 357 281 31 231 341 135 58 232 
103 11 657 451 470 5 543 528 399 638 365 620 264 
104 9 398 182 326 281 307 439 341 433 131 
105 11 22 219 59 90 246 331 386 164 162 200 83 
106 11 85 191 262 174 109 43 2 197 83 153 246 
107 11 386 367 59 153 83 22 164 105 219 109 246 
108 9 477 466 42 603 513 276 390 444 615 
109 11 191 85 106 83 153 262 2 246 174 197 331 
110 9 660 241 631 401 539 495 422 616 565 
111 11 170 44 514 529 27 500 519 205 36 147 156 
112 11 431 19 418 468 600 65 476 271 448 604 338 
113 11 234 254 25 177 318 383 134 136 243 49 366 
114 11 40 84 249 270 237 72 31 323 661 348 86 
115 11 181 587 321 493 510 545 287 76 559 438 130 
116 10 303 215 233 685 580 396 186 91 392 546 
117 11 478 131 381 283 285 326 160 273 433 236 261 
118 11 322 213 624 269 369 301 167 370 143 166 602 
119 11 611 400 487 534 471 216 504 16 336 363 343 
120 11 682 245 423 222 142 482 189 26 309 155 315 
121 11 320 166 128 602 129 369 302 360 370 41 213 
122 10 625 566 524 409 302 642 41 360 354 387 
123 11 379 421 645 659 571 594 95 441 557 455 626 
124 9 541 327 652 490 434 183 496 10 11 
125 11 353 406 596 607 17 635 641 93 286 589 581 
126 11 206 340 212 678 195 572 184 345 301 311 265 
127 11 247 87 359 242 368 450 293 132 161 236 273 
128 11 602 166 302 121 320 140 280 387 369 79 524 
129 11 370 121 320 369 360 166 167 41 602 302 322 
130 11 287 510 46 144 587 181 350 556 598 545 465 
131 11 117 283 478 160 433 381 326 285 261 273 633 
132 11 252 96 247 161 87 97 127 158 332 359 242 
133 11 150 634 319 562 78 39 656 502 675 51 277 
134 11 383 318 49 25 177 20 52 255 113 234 385 
135 11 58 560 647 623 232 549 584 520 227 239 169 
136 11 243 361 171 384 388 254 244 240 333 113 234 
137 10 554 335 505 251 532 679 68 588 358 230 
138 7 472 306 334 579 263 230 286 
139 10 651 402 275 352 403 13 581 417 589 521 
140 11 280 387 128 302 524 602 79 214 166 122 372 
141 8 619 457 329 671 380 488 315 282 
142 11 423 245 120 222 682 282 482 189 356 56 315 
143 11 269 624 26 118 21 155 482 678 322 682 167 
144 11 556 573 598 465 130 46 530 545 258 587 279 
145 11 67 413 190 308 377 506 500 519 163 44 365 
146 11 224 337 388 244 384 200 162 148 240 361 90 
147 11 238 12 274 514 210 529 178 267 208 111 170 
148 11 382 208 82 267 12 224 337 146 64 299 50 
149 11 661 317 72 81 281 221 48 182 290 102 348 
150 11 562 133 34 435 639 656 634 51 502 550 39 
151 10 665 575 440 443 426 605 492 672 10 553 
152 11 284 57 60 80 4 23 71 70 364 30 362 
153 11 367 83 109 386 107 85 106 191 246 59 262 
154 11 416 558 628 567 590 677 32 442 419 346 394 
155 11 21 309 26 143 269 167 120 245 682 482 624 
156 11 205 272 170 636 535 529 643 460 111 27 585 
157 11 394 415 552 511 590 666 628 101 677 446 567 
158 11 97 96 377 252 314 190 132 180 332 506 633 
159 11 313 674 66 376 77 663 288 336 343 296 551 
160 11 283 433 131 261 633 117 325 163 506 478 381 
161 11 483 359 242 132 247 332 127 180 96 291 87 
162 11 200 90 337 331 64 146 224 105 246 148 382 
163 9 506 325 261 592 160 633 308 433 283 
164 11 219 59 22 105 386 107 367 83 246 62 90 
165 8 9 196 198 354 642 409 654 625 
166 11 320 602 121 128 369 302 213 129 140 370 360 
167 11 370 322 21 118 269 369 624 129 155 143 213 
168 11 663 172 551 77 376 288 535 43 159 296 627 
169 11 102 231 31 232 673 135 92 58 357 281 84 
170 11 529 205 156 636 111 272 535 27 643 50 147 
171 11 361 37 244 136 388 384 146 224 243 337 240 
172 11 376 168 663 288 77 551 43 159 174 73 38 
173 6 286 641 263 579 596 93 
174 11 262 85 106 43 191 109 2 197 172 153 38 
175 11 73 248 288 459 66 574 313 38 404 159 316 
176 11 429 485 412 98 74 577 666 670 473 55 415 
177 11 254 318 25 113 49 243 383 234 366 134 333 
178 11 274 210 240 333 238 366 147 12 243 224 208 
179 11 304 427 29 342 289 503 525 686 462 15 586 
180 11 332 314 158 161 96 97 291 483 132 377 252 
181 11 587 115 545 510 287 321 76 130 258 465 493 
182 11 104 398 281 326 307 341 357 439 92 149 673 
183 10 434 496 33 573 449 99 279 652 11 124 
184 11 195 212 345 126 572 206 340 531 311 265 218 
185 11 522 601 69 298 662 512 278 187 428 411 88 
186 10 215 303 355 392 233 116 396 537 546 653 
187 9 298 538 69 428 512 349 45 278 601 
188 8 18 34 498 435 51 487 504 639 
189 11 315 371 671 222 482 682 282 380 489 423 120 
190 11 67 413 377 145 506 97 158 308 96 163 633 
191 11 106 85 109 262 2 197 43 174 83 246 64 
192 11 683 36 643 27 253 612 638 5 536 543 614 
193 11 432 55 577 346 419 98 45 670 677 567 176 
194 11 62 266 310 164 219 37 105 22 90 59 171 
195 11 184 212 345 126 572 206 340 311 531 265 218 
196 6 9 198 165 654 354 642 
197 11 2 64 299 191 106 43 331 246 109 262 85 
198 7 196 165 9 354 654 642 409 
199 8 630 533 35 488 621 597 407 561 
200 11 162 90 337 146 224 244 331 105 64 148 246 
201 11 362 237 270 348 71 221 48 81 40 249 70 
202 11 300 324 6 501 644 297 378 345 265 610 572 
203 11 550 656 502 540 491 518 47 53 295 466 373 
204 11 588 256 68 335 251 137 554 306 334 472 230 
205 11 156 170 272 636 529 535 111 643 460 27 585 
206 11 126 340 212 678 572 195 301 184 345 311 265 
207 5 390 276 513 47 518 
208 11 267 12 382 148 82 50 274 147 238 178 299 
209 7 618 667 548 259 61 622 531 
210 11 178 274 238 333 240 366 147 12 243 514 208 
211 10 497 226 397 257 51 504 277 18 473 429 
212 11 126 195 345 572 184 206 311 340 265 301 610 
213 11 369 118 322 602 166 301 610 320 121 128 311 
214 11 372 79 280 675 140 501 387 324 634 78 6 
215 11 303 186 116 233 396 580 392 546 355 537 91 
216 11 471 504 119 611 487 16 473 534 400 211 226 
217 6 414 617 555 54 355 606 
218 7 480 599 339 437 531 24 184 
219 11 105 22 164 59 386 90 107 246 331 200 83 
220 10 430 484 378 297 100 375 670 644 55 319 
221 11 81 348 48 362 317 72 661 270 149 40 237 
222 11 682 120 482 423 189 142 245 315 371 282 26 
223 11 15 29 8 248 351 574 525 586 447 175 289 
224 11 146 337 388 384 244 148 240 382 200 162 178 
225 8 458 411 88 516 662 563 328 507 
226 10 211 497 397 257 504 51 277 473 429 485 
227 8 520 560 549 217 58 350 135 647 
228 6 626 455 659 557 646 123 
229 11 454 344 621 35 61 561 531 209 259 199 591 
230 11 358 607 334 472 579 353 125 263 17 596 306 
231 11 31 169 232 102 239 84 260 3 650 135 584 
232 11 239 260 584 231 650 623 135 58 99 279 169 
233 11 396 91 546 392 653 537 116 215 526 303 355 
234 11 113 254 25 318 177 383 136 134 243 49 366 
235 11 604 593 600 56 356 19 609 431 468 112 476 
236 11 273 285 381 87 478 368 117 131 450 252 283 
237 11 270 249 40 114 201 348 221 362 84 81 72 
238 11 147 274 210 178 12 514 529 267 208 111 240 
239 11 260 232 650 584 99 279 449 623 46 33 598 
240 11 333 178 274 243 210 366 384 224 388 146 136 
241 8 110 422 631 616 660 539 401 391 
242 11 359 161 127 247 483 293 87 132 368 450 292 
243 11 333 366 240 136 177 384 178 388 210 254 274 
244 11 388 384 146 361 171 224 337 37 200 136 162 
245 11 120 423 142 682 222 482 309 189 155 26 282 
246 11 331 83 64 109 2 197 22 191 386 105 153 
247 11 127 87 359 242 132 368 161 450 252 236 273 
248 11 175 66 313 73 574 8 288 223 459 363 343 
249 11 40 237 114 270 84 323 348 86 72 201 221 
250 6 424 395 547 75 461 553 
251 10 335 137 554 505 68 532 679 588 204 452 
252 11 132 96 633 97 158 273 236 283 87 247 285 
253 11 536 612 614 479 632 643 192 523 683 668 36 
254 11 113 234 177 25 318 136 243 383 134 49 333 
255 11 20 52 385 49 383 134 330 314 177 318 366 
256 11 588 68 204 306 334 472 230 554 138 137 335 
257 10 397 497 211 226 277 51 375 429 18 484 
258 10 469 465 545 76 463 530 556 181 658 587 
259 8 61 667 622 618 408 548 209 576 
260 11 239 650 99 279 449 584 232 33 623 598 46 
261 6 433 325 160 163 131 283 
262 11 174 106 85 43 191 109 2 197 299 83 153 
263 6 579 286 173 596 641 125 
264 8 442 32 399 558 416 612 154 543 
265 11 311 610 572 345 301 212 79 324 300 213 126 
266 11 310 62 194 37 219 171 90 105 200 361 244 
267 11 208 12 382 148 50 82 147 238 274 529 178 
268 7 608 456 467 13 679 464 532 
269 11 624 143 118 322 26 167 21 155 301 213 370 
270 11 237 40 348 249 114 221 81 201 362 72 48 
271 7 448 418 453 476 65 112 431 
272 11 156 205 460 535 585 636 170 627 632 479 614 
273 11 236 285 381 478 117 87 131 368 283 252 450 
274 11 178 210 238 240 147 333 12 366 208 267 224 
275 10 352 521 403 13 417 402 139 495 539 651 
276 5 513 390 207 615 47 
277 10 375 51 257 397 319 497 211 226 34 18 
278 8 512 428 685 298 187 69 116 91 
279 11 99 449 598 260 650 573 584 33 46 496 239 
280 11 387 140 128 524 214 302 372 79 122 602 675 
281 11 182 104 398 102 92 357 673 149 307 341 326 
282 10 356 671 189 315 619 142 423 222 56 141 
283 11 160 131 117 633 433 478 381 261 285 273 506 
284 11 57 71 60 152 70 80 364 23 4 362 201 
285 11 381 273 236 478 117 131 283 87 326 368 252 
286 7 173 263 641 579 596 406 125 
287 11 510 350 587 130 181 115 545 549 321 493 647 
288 11 376 73 172 175 159 459 38 313 663 66 248 
289 11 525 586 686 29 304 462 503 427 405 447 94 
290 11 30 317 23 364 48 149 81 221 80 362 661 
291 11 483 180 332 161 314 134 383 359 242 52 49 
292 11 14 312 293 450 368 127 242 87 359 247 4 
293 11 292 14 127 242 359 312 450 247 368 87 161 
294 3 570 499 75 
295 11 540 502 53 39 656 550 518 78 47 203 675 
296 11 674 551 627 77 585 336 663 16 159 460 376 
297 11 378 6 644 501 319 202 220 430 300 324 375 
298 9 69 187 428 512 538 601 185 278 349 
299 11 197 82 2 64 43 50 382 191 148 106 262 
300 11 202 324 501 6 644 345 265 297 378 610 572 
301 11 311 572 265 610 213 118 206 212 126 624 345 
302 11 128 524 121 122 320 166 360 140 566 41 602 
303 11 215 116 186 580 233 396 392 546 685 91 537 
304 11 427 289 525 686 503 29 179 462 586 405 94 
305 8 400 8 351 534 363 487 498 119 
306 11 334 472 138 256 230 68 588 579 263 204 358 
307 9 439 341 664 398 104 357 92 673 182 
308 11 413 145 365 592 67 163 190 451 506 657 620 
309 11 155 21 245 120 26 682 423 142 482 222 167 
310 11 266 62 194 37 171 361 244 219 90 200 105 
311 11 265 572 610 301 345 212 126 206 213 195 79 
312 11 14 292 293 4 450 80 368 30 127 23 152 
313 11 66 159 343 248 363 175 674 288 336 8 376 
314 11 180 332 158 97 52 377 96 255 20 291 190 
315 11 189 671 371 380 489 222 282 482 141 619 682 
316 11 404 459 38 574 73 374 175 15 342 248 288 
317 11 81 48 149 221 290 661 72 348 362 30 364 
318 11 25 383 134 49 177 113 234 254 20 255 52 
319 10 375 277 133 297 51 150 430 634 6 257 
320 11 121 166 602 128 369 129 302 360 370 213 41 
321 9 493 115 559 181 587 76 545 438 510 
322 11 118 369 213 269 167 624 370 301 166 143 320 
323 11 86 3 114 249 84 40 11 31 231 650 237 
324 11 501 300 202 6 214 610 265 79 644 297 345 
325 5 261 433 163 160 592 
326 11 398 104 117 131 182 478 433 381 283 285 261 
327 6 541 490 492 124 10 605 
328 10 516 411 24 437 662 225 339 88 458 601 
329 4 457 141 619 646 
330 11 519 514 500 385 44 255 20 52 111 147 238 
331 11 246 64 83 2 197 22 162 109 90 105 191 
332 11 180 314 161 96 158 483 97 132 291 252 377 
333 11 366 240 243 210 178 274 177 136 238 384 388 
334 11 472 306 230 138 579 68 256 263 607 358 588 
335 10 251 137 554 505 532 68 679 588 204 452 
336 11 16 674 343 611 534 159 363 296 313 119 66 
337 11 146 224 200 162 90 244 148 388 384 382 64 
338 11 468 65 418 112 19 648 431 515 600 271 453 
339 10 599 437 480 218 24 100 328 516 411 644 
340 11 126 206 678 212 195 591 184 28 572 345 229 
341 9 357 439 92 673 307 606 664 54 520 
342 11 15 404 574 316 179 29 223 304 459 427 73 
343 11 363 313 534 66 336 8 611 674 400 159 16 
344 10 454 61 229 561 621 259 408 667 209 576 
345 11 572 212 195 265 311 184 610 126 206 301 300 
346 11 419 432 567 193 677 45 577 98 154 55 416 
347 10 509 613 508 669 7 649 436 391 680 464 
348 11 221 81 48 362 270 72 40 237 317 661 201 
349 5 538 45 187 428 512 
350 11 287 549 510 647 130 560 587 181 115 46 623 
351 7 565 447 305 401 223 8 586 
352 10 275 521 13 403 417 495 539 402 139 616 
353 11 125 406 596 607 17 635 641 589 93 286 581 
354 10 409 642 165 9 625 196 566 122 198 654 
355 9 392 537 653 546 396 526 233 186 91 
356 10 56 282 235 593 609 604 142 600 476 423 
357 11 92 673 341 439 307 102 281 520 606 54 664 
358 11 607 230 17 353 125 532 467 679 596 406 554 
359 11 242 161 127 247 483 293 132 87 368 450 332 
360 11 41 302 121 320 129 566 122 625 166 524 128 
361 11 171 244 388 37 384 136 146 224 243 337 240 
362 11 48 348 221 81 201 364 270 317 23 71 237 
363 11 343 8 534 66 313 400 336 611 674 16 119 
364 11 23 80 30 152 362 48 290 284 71 317 57 
365 10 451 657 592 620 308 103 470 580 5 543 
366 11 333 243 210 240 178 274 177 385 238 136 20 
367 11 153 107 386 83 59 109 85 22 246 106 191 
368 11 450 87 127 236 247 273 285 381 293 292 242 
369 11 213 166 320 322 121 370 602 118 129 128 167 
370 11 129 167 369 322 320 121 118 166 213 269 602 
371 11 189 315 489 380 482 671 28 222 682 591 26 
372 11 675 214 78 634 280 39 387 140 501 79 295 
373 11 583 63 491 466 203 637 639 477 108 389 550 
374 11 316 38 459 174 85 404 153 262 106 73 367 
375 10 277 319 430 257 397 51 484 220 497 211 
376 11 663 77 172 288 168 159 551 313 296 674 66 
377 11 190 97 158 67 413 145 96 506 314 633 180 
378 11 297 644 220 6 100 430 202 300 501 319 375 
379 8 595 123 421 571 594 407 95 441 
380 11 489 671 315 371 488 189 141 630 28 619 591 
381 11 285 478 273 236 117 131 283 326 87 160 252 
382 11 148 208 82 267 12 299 224 337 50 64 146 
383 11 134 318 49 25 177 20 255 52 113 234 254 
384 11 388 244 146 224 361 240 136 171 337 243 333 
385 11 20 255 52 49 330 366 177 383 134 333 514 
386 11 59 107 83 367 22 153 246 105 219 109 331 
387 11 280 140 524 128 302 122 214 625 372 566 602 
388 11 384 244 146 224 361 171 136 240 337 243 37 
389 4 637 63 402 403 
390 7 513 276 47 518 207 466 53 
391 10 613 509 508 347 649 7 436 680 475 669 
392 10 537 546 653 396 355 233 91 526 186 215 
393 5 453 474 494 65 271 
394 11 157 415 552 590 511 628 666 677 101 446 567 
395 10 75 547 250 499 461 424 410 553 294 570 
396 10 233 91 546 392 653 537 526 355 215 116 
397 10 257 497 211 226 277 51 375 429 504 18 
398 9 104 326 182 307 281 433 131 117 439 
399 7 528 264 103 470 543 5 442 
400 11 534 119 611 487 363 305 343 471 8 16 216 
401 11 631 447 110 565 660 241 405 586 94 422 525 
402 10 403 139 275 417 651 352 637 63 389 521 
403 8 417 275 402 352 521 495 139 13 
404 11 574 316 15 342 459 73 38 175 248 223 374 
405 11 94 462 422 686 631 503 586 401 475 289 447 
406 11 596 125 353 635 641 93 607 589 17 286 581 
407 9 597 646 595 379 123 455 533 488 421 
408 4 576 259 61 622 
409 10 354 642 566 625 122 524 165 41 9 196 
410 5 547 75 570 294 395 
411 10 516 662 328 88 225 458 522 185 24 601 
412 11 74 485 176 429 473 666 98 415 577 552 157 
413 11 67 145 190 308 377 506 163 97 158 365 592 
414 8 617 555 217 54 606 355 186 520 
415 11 157 394 666 552 677 590 511 74 567 101 628 
416 11 154 558 628 32 442 567 590 264 677 394 419 
417 8 403 521 352 275 402 495 539 13 
418 11 65 112 271 431 19 448 468 453 476 338 600 
419 11 346 677 567 577 193 432 98 45 154 415 55 
420 11 542 640 441 527 95 582 645 445 594 564 421 
421 10 594 571 95 441 379 123 582 527 645 595 
422 10 241 94 475 631 405 391 110 401 613 680 
423 11 142 120 245 222 682 482 189 282 315 356 371 
424 4 250 547 75 395 
425 5 507 563 88 526 537 
426 8 672 151 553 443 461 440 575 665 
427 11 304 289 686 503 462 525 179 29 586 405 94 
428 8 512 278 298 187 538 69 349 685 
429 11 176 485 412 74 98 670 473 577 666 55 193 
430 10 220 484 375 670 378 277 297 55 319 257 
431 11 19 112 600 476 418 604 468 448 593 609 271 
432 11 193 346 45 419 55 577 98 677 567 538 670 
433 10 261 160 131 283 325 117 326 478 398 633 
434 10 183 496 573 33 449 490 279 99 124 144 
435 8 639 491 562 188 637 389 150 63 
436 11 649 7 509 680 347 676 613 684 391 508 669 
437 10 339 599 24 480 328 218 100 516 411 225 
438 7 493 321 115 287 510 181 587 
439 9 341 307 357 92 664 673 606 54 104 
440 10 575 151 665 10 426 443 605 492 672 553 
441 11 95 582 527 594 421 420 571 645 640 542 123 
442 8 32 264 558 416 154 399 612 628 
443 10 151 665 426 575 553 605 461 672 440 250 
444 9 42 603 93 641 681 544 615 108 173 
445 8 542 420 527 640 564 582 441 95 
446 11 569 101 511 568 552 89 157 394 668 590 523 
447 11 401 586 631 525 565 289 405 110 94 351 660 
448 8 476 271 418 431 609 112 19 65 
449 11 99 279 33 650 260 496 573 183 598 239 584 
450 11 368 87 127 247 236 273 292 293 285 30 381 
451 11 657 103 365 5 543 638 470 528 620 399 308 
452 10 676 464 436 7 649 509 680 684 347 669 
453 6 393 271 65 418 474 448 
454 10 344 229 61 621 531 561 209 259 667 618 
455 6 228 626 659 646 557 123 
456 7 608 268 669 464 13 508 616 
457 5 141 329 619 646 671 
458 9 225 563 88 411 507 516 662 425 328 
459 11 38 73 316 175 574 404 288 248 374 15 172 
460 11 585 627 272 535 632 479 614 156 569 296 536 
461 8 553 395 250 499 75 672 547 443 
462 11 503 686 405 94 289 427 586 304 517 525 486 
463 8 469 658 258 76 481 530 465 545 
464 9 669 347 509 7 456 508 613 649 436 
465 11 556 258 530 469 144 545 76 181 463 587 130 
466 10 108 477 583 390 513 47 42 276 373 518 
467 11 268 17 608 679 532 358 13 456 505 607 581 
468 11 112 19 338 431 418 600 65 604 648 476 271 
469 8 463 258 530 76 465 658 545 556 
470 9 528 657 103 620 399 451 543 5 365 
471 11 216 119 504 611 487 534 400 16 336 473 211 
472 11 334 306 230 138 579 263 607 358 68 256 286 
473 11 74 412 485 176 429 666 568 101 226 552 98 
474 6 494 393 453 65 271 418 
475 10 391 422 680 684 94 649 436 613 7 509 
476 10 448 609 431 271 600 19 593 112 418 604 
477 10 108 466 42 544 583 444 603 93 513 615 
478 11 117 381 285 131 273 283 236 326 160 433 398 
479 11 614 632 536 523 89 668 253 569 612 643 446 
480 8 599 218 339 437 24 100 328 531 
481 5 658 559 76 463 469 
482 11 682 222 120 26 189 371 423 245 315 142 143 
483 11 161 359 242 291 332 180 247 132 127 314 293 
484 10 430 670 55 220 375 429 176 193 98 257 
485 11 176 412 429 74 98 473 666 577 670 415 55 
486 11 655 517 629 684 475 680 462 94 503 686 405 
487 11 119 400 471 504 611 216 534 498 188 305 18 
488 10 630 533 199 597 380 407 35 141 646 329 
489 11 380 28 371 591 315 671 189 35 630 488 199 
490 4 327 541 124 434 
491 11 639 373 63 203 435 562 550 583 656 637 466 
492 9 605 10 665 575 151 440 327 443 541 
493 8 321 115 438 559 181 587 510 545 
494 8 474 393 453 65 564 557 228 418 
495 9 539 521 352 660 616 417 110 275 403 
496 10 183 434 573 449 33 279 99 144 598 556 
497 10 211 226 397 257 51 277 504 18 473 429 
498 5 188 487 18 34 305 
499 6 395 75 294 547 461 570 
500 11 519 44 330 111 514 27 36 683 145 67 192 
501 11 6 324 202 300 297 214 372 644 378 79 634 
502 11 656 295 550 39 540 53 203 78 518 47 562 
503 11 462 686 405 289 94 427 304 586 525 517 486 
504 11 216 471 487 211 226 497 119 18 397 611 188 
505 10 532 679 137 554 335 358 251 467 268 608 
506 11 633 163 160 97 190 283 158 413 96 377 252 
507 6 563 425 458 438 225 88 
508 8 613 347 669 509 391 7 649 436 
509 11 7 649 347 436 613 508 391 669 680 676 684 
510 11 287 587 181 115 130 350 545 321 493 556 465 
511 11 394 590 157 446 552 89 569 668 628 101 415 
512 8 428 278 298 187 685 69 538 349 
513 5 276 390 207 615 47 
514 11 147 111 330 519 238 500 44 529 210 274 170 
515 11 648 338 468 112 19 65 418 431 600 604 235 
516 10 411 328 662 225 88 24 458 437 185 522 
517 11 655 486 629 684 462 475 503 680 686 94 405 
518 10 47 53 540 390 207 295 203 276 513 550 
519 11 500 44 330 514 111 27 145 36 67 413 683 
520 11 227 54 217 555 606 414 617 58 92 357 673 
521 8 352 495 275 417 539 403 13 616 
522 11 185 662 601 69 298 88 278 512 411 91 428 
523 11 668 89 479 614 536 632 511 590 569 628 253 
524 10 122 625 566 302 387 409 642 140 280 41 
525 11 289 586 29 304 686 447 427 503 462 405 401 
526 8 653 537 546 91 392 396 233 355 
527 8 582 441 95 420 542 594 421 571 
528 7 470 399 103 657 620 264 543 
529 11 170 636 205 111 147 156 12 238 50 267 514 
530 7 465 469 258 556 463 144 545 
531 9 209 454 229 618 667 344 61 548 184 
532 10 679 505 554 137 467 358 268 608 17 335 
533 8 199 630 488 35 597 407 621 595 
534 11 611 400 119 343 363 336 16 487 471 216 8 
535 11 627 636 585 272 156 205 460 551 170 168 50 
536 11 614 479 632 253 523 89 668 612 643 569 192 
537 8 653 546 392 526 91 396 355 233 
538 8 187 45 349 298 428 69 512 432 
539 7 616 495 521 110 660 352 241 
540 11 53 295 518 502 47 550 656 39 203 390 207 
541 6 327 490 124 492 10 605 
542 8 420 445 527 582 441 95 640 645 
543 11 5 638 103 399 451 612 657 264 470 528 683 
544 11 93 635 589 581 444 641 477 42 406 108 596 
545 11 181 587 258 76 115 465 510 469 556 321 463 
546 9 653 537 392 91 396 233 526 355 215 
547 8 75 395 250 410 424 499 294 570 
548 6 618 667 209 622 259 61 
549 11 560 350 647 287 623 130 510 227 58 46 135 
550 11 656 203 502 540 295 53 39 518 47 491 562 
551 11 77 663 168 296 376 627 585 535 172 159 674 
552 11 157 394 415 101 511 666 568 446 590 74 569 
553 8 461 672 426 395 250 443 499 75 
554 11 137 505 532 679 335 68 358 251 230 588 467 
555 9 414 617 54 217 606 355 664 520 186 
556 11 465 144 530 258 545 130 573 469 598 181 587 
557 11 659 645 626 228 640 455 123 564 420 95 441 
558 11 416 32 154 442 628 264 590 567 677 668 612 
559 7 481 321 76 493 115 658 545 
560 10 549 647 350 227 58 135 623 287 130 510 
561 7 621 344 576 61 408 454 229 
562 11 150 639 656 435 491 550 133 203 502 39 78 
563 6 507 458 425 225 438 88 
564 11 640 420 645 557 445 542 659 441 95 494 527 
565 7 660 401 351 447 110 631 241 
566 10 625 122 524 409 642 41 302 354 360 387 
567 11 677 419 154 346 416 628 590 415 394 577 558 
568 11 101 446 552 569 511 157 394 415 666 74 473 
569 11 446 89 511 101 668 568 523 552 394 157 590 
570 3 294 410 75 
571 8 594 421 95 379 441 582 123 527 
572 11 345 311 265 212 301 610 126 195 206 184 340 
573 11 144 496 598 279 556 434 449 183 99 46 465 
574 11 404 15 73 459 175 316 248 38 342 223 66 
575 9 665 440 151 10 605 492 443 426 672 
576 4 408 259 561 61 
577 11 98 193 419 55 346 677 432 176 567 666 485 
578 7 207 53 518 47 540 295 390 
579 7 263 286 173 596 125 353 472 
580 9 620 303 116 215 186 685 470 657 233 
581 11 589 635 544 93 406 125 17 651 353 596 641 
582 8 527 441 95 594 420 421 571 542 
583 11 373 63 466 477 108 491 651 203 402 637 139 
584 11 623 46 239 260 279 598 99 647 232 449 650 
585 11 627 460 535 296 272 551 77 156 205 632 663 
586 11 525 289 447 29 686 405 462 401 503 94 304 
587 11 181 510 115 545 287 130 321 76 258 465 493 
588 11 68 204 256 554 137 306 334 335 251 230 472 
589 11 581 635 544 93 406 125 596 353 641 17 651 
590 11 628 394 511 157 154 416 668 415 552 567 89 
591 11 28 489 678 35 340 371 380 630 229 199 206 
592 6 365 163 308 620 325 580 
593 10 604 609 600 476 431 19 112 235 448 468 
594 8 421 571 95 441 582 527 379 123 
595 7 379 407 571 421 597 123 594 
596 11 406 125 353 641 607 286 93 635 173 17 589 
597 9 407 646 595 379 455 488 123 533 329 
598 11 46 144 573 279 130 584 99 556 623 449 496 
599 8 480 339 218 437 24 100 328 644 
600 11 19 604 431 593 112 476 609 468 448 418 271 
601 11 69 185 298 522 187 662 428 512 538 516 278 
602 11 166 128 320 121 369 213 302 140 79 280 387 
603 7 615 42 444 681 108 513 276 
604 11 600 593 19 431 609 476 112 235 468 448 418 
605 8 492 665 575 10 151 443 440 327 
606 9 54 555 414 664 617 439 217 341 520 
607 11 353 358 125 17 596 406 230 579 263 286 641 
608 7 268 456 13 467 464 669 679 
609 9 593 476 600 604 448 431 19 112 271 
610 11 265 311 572 301 79 345 213 324 212 300 202 
611 11 534 119 400 16 471 336 216 487 343 363 674 
612 11 253 32 264 442 543 5 638 523 536 192 558 
613 9 508 347 509 391 669 7 649 436 680 
614 11 479 536 632 523 253 89 668 569 612 643 460 
615 6 603 42 681 276 513 444 
616 7 539 495 241 508 110 521 669 
617 8 414 555 217 54 606 355 186 392 
618 6 667 548 209 259 622 61 
619 8 141 457 329 671 282 380 315 609 
620 10 580 657 470 365 528 103 451 116 303 592 
621 9 561 344 229 35 454 199 533 630 61 
622 7 259 667 548 618 408 61 209 
623 11 584 647 46 598 239 549 130 279 560 135 350 
624 11 269 143 118 322 26 301 167 21 213 155 369 
625 10 566 122 524 409 642 354 302 41 360 387 
626 7 228 455 659 557 123 645 646 
627 11 585 460 535 296 551 272 77 156 663 205 636 
628 11 590 154 416 558 394 567 511 157 677 668 32 
629 11 655 517 486 684 680 475 462 503 676 94 436 
630 9 199 533 488 35 380 621 489 597 407 
631 10 401 110 241 422 405 94 447 660 565 475 
632 11 479 614 536 523 89 253 668 569 460 643 272 
633 11 506 283 160 252 163 131 433 261 117 96 97 
634 11 78 675 133 39 372 502 150 656 295 562 319 
635 11 589 581 544 93 406 641 596 125 353 444 17 
636 11 205 170 156 535 529 50 272 585 627 267 460 
637 7 389 63 402 373 639 435 491 
638 11 5 543 103 451 683 612 192 399 36 657 264 
639 10 435 491 562 63 637 373 150 203 389 550 
640 11 645 420 557 564 441 95 542 659 527 123 582 
641 9 93 173 286 596 406 444 635 544 125 
642 10 354 409 625 566 122 9 165 524 654 196 
643 11 192 27 36 683 253 536 614 479 632 612 156 
644 11 378 202 300 297 100 6 324 501 220 599 339 
645 11 640 557 659 123 441 95 420 421 594 527 582 
646 9 597 407 455 228 626 329 123 379 659 
647 11 623 549 560 350 46 584 130 287 135 598 58 
648 11 515 338 468 19 112 431 600 418 604 65 235 
649 11 7 436 509 347 613 680 391 676 684 508 669 
650 11 260 99 449 239 279 33 584 232 496 183 598 
651 11 139 402 581 589 583 275 635 544 403 63 477 
652 10 11 124 183 33 434 496 541 449 490 99 
653 8 546 537 392 91 526 396 233 355 
654 2 196 9 
655 11 517 486 629 684 475 680 462 503 94 686 405 
656 11 502 550 39 295 203 540 53 78 562 518 47 
657 11 470 103 451 620 365 528 5 543 399 638 580 
658 5 463 481 469 76 258 
659 10 557 626 228 645 455 123 640 379 421 95 
660 9 110 495 241 565 539 631 401 616 521 
661 11 72 149 81 221 317 84 348 31 48 40 114 
662 11 411 88 516 522 185 328 225 458 601 526 425 
663 11 77 376 551 168 172 159 288 296 674 627 313 
664 5 606 439 307 54 555 
665 9 575 151 440 605 492 10 443 426 672 
666 11 415 74 552 157 412 394 98 485 176 677 577 
667 7 618 548 209 259 622 61 408 
668 11 523 89 511 590 479 569 614 628 632 536 446 
669 9 508 347 613 509 7 391 649 436 464 
670 10 55 484 429 176 98 577 193 485 432 412 
671 11 315 380 189 141 619 371 282 489 457 222 488 
672 6 426 553 461 443 151 440 
673 11 92 357 341 439 102 307 281 520 606 169 54 
674 11 336 159 16 296 343 313 77 66 363 611 534 
675 11 78 372 39 634 295 502 214 540 656 53 280 
676 11 436 7 649 509 680 684 347 613 391 464 508 
677 11 567 419 346 415 577 154 628 157 394 98 590 
678 11 340 206 28 591 126 143 371 489 212 26 624 
679 10 532 505 554 467 137 358 268 608 17 335 
680 11 684 436 649 7 391 475 509 676 613 347 508 
681 4 615 603 444 42 
682 11 222 120 482 423 245 142 189 26 371 315 155 
683 11 36 192 27 643 638 253 5 543 612 44 536 
684 11 680 436 649 7 475 391 676 509 613 347 486 
685 8 278 116 512 428 233 303 396 215 
686 11 462 503 289 405 94 427 586 304 525 517 486 
DEPOT_SECTION
   1
   -1
EOF
