NAME :  X-n856-kX-w342-c9.cctp
COMMENT : 	Adapted by Maziero, Usberti and Cavellucci from the Uchoa, Pecin, Pessoa, Poggi, Subramanian, and Vidal (2013)
TYPE :  CCTP
DIMENSION :    755
EDGE_WEIGHT_TYPE : 	EUC_2D	
CAPACITY : 	9
VERTICES_WITHIN_COVERAGE :  9
VERTICES_WITH_DEMAND : 	342
NODE_COORD_SECTION
1 500 500
2 440 732
3 221 348
4 117 545
5 493 645
6 135 12
7 775 997
8 745 444
9 950 311
10 530 150
11 900 508
12 48 519
13 269 217
14 722 349
15 480 733
16 977 422
17 999 220
18 636 332
19 851 162
20 559 567
21 389 69
22 529 835
23 303 427
24 400 638
25 894 904
26 482 109
27 579 800
28 184 82
29 669 753
30 906 424
31 374 692
32 174 613
33 75 37
34 38 563
35 838 157
36 710 709
37 176 67
38 449 326
39 71 389
40 710 115
41 237 547
42 530 27
43 631 223
44 171 342
45 226 65
46 6 998
47 24 635
48 668 165
49 318 608
50 429 82
51 212 237
52 853 126
53 387 47
54 677 144
55 111 790
56 957 32
57 511 647
58 457 561
59 86 687
60 290 456
61 473 563
62 807 725
63 461 468
64 739 235
65 257 340
66 588 545
67 6 311
68 268 976
69 552 414
70 994 946
71 452 534
72 422 545
73 248 611
74 43 366
75 977 96
76 822 580
77 940 650
78 86 263
79 715 99
80 668 981
81 424 638
82 297 607
83 251 282
84 237 413
85 202 573
86 181 385
87 126 528
88 386 811
89 978 846
90 70 99
91 333 357
92 49 870
93 157 734
94 627 268
95 818 433
96 738 555
97 350 909
98 337 926
99 978 59
100 42 595
101 870 933
102 19 120
103 165 679
104 131 984
105 232 755
106 319 417
107 187 376
108 251 482
109 657 219
110 209 397
111 800 377
112 228 116
113 566 559
114 490 156
115 216 547
116 964 677
117 85 897
118 292 807
119 600 893
120 938 222
121 543 747
122 572 976
123 569 59
124 712 574
125 971 515
126 616 306
127 695 837
128 421 821
129 604 995
130 537 957
131 1000 653
132 282 817
133 380 874
134 778 101
135 462 74
136 87 682
137 441 228
138 608 430
139 511 313
140 710 300
141 630 24
142 626 650
143 531 719
144 598 824
145 995 622
146 258 981
147 358 281
148 279 169
149 286 268
150 259 659
151 782 132
152 862 518
153 457 603
154 210 438
155 44 44
156 527 818
157 164 156
158 23 86
159 342 930
160 39 282
161 269 848
162 436 886
163 323 340
164 237 891
165 333 488
166 517 137
167 591 972
168 541 888
169 122 280
170 159 655
171 200 158
172 446 283
173 107 315
174 588 270
175 158 374
176 26 353
177 959 76
178 852 328
179 927 736
180 437 138
181 53 938
182 333 192
183 922 499
184 407 948
185 970 664
186 237 738
187 8 561
188 747 852
189 989 908
190 100 860
191 10 960
192 842 190
193 595 716
194 286 965
195 199 373
196 159 67
197 979 25
198 488 479
199 804 620
200 742 853
201 528 160
202 223 342
203 503 159
204 711 681
205 339 340
206 342 509
207 931 593
208 766 953
209 710 172
210 521 451
211 172 159
212 685 836
213 639 155
214 763 656
215 269 241
216 825 761
217 330 177
218 901 124
219 713 860
220 619 926
221 692 19
222 96 876
223 949 178
224 79 795
225 833 852
226 336 444
227 877 0
228 296 597
229 566 735
230 940 377
231 349 269
232 939 827
233 908 120
234 50 741
235 670 569
236 753 744
237 577 351
238 141 616
239 97 625
240 64 875
241 496 160
242 515 598
243 344 803
244 274 510
245 291 170
246 800 300
247 74 609
248 365 207
249 791 396
250 453 848
251 405 191
252 395 290
253 525 743
254 260 385
255 408 837
256 1 346
257 231 504
258 837 572
259 606 473
260 900 729
261 346 868
262 123 80
263 477 169
264 383 59
265 510 410
266 890 101
267 952 635
268 825 722
269 68 598
270 234 841
271 911 720
272 172 367
273 569 289
274 84 19
275 694 916
276 454 412
277 261 233
278 693 375
279 588 854
280 276 538
281 599 569
282 142 158
283 338 805
284 324 194
285 739 325
286 845 639
287 638 182
288 858 93
289 40 923
290 37 599
291 638 39
292 218 714
293 568 674
294 288 840
295 439 570
296 325 801
297 587 278
298 992 674
299 597 608
300 174 865
301 65 330
302 872 434
303 620 129
304 339 681
305 178 811
306 478 966
307 469 749
308 475 791
309 799 594
310 692 130
311 59 223
312 811 2
313 5 946
314 219 305
315 759 951
316 656 889
317 582 18
318 97 885
319 888 467
320 899 286
321 512 358
322 188 776
323 220 951
324 503 801
325 483 402
326 685 904
327 483 722
328 13 301
329 387 976
330 607 709
331 857 739
332 51 422
333 818 797
334 302 646
335 474 101
336 817 66
337 573 973
338 948 686
339 922 552
340 586 899
341 153 503
342 47 817
343 740 970
344 216 852
345 261 776
346 935 540
347 920 879
348 642 623
349 268 373
350 409 940
351 374 176
352 894 60
353 539 352
354 605 457
355 4 240
356 340 303
357 563 524
358 861 875
359 700 810
360 160 753
361 985 455
362 981 276
363 708 646
364 575 249
365 777 725
366 724 888
367 853 773
368 4 27
369 743 430
370 301 574
371 38 983
372 575 209
373 10 683
374 878 342
375 745 333
376 616 311
377 537 110
378 70 839
379 531 647
380 157 736
381 609 356
382 450 852
383 534 11
384 436 279
385 340 578
386 41 809
387 971 282
388 389 628
389 171 951
390 821 278
391 633 578
392 158 858
393 374 163
394 219 471
395 392 784
396 586 937
397 546 923
398 619 737
399 700 50
400 722 223
401 112 450
402 857 66
403 81 295
404 314 964
405 829 981
406 723 590
407 645 700
408 318 800
409 277 268
410 459 81
411 573 211
412 391 259
413 368 81
414 262 451
415 629 44
416 390 264
417 842 703
418 780 254
419 653 177
420 882 625
421 763 432
422 615 183
423 62 855
424 629 543
425 27 83
426 822 574
427 355 86
428 519 683
429 111 12
430 957 366
431 265 184
432 985 701
433 215 888
434 945 515
435 76 204
436 553 988
437 22 32
438 938 553
439 441 911
440 944 473
441 120 85
442 551 214
443 422 750
444 373 976
445 196 122
446 312 75
447 870 353
448 25 46
449 470 958
450 184 140
451 890 462
452 841 551
453 82 88
454 979 491
455 898 582
456 439 811
457 199 182
458 239 151
459 960 334
460 67 99
461 253 120
462 124 84
463 64 183
464 453 987
465 421 756
466 862 440
467 170 166
468 58 109
469 408 787
470 845 522
471 350 875
472 24 154
473 732 438
474 322 797
475 569 889
476 286 3
477 19 558
478 482 967
479 271 127
480 921 499
481 513 901
482 541 920
483 41 240
484 876 405
485 449 871
486 786 558
487 467 684
488 827 446
489 625 441
490 321 913
491 935 443
492 378 902
493 95 48
494 939 576
495 991 561
496 887 479
497 822 451
498 137 252
499 556 988
500 769 375
501 445 848
502 925 421
503 674 544
504 117 30
505 388 987
506 119 18
507 134 297
508 614 521
509 887 325
510 467 903
511 772 461
512 423 944
513 379 846
514 916 509
515 983 447
516 667 885
517 465 911
518 96 17
519 425 963
520 93 201
521 132 93
522 671 926
523 901 468
524 93 287
525 795 581
526 741 514
527 119 223
528 503 964
529 849 388
530 80 58
531 116 81
532 123 266
533 683 363
534 77 114
535 872 520
536 187 62
537 918 677
538 909 427
539 937 395
540 80 88
541 25 87
542 421 825
543 855 443
544 468 802
545 2 112
546 647 389
547 876 475
548 422 970
549 705 454
550 151 897
551 853 420
552 883 484
553 27 44
554 154 38
555 285 921
556 50 196
557 259 863
558 702 637
559 422 975
560 432 847
561 112 263
562 908 625
563 783 344
564 422 744
565 372 987
566 168 96
567 358 850
568 476 813
569 62 117
570 539 970
571 278 215
572 854 616
573 379 769
574 46 207
575 466 816
576 890 559
577 688 555
578 826 582
579 401 805
580 384 826
581 320 775
582 204 336
583 866 515
584 397 949
585 405 865
586 724 356
587 414 830
588 131 31
589 318 200
590 1 157
591 542 729
592 245 352
593 539 905
594 827 317
595 376 836
596 878 519
597 212 724
598 876 516
599 939 557
600 380 841
601 149 149
602 330 999
603 104 67
604 283 883
605 138 48
606 814 455
607 970 535
608 450 898
609 220 93
610 208 26
611 317 96
612 921 488
613 903 248
614 180 59
615 69 98
616 199 69
617 884 460
618 879 525
619 57 102
620 978 705
621 929 486
622 691 634
623 456 977
624 391 789
625 442 872
626 754 759
627 854 615
628 820 450
629 326 986
630 71 69
631 315 718
632 377 938
633 44 74
634 290 921
635 899 478
636 142 147
637 437 837
638 742 549
639 288 844
640 792 425
641 262 65
642 533 687
643 213 160
644 860 414
645 884 459
646 4 153
647 140 44
648 521 878
649 575 779
650 442 900
651 877 579
652 893 487
653 73 13
654 394 886
655 511 949
656 474 772
657 812 425
658 684 471
659 458 971
660 132 137
661 797 351
662 386 268
663 953 616
664 382 794
665 548 895
666 861 525
667 372 780
668 967 425
669 534 912
670 396 888
671 82 60
672 856 523
673 12 90
674 497 721
675 454 984
676 120 69
677 40 111
678 347 868
679 377 932
680 296 934
681 896 547
682 884 450
683 926 500
684 380 921
685 423 888
686 716 514
687 871 532
688 529 867
689 852 522
690 406 859
691 919 577
692 824 407
693 274 236
694 854 533
695 336 959
696 813 702
697 210 304
698 460 867
699 315 915
700 454 857
701 905 380
702 831 580
703 399 106
704 904 561
705 420 930
706 876 448
707 102 164
708 74 112
709 139 43
710 370 995
711 849 441
712 405 938
713 57 100
714 78 81
715 170 77
716 959 379
717 347 913
718 316 803
719 115 74
720 538 906
721 939 530
722 235 819
723 982 463
724 463 971
725 847 370
726 200 145
727 769 970
728 712 624
729 910 566
730 867 531
731 352 966
732 490 865
733 451 831
734 341 453
735 10 127
736 1 25
737 918 775
738 277 884
739 884 435
740 745 448
741 118 13
742 222 755
743 695 341
744 25 18
745 380 843
746 436 877
747 912 446
748 405 857
749 486 866
750 568 430
751 935 513
752 821 687
753 367 814
754 33 97
755 411 722
DEMAND_SECTION
2 1
3 1
4 1
5 1
6 1
7 1
8 1
9 1
10 1
11 1
12 1
13 1
14 1
15 1
16 1
17 1
18 1
19 1
20 1
21 1
22 1
23 1
24 1
25 1
26 1
27 1
28 1
29 1
30 1
31 1
32 1
33 1
34 1
35 1
36 1
37 1
38 1
39 1
40 1
41 1
42 1
43 1
44 1
45 1
46 1
47 1
48 1
49 1
50 1
51 1
52 1
53 1
54 1
55 1
56 1
57 1
58 1
59 1
60 1
61 1
62 1
63 1
64 1
65 1
66 1
67 1
68 1
69 1
70 1
71 1
72 1
73 1
74 1
75 1
76 1
77 1
78 1
79 1
80 1
81 1
82 1
83 1
84 1
85 1
86 1
87 1
88 1
89 1
90 1
91 1
92 1
93 1
94 1
95 1
96 1
97 1
98 1
99 1
100 1
101 1
102 1
103 1
104 1
105 1
106 1
107 1
108 1
109 1
110 1
111 1
112 1
113 1
114 1
115 1
116 1
117 1
118 1
119 1
120 1
121 1
122 1
123 1
124 1
125 1
126 1
127 1
128 1
129 1
130 1
131 1
132 1
133 1
134 1
135 1
136 1
137 1
138 1
139 1
140 1
141 1
142 1
143 1
144 1
145 1
146 1
147 1
148 1
149 1
150 1
151 1
152 1
153 1
154 1
155 1
156 1
157 1
158 1
159 1
160 1
161 1
162 1
163 1
164 1
165 1
166 1
167 1
168 1
169 1
170 1
171 1
172 1
173 1
174 1
175 1
176 1
177 1
178 1
179 1
180 1
181 1
182 1
183 1
184 1
185 1
186 1
187 1
188 1
189 1
190 1
191 1
192 1
193 1
194 1
195 1
196 1
197 1
198 1
199 1
200 1
201 1
202 1
203 1
204 1
205 1
206 1
207 1
208 1
209 1
210 1
211 1
212 1
213 1
214 1
215 1
216 1
217 1
218 1
219 1
220 1
221 1
222 1
223 1
224 1
225 1
226 1
227 1
228 1
229 1
230 1
231 1
232 1
233 1
234 1
235 1
236 1
237 1
238 1
239 1
240 1
241 1
242 1
243 1
244 1
245 1
246 1
247 1
248 1
249 1
250 1
251 1
252 1
253 1
254 1
255 1
256 1
257 1
258 1
259 1
260 1
261 1
262 1
263 1
264 1
265 1
266 1
267 1
268 1
269 1
270 1
271 1
272 1
273 1
274 1
275 1
276 1
277 1
278 1
279 1
280 1
281 1
282 1
283 1
284 1
285 1
286 1
287 1
288 1
289 1
290 1
291 1
292 1
293 1
294 1
295 1
296 1
297 1
298 1
299 1
300 1
301 1
302 1
303 1
304 1
305 1
306 1
307 1
308 1
309 1
310 1
311 1
312 1
313 1
314 1
315 1
316 1
317 1
318 1
319 1
320 1
321 1
322 1
323 1
324 1
325 1
326 1
327 1
328 1
329 1
330 1
331 1
332 1
333 1
334 1
335 1
336 1
337 1
338 1
339 1
340 1
341 1
342 1
343 1
COVERAGE_SECTION
2 9 564 443 465 755 307 15 327 656 487 
3 9 202 582 592 195 65 314 107 697 44 
4 9 87 341 269 12 238 247 34 239 32 
5 9 57 379 428 487 242 153 642 81 674 
6 9 506 741 588 429 504 709 554 647 605 
7 9 727 343 208 315 405 80 101 275 366 
8 8 740 369 473 421 511 549 640 249 
9 9 459 387 362 430 320 509 230 716 374 
10 9 201 166 203 241 114 377 263 26 442 
11 8 514 652 480 183 596 598 618 683 
12 9 34 477 187 4 100 87 269 290 247 
13 9 571 277 693 215 431 148 245 409 589 
14 9 586 375 743 285 278 533 140 500 563 
15 9 327 307 674 656 2 253 487 143 308 
16 7 668 515 361 723 491 716 539 
17 9 362 120 223 387 613 9 320 459 75 
18 9 376 126 381 533 546 743 237 94 278 
19 9 35 192 52 218 288 233 266 151 134 
20 9 113 66 281 357 242 299 508 424 391 
21 9 264 53 413 427 703 50 410 135 446 
22 8 156 688 324 648 732 749 168 568 
23 9 106 60 226 734 414 254 349 84 165 
24 9 388 81 31 153 304 295 487 385 755 
25 9 347 101 358 225 232 189 405 89 70 
26 9 335 410 135 166 114 241 180 203 377 
27 9 649 144 156 279 22 121 229 398 324 
28 8 715 37 536 616 566 614 196 609 
29 9 398 407 36 359 330 193 204 236 212 
30 9 538 502 747 739 682 302 491 484 706 
31 9 304 755 24 631 388 564 81 443 2 
32 9 238 170 85 103 73 115 239 4 41 
33 9 274 530 493 653 671 518 155 630 603 
34 9 477 187 100 290 12 269 247 47 4 
35 9 19 192 52 151 288 218 266 233 134 
36 9 204 236 29 363 407 626 365 558 214 
37 9 614 536 715 28 196 616 566 554 605 
38 9 172 384 139 252 321 325 276 416 662 
39 9 74 332 176 301 401 173 256 175 403 
40 9 79 310 54 209 48 399 134 151 213 
41 9 115 280 257 85 244 73 108 370 228 
42 9 383 123 317 135 377 410 335 26 141 
43 9 109 287 422 94 419 372 411 364 174 
44 9 272 582 175 107 195 86 3 202 697 
45 9 616 609 641 536 610 28 614 37 112 
46 9 371 191 313 181 289 104 117 92 240 
47 9 290 100 373 247 269 34 239 187 477 
48 9 419 54 213 287 310 209 109 422 303 
49 9 82 228 385 370 334 73 388 304 150 
50 9 410 135 703 21 335 264 53 180 26 
51 9 277 215 457 13 83 693 697 314 571 
52 9 288 35 19 266 218 233 402 192 336 
53 9 264 21 413 427 50 703 135 410 446 
54 9 310 48 213 419 209 40 287 79 303 
55 9 224 360 378 342 305 190 380 93 386 
56 9 197 99 177 75 352 227 266 233 402 
57 9 5 379 428 642 242 487 293 153 143 
58 9 61 295 71 72 153 242 81 198 5 
59 9 136 239 234 373 103 247 170 47 93 
60 9 414 23 108 226 106 734 165 244 84 
61 9 58 295 71 153 72 242 5 198 20 
62 9 268 696 365 216 752 417 331 236 626 
63 9 198 276 210 71 325 265 72 58 61 
64 9 400 418 209 140 109 246 285 390 375 
65 9 592 202 349 3 254 314 582 83 697 
66 9 113 281 357 508 20 424 391 299 259 
67 9 328 256 160 176 301 74 355 403 483 
68 9 146 194 404 680 323 555 629 634 602 
69 9 750 265 210 138 353 237 354 321 325 
70 9 189 347 89 25 101 232 358 405 225 
71 9 58 72 61 295 198 63 153 242 81 
72 9 295 71 58 61 153 63 206 385 388 
73 9 82 150 228 85 334 41 370 49 115 
74 9 176 39 301 256 332 67 328 403 173 
75 9 177 99 56 197 233 218 223 266 352 
76 8 578 426 702 258 309 525 452 486 
77 9 267 185 537 116 663 338 562 298 207 
78 9 524 561 403 532 169 311 160 483 498 
79 9 40 310 399 54 134 209 151 48 221 
80 9 522 129 275 343 220 167 326 316 396 
81 9 24 388 153 487 5 295 31 58 755 
82 9 228 49 370 334 73 385 150 280 41 
83 9 409 149 314 215 697 277 693 65 51 
84 9 110 254 154 414 349 195 394 107 592 
85 9 115 41 32 73 238 257 280 341 87 
86 9 107 272 195 175 110 44 3 582 154 
87 9 4 341 12 401 85 238 269 115 34 
88 9 580 579 664 753 624 595 395 600 469 
89 9 232 189 347 737 70 25 179 358 101 
90 9 615 460 619 713 708 540 453 468 534 
91 9 205 163 356 106 349 23 65 254 147 
92 9 240 423 378 117 222 318 190 342 289 
93 9 380 360 322 103 597 292 742 55 105 
94 9 174 126 297 376 43 364 109 273 18 
95 7 657 488 628 497 606 640 692 
96 7 638 124 406 526 686 486 577 
97 9 717 98 159 490 492 684 471 679 699 
98 9 159 717 97 490 699 695 679 632 680 
99 9 177 56 197 75 352 233 266 218 227 
100 9 290 269 34 247 47 477 187 239 12 
101 9 25 358 405 347 225 208 727 315 7 
102 7 735 545 677 754 673 158 472 
103 9 170 93 380 292 597 32 238 360 136 
104 9 389 550 181 371 323 117 318 289 222 
105 9 742 186 345 597 292 322 722 360 380 
106 9 23 226 734 60 91 414 254 349 165 
107 9 86 195 272 175 110 44 582 3 202 
108 9 257 414 394 244 60 154 280 41 84 
109 9 43 287 419 48 422 94 400 213 209 
110 9 195 86 107 84 154 272 3 254 175 
111 9 249 661 500 563 692 725 640 657 529 
112 9 609 461 445 458 726 479 643 171 450 
113 9 20 66 281 357 299 508 242 424 391 
114 9 241 203 263 166 201 10 26 180 335 
115 9 41 85 257 280 244 73 108 394 341 
116 9 185 338 298 620 432 77 131 267 537 
117 9 318 222 240 190 92 423 181 289 378 
118 9 132 718 408 474 294 296 639 581 345 
119 9 340 475 220 279 396 665 316 168 397 
120 9 613 223 17 387 362 320 9 192 218 
121 9 253 591 229 143 649 674 193 642 27 
122 9 337 167 499 436 570 129 130 396 397 
123 9 317 42 383 377 415 141 291 303 166 
124 9 406 577 96 638 235 503 728 686 558 
125 9 607 454 434 721 751 346 683 438 440 
126 9 376 18 94 297 174 273 381 237 364 
127 9 212 359 219 200 188 516 366 316 326 
128 9 542 587 255 456 637 579 560 733 88 
129 9 167 122 337 499 436 396 80 570 220 
130 9 570 655 397 436 528 499 482 337 122 
131 9 298 145 185 116 432 267 620 77 663 
132 9 118 294 639 161 718 408 474 296 345 
133 7 654 670 585 492 513 471 690 
134 9 151 336 79 40 52 288 35 402 310 
135 9 410 335 50 26 180 703 21 53 264 
136 9 59 239 234 247 170 373 103 47 238 
137 9 384 251 172 412 416 662 263 252 248 
138 9 489 354 750 259 546 69 381 237 658 
139 9 321 353 38 273 172 237 384 297 174 
140 9 285 743 375 14 586 533 64 278 400 
141 9 291 415 317 221 123 399 383 42 303 
142 9 348 299 407 330 293 622 391 193 558 
143 9 591 253 121 642 674 229 428 327 15 
144 9 27 279 649 119 22 156 475 340 688 
145 9 131 663 267 185 298 495 77 116 207 
146 9 68 194 323 404 680 555 629 634 602 
147 9 231 356 662 416 252 412 205 163 149 
148 9 245 431 479 458 571 13 589 284 217 
149 9 409 215 693 83 277 13 571 231 356 
150 9 334 73 82 292 228 49 597 631 186 
151 9 134 35 52 40 19 79 336 209 192 
152 9 583 666 672 535 689 598 730 596 470 
153 9 295 58 61 81 5 242 24 72 71 
154 9 394 84 110 414 86 108 107 195 257 
155 9 553 448 437 633 33 744 630 530 671 
156 9 22 324 688 568 27 308 648 732 544 
157 9 211 467 601 282 636 450 171 660 726 
158 6 541 425 673 754 633 677 
159 9 98 717 97 490 695 699 679 632 731 
160 9 328 483 67 403 78 524 301 355 311 
161 9 557 639 294 132 270 738 604 722 118 
162 7 746 685 625 650 608 485 439 
163 9 205 91 356 349 65 147 231 106 254 
164 9 433 557 738 344 604 270 161 555 634 
165 9 206 734 226 60 244 23 106 280 414 
166 9 10 201 203 241 114 377 26 263 335 
167 9 337 122 129 396 499 436 570 220 130 
168 9 665 593 720 648 688 669 475 481 482 
169 9 532 561 507 524 498 173 78 403 527 
170 9 103 238 32 239 136 93 59 380 292 
171 9 643 726 450 457 211 467 157 445 458 
172 9 384 38 252 137 416 412 662 139 147 
173 9 524 507 403 169 301 532 561 78 44 
174 9 297 364 273 94 126 376 411 372 43 
175 9 272 86 107 44 195 110 582 3 202 
176 9 74 256 301 67 328 39 160 332 403 
177 9 99 75 56 197 233 352 266 218 223 
178 8 594 374 447 509 725 246 390 529 
179 9 271 260 737 338 537 620 432 116 331 
180 9 703 263 335 26 114 50 410 251 241 
181 9 289 371 191 313 117 240 92 318 222 
182 9 284 217 589 248 351 245 393 148 571 
183 9 480 683 612 514 621 751 11 434 635 
184 8 350 584 712 512 705 519 548 559 
185 9 116 298 338 131 77 267 432 620 145 
186 9 105 742 597 292 345 322 360 93 380 
187 9 477 34 100 290 12 269 47 247 4 
188 9 200 219 366 127 359 212 326 275 225 
189 9 70 89 347 25 232 101 358 737 225 
190 9 222 318 378 423 240 117 92 392 550 
191 9 313 371 46 181 289 92 117 240 318 
192 9 19 35 52 151 613 218 418 390 233 
193 9 330 398 229 293 407 591 121 143 649 
194 9 68 404 146 680 555 634 629 695 602 
195 9 107 86 110 272 3 582 202 175 44 
196 9 715 37 614 536 605 28 554 566 647 
197 9 56 99 177 75 352 227 266 233 218 
198 9 63 210 71 265 276 325 61 357 58 
199 9 309 525 76 578 286 702 426 572 627 
200 9 188 219 366 127 212 359 326 275 516 
201 9 10 166 203 241 114 377 263 442 372 
202 9 3 582 592 65 314 195 697 107 44 
203 9 241 114 201 166 10 263 26 377 335 
204 9 36 363 558 622 728 214 407 236 365 
205 9 163 91 356 147 231 252 349 106 65 
206 9 165 734 226 244 385 280 60 370 72 
207 9 494 691 663 729 455 599 562 438 339 
208 9 315 727 343 7 405 366 275 326 522 
209 9 48 54 310 400 40 419 64 109 79 
210 9 265 198 69 750 63 325 276 354 357 
211 9 467 157 450 601 171 282 726 636 457 
212 9 127 359 219 516 200 316 188 366 326 
213 9 419 287 48 303 422 54 310 109 43 
214 9 199 363 204 728 558 752 696 365 309 
215 9 693 277 13 409 571 149 83 51 431 
216 9 367 333 268 331 62 365 417 696 626 
217 9 182 284 589 245 351 248 393 148 571 
218 9 233 266 52 288 19 352 35 223 402 
219 9 127 200 366 188 212 326 359 516 275 
220 9 396 119 340 316 522 167 475 516 337 
221 9 399 291 141 415 79 40 317 310 134 
222 9 318 190 117 240 423 378 92 550 392 
223 9 120 17 233 218 613 75 266 19 177 
224 9 55 342 386 378 234 423 190 92 240 
225 9 358 333 25 367 188 101 200 216 347 
226 9 734 106 23 165 60 206 414 91 244 
227 9 352 312 402 56 336 288 266 197 177 
228 9 82 370 49 385 334 73 280 150 41 
229 9 591 121 193 143 253 649 330 398 642 
230 9 539 716 430 701 502 459 668 16 30 
231 9 147 356 662 416 412 252 149 248 205 
232 9 89 347 737 25 179 358 189 367 260 
233 9 218 266 52 288 352 177 19 223 75 
234 9 224 59 386 136 373 342 55 378 93 
235 9 577 503 391 124 424 406 348 622 96 
236 9 626 365 36 62 696 216 268 204 29 
237 9 381 353 376 126 18 273 321 69 297 
238 9 32 170 239 103 247 4 85 269 136 
239 9 247 269 238 136 59 100 290 170 47 
240 9 92 423 117 222 318 378 190 289 342 
241 9 114 203 263 166 201 10 26 180 335 
242 9 57 5 379 20 61 153 113 58 295 
243 9 283 296 474 753 408 718 667 581 664 
244 9 280 108 257 41 60 414 165 394 206 
245 9 148 431 217 589 284 182 479 571 13 
246 9 390 594 563 418 661 178 375 285 111 
247 9 269 239 100 290 47 34 238 136 477 
248 9 351 182 251 284 393 217 589 412 416 
249 9 111 640 500 692 657 661 95 421 563 
250 9 382 501 700 733 637 698 560 485 625 
251 9 351 393 248 137 180 412 182 263 416 
252 9 662 416 412 147 384 172 231 356 38 
253 9 121 591 143 674 229 15 327 307 642 
254 9 349 84 592 65 110 3 202 23 195 
255 9 587 542 748 128 690 560 580 585 600 
256 9 176 67 74 328 301 160 39 332 403 
257 9 108 394 41 244 115 280 414 154 85 
258 7 702 426 578 76 452 651 525 
259 9 354 489 138 508 750 357 66 424 658 
260 9 271 179 331 737 537 338 367 417 268 
261 9 678 471 567 133 513 97 745 600 595 
262 7 462 441 531 719 676 521 603 
263 9 114 241 203 166 180 201 10 26 335 
264 8 21 53 413 427 703 50 446 611 
265 9 325 69 210 321 276 750 353 198 63 
266 9 218 233 288 352 52 402 19 177 35 
267 9 77 663 185 116 145 562 207 131 338 
268 9 62 696 417 752 331 216 365 367 236 
269 9 247 100 290 239 34 47 477 187 4 
270 9 344 722 557 161 164 433 132 294 639 
271 9 260 179 537 338 737 331 116 620 417 
272 9 175 107 86 44 195 582 110 3 202 
273 9 297 174 364 126 376 94 139 237 353 
274 9 518 653 33 429 493 504 506 741 530 
275 9 326 522 366 516 316 219 80 343 315 
276 9 325 63 265 198 210 321 38 69 353 
277 9 215 693 13 571 409 149 51 431 83 
278 9 533 743 586 14 546 375 285 18 369 
279 9 144 475 119 340 27 665 168 688 22 
280 9 244 41 370 257 108 115 228 82 206 
281 9 66 113 391 299 20 424 508 357 348 
282 6 601 636 157 660 467 211 
283 9 243 296 474 408 718 753 581 667 664 
284 9 589 182 217 245 248 148 571 351 393 
285 9 375 14 586 140 743 563 500 661 246 
286 8 572 627 420 199 752 578 702 76 
287 9 419 422 213 48 43 109 54 303 372 
288 9 402 52 266 336 352 218 233 35 19 
289 9 181 313 191 117 92 240 371 318 423 
290 9 100 269 34 47 247 477 187 239 12 
291 9 415 141 221 317 399 123 303 79 40 
292 9 597 186 742 105 93 103 380 150 322 
293 9 642 379 193 428 330 143 229 591 57 
294 9 639 161 132 118 557 604 738 718 408 
295 9 58 72 61 71 153 81 388 24 242 
296 9 474 408 718 283 243 581 118 753 132 
297 9 174 273 364 126 94 376 411 43 372 
298 9 131 185 116 432 620 338 145 267 77 
299 9 281 348 391 142 20 113 66 293 424 
300 9 392 550 344 433 305 270 164 190 722 
301 9 403 74 173 176 524 160 39 328 67 
302 8 466 739 706 543 682 644 551 711 
303 9 213 422 287 419 54 48 310 377 415 
304 9 31 631 334 388 24 49 150 755 82 
305 9 322 392 300 344 722 360 270 55 742 
306 8 478 449 724 659 528 623 675 464 
307 9 15 656 327 2 674 308 443 564 465 
308 9 544 656 568 575 324 456 307 733 15 
309 8 525 199 76 426 578 702 486 258 
310 9 54 40 79 48 209 213 419 303 287 
311 7 574 435 483 556 463 520 78 
312 9 336 227 402 352 288 134 221 399 266 
313 9 191 289 181 371 46 92 240 117 423 
314 9 697 582 202 83 3 65 592 44 51 
315 9 208 727 343 7 366 275 405 326 522 
316 9 516 326 522 275 220 119 212 219 127 
317 9 123 141 383 42 415 291 377 221 303 
318 9 222 117 190 240 423 92 378 550 392 
319 9 451 617 645 496 523 547 635 682 552 
320 9 613 509 9 374 178 387 447 120 390 
321 9 353 139 265 325 237 69 38 276 273 
322 9 305 360 742 105 380 93 597 186 722 
323 9 146 389 68 164 433 194 555 634 680 
324 9 156 308 568 544 575 656 22 733 253 
325 9 265 276 321 210 63 69 353 198 38 
326 9 275 516 522 316 366 219 127 212 220 
327 9 15 674 307 487 2 253 143 656 428 
328 9 67 160 256 176 301 355 483 403 74 
329 9 505 444 565 710 584 184 559 548 731 
330 9 193 398 407 229 293 142 591 121 29 
331 9 367 268 216 417 260 62 271 696 752 
332 9 39 74 401 176 256 301 12 175 67 
333 9 216 367 225 331 62 626 268 365 236 
334 9 82 49 150 228 304 73 370 631 385 
335 9 26 410 135 50 180 166 114 241 377 
336 9 402 288 134 312 52 151 352 266 227 
337 9 122 167 499 436 570 129 396 130 397 
338 9 116 185 537 620 77 432 298 271 267 
339 9 438 346 599 729 704 691 681 721 494 
340 9 119 475 396 665 220 279 168 397 593 
341 9 87 4 401 394 115 257 85 154 41 
342 9 386 378 224 423 92 240 190 55 234 
343 9 315 727 208 7 275 80 522 366 326 
344 9 270 433 722 164 300 557 161 305 392 
345 9 105 118 742 186 132 722 581 718 408 
346 9 721 438 599 339 434 751 607 494 514 
347 9 25 232 358 89 101 189 225 70 737 
348 9 142 391 299 622 235 558 281 363 728 
349 9 254 592 65 84 3 202 23 110 163 
350 7 712 184 512 584 705 519 632 
351 9 393 248 251 182 217 284 589 180 703 
352 9 402 266 288 227 233 218 177 56 336 
353 9 321 237 139 69 265 273 381 325 750 
354 9 259 489 138 750 508 69 357 546 658 
355 5 483 574 160 311 328 
356 9 147 231 205 163 91 252 662 416 149 
357 9 66 113 20 508 281 259 424 354 210 
358 9 225 25 101 347 333 232 367 405 737 
359 9 127 212 219 200 188 29 626 366 516 
360 9 380 93 322 597 55 305 742 292 105 
361 5 515 723 16 668 454 
362 9 387 9 17 459 120 320 613 430 223 
363 9 558 622 728 204 214 406 36 348 124 
364 9 174 297 411 273 372 442 94 43 126 
365 9 62 236 626 696 268 752 216 36 417 
366 9 219 200 275 326 188 516 127 212 522 
367 9 216 331 333 268 260 737 62 417 271 
368 9 736 437 744 448 553 155 425 158 633 
369 9 8 473 740 421 511 549 640 249 500 
370 9 228 82 49 385 280 73 41 244 334 
371 9 46 191 181 313 289 104 117 240 92 
372 9 411 442 364 422 43 174 201 287 297 
373 9 47 234 59 136 290 100 247 269 239 
374 8 447 509 178 725 701 529 594 320 
375 9 285 14 586 563 140 500 743 661 246 
376 9 126 18 94 297 381 174 273 237 364 
377 9 166 10 201 26 123 203 335 241 114 
378 9 423 342 240 92 190 386 222 224 318 
379 9 57 5 428 642 293 242 143 487 299 
380 9 93 360 322 597 103 292 742 55 105 
381 9 237 18 376 126 546 353 138 533 273 
382 9 250 501 700 698 485 560 637 733 625 
383 9 42 317 123 135 141 377 415 410 291 
384 9 172 252 416 38 412 137 662 147 139 
385 9 49 370 228 82 206 388 280 334 24 
386 9 342 224 378 423 92 234 240 55 190 
387 9 362 9 459 17 120 320 613 430 509 
388 9 24 81 31 385 153 304 49 295 72 
389 9 323 104 550 433 300 164 146 392 318 
390 9 246 594 418 178 563 661 320 509 374 
391 9 281 424 235 348 299 503 66 508 577 
392 9 300 550 305 190 344 433 222 318 270 
393 9 351 251 248 217 182 284 703 589 180 
394 9 108 154 257 414 84 244 60 341 110 
395 8 624 664 469 573 667 579 88 753 
396 9 167 220 337 340 122 397 119 482 475 
397 8 482 669 593 720 665 130 168 481 
398 9 330 193 407 29 229 649 27 121 591 
399 9 221 79 291 40 415 141 310 134 54 
400 9 64 209 109 418 140 48 419 43 54 
401 9 332 341 39 87 175 12 4 86 154 
402 9 288 352 336 266 52 227 218 233 312 
403 9 524 78 173 301 160 169 561 532 507 
404 9 695 629 194 680 602 731 98 159 68 
405 9 7 727 101 208 315 343 25 358 225 
406 9 124 728 96 638 577 558 622 235 363 
407 9 330 398 193 142 29 36 204 348 622 
408 9 718 474 296 283 581 243 118 132 294 
409 9 149 215 83 693 277 13 571 314 51 
410 9 135 335 50 26 180 703 21 264 53 
411 9 372 442 364 422 43 174 201 297 287 
412 9 416 662 252 147 231 384 248 137 172 
413 8 427 21 264 53 703 611 446 50 
414 9 60 108 84 394 23 154 244 257 106 
415 9 291 141 317 123 221 399 303 42 383 
416 9 412 662 252 147 231 384 172 137 248 
417 9 268 752 696 331 62 216 260 286 365 
418 9 64 390 246 400 594 285 140 375 192 
419 9 287 48 213 422 54 109 43 209 303 
420 8 562 572 627 286 455 651 207 691 
421 9 369 8 740 511 640 473 249 657 95 
422 9 287 213 419 43 372 411 303 109 48 
423 9 378 92 240 190 222 342 318 117 386 
424 9 508 391 281 66 503 235 577 113 357 
425 6 541 158 754 673 633 677 
426 8 76 578 702 258 525 309 452 486 
427 7 413 21 264 611 446 703 53 
428 9 642 57 143 379 674 5 293 591 487 
429 9 741 506 518 504 6 274 588 653 493 
430 9 716 230 459 539 701 9 16 668 502 
431 9 148 245 13 571 458 277 693 589 215 
432 9 620 298 116 185 338 131 77 179 537 
433 9 164 344 300 270 557 738 323 392 550 
434 9 751 721 683 125 346 183 480 514 607 
435 7 520 463 311 556 574 527 707 
436 9 499 122 570 337 130 167 129 528 655 
437 9 553 448 744 368 736 155 633 425 33 
438 9 599 346 339 494 721 691 729 704 607 
439 5 650 608 517 162 510 
440 5 621 612 491 683 183 
441 6 462 262 531 719 521 676 
442 9 411 372 364 201 10 174 422 203 297 
443 8 465 564 2 755 469 395 307 573 
444 9 565 329 505 710 731 584 632 695 184 
445 9 450 726 112 171 566 609 28 643 211 
446 7 611 427 641 413 479 264 461 
447 8 374 725 178 509 529 701 484 594 
448 9 553 437 155 368 744 736 633 425 158 
449 6 306 478 724 659 623 675 
450 8 726 211 445 171 157 467 643 601 
451 9 319 617 645 523 682 496 635 547 706 
452 7 258 694 470 426 689 702 672 
453 6 540 714 90 615 460 630 
454 7 125 723 361 440 434 515 607 
455 7 729 651 691 704 576 207 681 
456 9 128 542 733 637 575 544 587 501 560 
457 9 171 643 467 211 726 157 450 458 51 
458 9 643 461 112 726 171 479 431 148 457 
459 9 9 430 716 230 387 362 539 701 509 
460 8 615 90 619 713 468 708 540 534 
461 9 479 112 458 609 148 641 445 643 726 
462 6 262 441 531 521 719 676 
463 5 556 435 574 520 311 
464 5 675 623 659 724 306 
465 8 443 564 2 469 755 395 573 624 
466 7 543 302 711 706 551 739 682 
467 9 211 157 601 282 450 171 457 636 726 
468 5 619 569 713 460 90 
469 8 395 624 579 664 88 465 573 128 
470 6 689 672 694 666 152 583 
471 9 261 678 567 133 97 717 492 513 745 
472 4 646 590 735 102 
473 9 8 369 740 549 421 511 658 640 249 
474 9 296 408 718 283 581 243 118 132 753 
475 9 340 665 168 119 593 720 279 397 482 
476 7 641 446 610 45 611 427 616 
477 9 187 34 100 290 12 269 247 47 4 
478 9 306 449 724 528 659 623 675 655 464 
479 9 461 458 148 112 245 611 431 609 641 
480 9 183 683 514 612 621 751 11 434 635 
481 7 648 669 720 593 168 482 665 
482 8 397 669 720 593 665 168 481 130 
483 6 311 574 355 160 556 435 
484 8 644 551 302 739 529 30 466 701 
485 9 625 698 746 700 382 162 250 501 608 
486 4 525 309 426 76 
487 9 327 5 674 15 428 2 57 81 307 
488 5 497 628 95 606 711 
489 9 138 354 259 546 750 658 69 508 549 
490 9 699 98 717 159 97 634 680 555 471 
491 5 747 502 440 538 30 
492 6 684 654 670 133 97 679 
493 8 530 671 603 33 504 274 518 630 
494 9 207 599 691 438 339 729 346 704 455 
495 9 607 125 599 438 494 346 145 721 434 
496 8 552 652 319 547 635 451 523 617 
497 5 628 488 606 95 657 
498 9 532 561 169 527 507 78 524 520 173 
499 9 436 122 337 570 130 167 129 528 396 
500 9 249 111 563 661 375 586 14 640 421 
501 9 382 250 560 700 637 733 485 625 698 
502 7 538 30 491 747 539 668 739 
503 9 577 235 424 124 686 391 508 96 406 
504 9 506 588 741 429 6 518 709 647 493 
505 9 329 565 444 710 559 548 584 731 184 
506 9 741 429 504 6 588 518 709 647 274 
507 9 169 173 532 561 524 498 403 44 78 
508 9 424 66 259 281 357 391 113 503 354 
509 8 374 447 178 320 701 725 594 9 
510 7 517 608 650 439 162 485 698 
511 7 421 740 8 640 369 606 473 
512 6 705 350 184 519 712 548 
513 9 745 600 595 567 580 133 748 255 690 
514 9 480 183 683 11 751 612 621 434 721 
515 5 361 723 16 668 454 
516 9 316 326 275 522 212 219 127 366 220 
517 5 510 608 439 650 162 
518 9 274 429 741 506 653 504 33 493 588 
519 5 548 559 512 184 350 
520 7 435 463 527 707 311 556 574 
521 5 462 441 262 531 719 
522 9 275 326 316 516 220 80 366 119 219 
523 9 635 319 451 496 617 645 652 552 682 
524 9 403 78 169 173 561 532 507 301 160 
525 7 309 486 76 426 578 702 199 
526 5 686 638 96 511 486 
527 9 498 520 561 532 435 78 169 311 707 
528 8 655 478 306 449 130 570 724 659 
529 8 725 644 692 484 551 447 111 302 
530 8 671 630 493 33 714 603 453 540 
531 7 441 262 719 462 676 603 521 
532 9 561 169 498 507 78 524 527 403 173 
533 9 278 743 14 586 546 18 285 140 375 
534 7 708 569 90 460 615 468 619 
535 9 596 598 583 618 152 666 687 730 672 
536 9 614 37 616 28 715 196 45 566 554 
537 9 338 77 271 116 562 185 267 260 179 
538 9 30 502 747 739 491 682 302 706 451 
539 9 230 716 502 430 701 30 668 538 16 
540 6 453 714 90 615 460 630 
541 6 158 425 673 754 633 677 
542 9 128 587 255 637 456 560 579 733 501 
543 5 711 466 302 706 551 
544 9 308 568 575 456 656 733 324 637 250 
545 9 735 102 673 158 541 754 425 677 646 
546 9 533 278 381 489 138 18 743 237 354 
547 5 552 496 319 617 645 
548 5 559 519 512 184 350 
549 9 658 473 740 8 369 686 421 511 526 
550 9 300 392 318 389 222 190 433 117 344 
551 8 644 711 466 543 302 484 529 692 
552 5 496 652 547 635 319 
553 9 448 437 155 744 368 736 633 425 158 
554 9 647 709 605 588 196 6 614 37 504 
555 9 634 680 699 490 604 738 194 98 404 
556 5 574 463 435 311 520 
557 9 161 738 604 270 639 164 294 344 722 
558 9 363 622 728 204 406 348 124 214 36 
559 5 548 519 184 512 464 
560 9 637 501 382 250 700 542 587 733 255 
561 9 532 169 78 498 524 507 527 403 173 
562 8 420 207 77 455 267 663 691 537 
563 9 661 500 111 375 246 285 594 249 586 
564 8 443 465 2 755 469 307 395 573 
565 9 710 444 505 329 731 602 584 629 695 
566 5 715 28 37 196 521 
567 9 513 678 261 595 745 600 471 133 580 
568 9 575 544 308 324 733 456 656 250 637 
569 8 468 708 534 619 713 460 90 615 
570 9 130 436 499 122 337 655 528 397 482 
571 9 13 693 277 215 431 589 148 245 284 
572 8 627 286 420 702 578 651 258 76 
573 8 667 395 624 664 469 579 88 465 
574 5 556 311 435 463 483 
575 9 568 544 733 308 456 250 637 501 382 
576 7 681 704 729 455 651 339 687 
577 9 503 235 124 406 96 686 638 391 424 
578 9 76 702 426 258 309 525 452 627 199 
579 8 88 469 624 664 395 128 580 542 
580 9 595 88 600 745 513 753 255 579 587 
581 9 474 408 296 718 283 243 118 667 132 
582 9 202 3 697 44 314 195 107 592 272 
583 9 152 535 598 666 596 672 618 689 730 
584 9 184 712 350 632 512 679 329 705 519 
585 5 690 748 654 670 133 
586 9 14 375 743 285 278 533 500 140 563 
587 9 255 542 128 637 560 579 748 580 690 
588 9 504 709 647 506 605 6 741 554 429 
589 9 284 182 217 245 571 248 148 13 431 
590 5 646 472 735 102 545 
591 9 143 121 253 229 642 674 428 193 327 
592 9 65 3 202 349 254 582 195 314 110 
593 8 720 669 665 482 168 397 481 648 
594 9 178 246 390 661 563 447 374 725 509 
595 9 600 745 513 580 567 753 88 255 748 
596 8 598 535 618 583 687 152 730 666 
597 9 292 186 742 105 93 380 322 360 103 
598 8 596 535 618 583 152 666 687 730 
599 9 438 346 339 494 721 691 729 704 207 
600 9 745 513 595 580 567 255 748 753 88 
601 6 636 282 157 660 211 467 
602 9 629 404 695 710 731 565 444 194 505 
603 7 719 676 531 493 262 671 441 
604 9 738 557 161 555 634 639 294 699 164 
605 9 647 709 588 554 196 504 676 262 719 
606 5 628 497 488 95 657 
607 9 125 721 434 495 346 438 599 751 454 
608 8 650 439 162 510 517 746 485 625 
609 9 112 45 616 28 445 461 536 641 37 
610 9 536 45 614 616 37 554 28 196 715 
611 7 446 427 413 479 641 461 264 
612 9 621 183 480 683 514 635 440 523 652 
613 9 320 120 387 9 509 362 192 223 390 
614 9 536 37 616 715 196 28 554 566 605 
615 9 90 460 713 619 540 708 453 468 534 
616 9 536 28 614 37 45 715 609 196 566 
617 9 645 451 319 682 706 547 496 523 635 
618 8 596 535 598 687 730 583 152 666 
619 5 713 468 460 90 615 
620 9 432 116 298 338 185 131 179 537 77 
621 7 612 683 183 480 440 514 751 
622 9 558 363 728 348 204 406 124 142 235 
623 6 659 675 724 464 449 306 
624 8 395 664 469 579 667 88 573 753 
625 9 485 746 162 698 700 382 501 685 250 
626 9 236 365 62 36 216 333 359 268 696 
627 8 572 286 420 702 578 651 258 76 
628 5 497 488 606 95 657 
629 9 602 404 695 731 194 710 565 444 159 
630 8 530 671 714 540 453 633 615 90 
631 9 304 581 31 334 345 474 150 186 408 
632 8 679 684 584 712 184 350 159 492 
633 7 425 541 158 754 630 713 155 
634 9 555 680 699 490 604 738 194 98 404 
635 9 523 652 496 319 552 451 547 617 612 
636 6 601 282 660 157 211 467 
637 9 560 501 733 250 382 542 128 587 456 
638 7 96 526 124 686 406 486 577 
639 9 294 161 132 557 118 604 738 718 408 
640 9 657 95 249 421 606 692 628 497 488 
641 7 45 609 446 461 112 479 611 
642 9 428 143 293 379 591 57 674 253 5 
643 9 171 726 457 458 450 211 445 467 112 
644 7 551 484 302 466 529 543 711 
645 9 617 451 319 682 706 547 523 496 635 
646 5 590 472 735 102 545 
647 9 709 605 554 588 504 196 6 676 506 
648 8 688 168 481 593 665 720 732 669 
649 9 27 121 229 144 591 398 156 253 193 
650 7 608 439 162 685 746 510 517 
651 6 455 576 704 729 681 258 
652 7 496 552 635 319 523 547 11 
653 9 274 518 33 429 493 155 741 506 530 
654 3 670 133 492 
655 7 528 130 478 570 306 449 482 
656 9 308 307 544 15 324 568 575 327 2 
657 8 95 640 692 488 628 497 606 249 
658 9 549 686 473 740 489 8 526 369 503 
659 7 724 623 675 464 449 306 478 
660 3 636 601 282 
661 9 563 111 500 249 594 246 725 375 178 
662 9 416 412 252 147 231 384 356 172 248 
663 9 267 207 77 145 494 562 185 691 131 
664 8 624 395 88 667 579 573 753 469 
665 9 168 593 720 475 669 482 397 648 688 
666 9 672 152 730 689 583 694 535 687 470 
667 8 573 664 395 624 88 753 243 469 
668 7 16 515 361 491 723 502 539 
669 7 720 593 482 397 665 481 168 
670 2 654 133 
671 8 530 630 493 714 603 33 453 540 
672 9 689 666 152 694 470 583 730 535 687 
673 8 158 541 425 754 545 102 677 633 
674 9 327 15 143 253 307 428 591 487 642 
675 5 464 623 659 724 306 
676 8 719 262 531 441 462 603 521 605 
677 5 754 468 619 713 102 
678 9 261 471 567 133 513 97 745 595 600 
679 8 632 684 584 712 492 350 184 97 
680 9 634 555 699 194 490 404 98 159 695 
681 7 576 704 729 339 618 687 596 
682 9 706 645 617 451 739 319 302 466 523 
683 9 183 480 514 612 621 751 434 11 440 
684 6 679 632 492 712 97 584 
685 2 162 746 
686 8 526 638 96 577 503 658 124 549 
687 9 730 618 535 666 596 152 598 672 694 
688 8 648 168 22 665 481 593 732 720 
689 9 672 470 666 152 694 583 730 535 687 
690 6 748 585 255 560 133 513 
691 9 729 207 494 455 704 339 599 438 576 
692 9 657 95 529 551 249 640 644 111 488 
693 9 215 277 13 571 409 149 83 431 589 
694 8 672 666 689 730 470 152 687 452 
695 9 731 404 629 159 98 602 444 565 632 
696 9 752 268 62 417 365 331 216 214 286 
697 9 314 582 202 3 83 44 65 592 51 
698 8 485 700 382 625 250 501 746 749 
699 9 490 98 634 680 159 555 717 97 604 
700 9 382 250 698 501 485 625 560 637 733 
701 8 230 539 484 30 447 502 374 538 
702 8 578 76 258 426 452 309 525 627 
703 9 21 50 413 427 180 264 53 393 410 
704 7 729 576 681 339 455 691 651 
705 5 512 350 712 184 439 
706 9 682 617 645 302 739 466 451 319 543 
707 3 520 282 660 
708 8 534 569 90 460 615 468 619 713 
709 9 647 605 588 554 504 6 196 506 676 
710 9 565 444 505 329 731 602 629 695 584 
711 5 543 466 551 488 302 
712 7 350 184 584 705 512 632 679 
713 5 619 468 460 615 90 
714 6 540 453 630 615 90 460 
715 7 37 28 196 566 614 536 616 
716 9 430 230 539 459 16 668 502 701 491 
717 9 97 98 159 490 699 492 684 679 471 
718 9 408 474 296 283 118 243 581 132 294 
719 7 531 676 262 441 462 603 521 
720 8 593 669 482 665 168 397 481 648 
721 9 346 434 751 438 599 339 514 607 683 
722 9 270 344 161 132 345 557 294 118 305 
723 5 361 515 454 440 16 
724 7 659 623 449 306 675 464 478 
725 8 529 447 178 374 692 484 644 111 
726 9 171 450 643 445 211 457 467 157 458 
727 9 208 315 7 343 405 275 366 80 326 
728 9 558 363 622 406 124 204 214 235 348 
729 9 704 691 339 455 576 681 599 438 494 
730 9 687 666 535 618 694 152 672 583 596 
731 9 695 444 565 629 710 329 159 404 632 
732 8 749 698 648 700 688 250 485 382 
733 9 637 250 501 382 575 456 560 700 542 
734 9 226 165 106 23 60 206 414 244 108 
735 8 102 545 646 472 590 677 673 754 
736 9 368 437 744 448 553 155 425 158 633 
737 9 179 260 271 232 367 331 620 89 216 
738 9 604 557 161 555 634 164 639 294 699 
739 9 302 682 706 466 645 30 617 538 451 
740 8 8 473 369 421 511 549 640 658 
741 9 506 429 6 504 518 588 274 709 647 
742 9 105 186 597 322 292 345 360 722 93 
743 9 533 14 586 278 140 285 375 18 546 
744 9 437 368 736 553 448 155 653 33 274 
745 9 600 513 595 580 567 255 748 133 690 
746 7 625 162 485 685 650 608 698 
747 9 538 30 491 523 451 502 682 739 617 
748 6 690 585 255 513 587 560 
749 8 732 698 700 485 648 250 382 510 
750 9 69 138 354 210 259 489 265 237 353 
751 9 434 683 721 183 514 480 346 621 612 
752 9 696 417 268 62 286 365 331 214 199 
753 9 88 580 595 243 664 283 600 745 513 
754 5 541 158 425 677 673 
755 8 564 443 2 465 31 573 307 395 
DEPOT_SECTION
   1
   -1
EOF
