NAME :  X-n876-kX-w87-c7.cctp
COMMENT : 	Adapted by Maziero, Usberti and Cavellucci from the Uchoa, Pecin, Pessoa, Poggi, Subramanian, and Vidal (2013)
TYPE :  CCTP
DIMENSION :    496
EDGE_WEIGHT_TYPE : 	EUC_2D	
CAPACITY : 	764
VERTICES_WITHIN_COVERAGE :  7
VERTICES_WITH_DEMAND : 	87
NODE_COORD_SECTION
1 0 0
2 205 638
3 893 161
4 191 775
5 444 871
6 225 445
7 226 456
8 301 566
9 140 746
10 196 791
11 356 894
12 876 165
13 56 653
14 845 153
15 139 808
16 418 823
17 94 422
18 928 162
19 341 981
20 209 815
21 172 705
22 374 765
23 291 847
24 890 163
25 250 591
26 970 235
27 251 857
28 260 618
29 162 764
30 906 149
31 247 471
32 191 464
33 587 796
34 198 622
35 878 157
36 346 812
37 435 818
38 61 783
39 362 765
40 612 859
41 194 515
42 17 446
43 903 248
44 224 732
45 225 847
46 397 945
47 215 418
48 226 733
49 972 221
50 142 476
51 168 895
52 200 480
53 119 633
54 336 808
55 499 899
56 777 171
57 476 870
58 792 163
59 288 812
60 198 613
61 336 674
62 137 629
63 325 333
64 504 837
65 230 635
66 152 785
67 280 381
68 157 615
69 919 211
70 292 398
71 222 739
72 828 150
73 208 442
74 197 773
75 877 170
76 143 623
77 99 543
78 389 437
79 161 762
80 252 631
81 57 741
82 186 706
83 167 827
84 198 737
85 150 707
86 205 347
87 38 861
88 986 232
89 209 620
90 45 650
91 123 656
92 189 796
93 371 909
94 173 748
95 519 907
96 912 247
97 486 851
98 361 802
99 345 809
100 184 781
101 398 817
102 256 570
103 139 720
104 152 784
105 204 615
106 203 430
107 201 538
108 608 873
109 456 878
110 298 404
111 364 459
112 193 936
113 878 171
114 889 224
115 246 643
116 74 625
117 166 625
118 738 166
119 226 451
120 289 331
121 290 350
122 949 143
123 379 421
124 113 576
125 443 857
126 228 825
127 223 473
128 935 243
129 948 144
130 265 621
131 750 158
132 138 677
133 494 871
134 785 201
135 59 888
136 450 874
137 716 135
138 143 633
139 264 607
140 125 615
141 903 146
142 192 766
143 207 406
144 258 369
145 496 929
146 198 597
147 883 141
148 928 241
149 217 778
150 827 143
151 9 757
152 164 879
153 584 811
154 208 811
155 203 458
156 246 457
157 506 813
158 280 567
159 186 782
160 171 696
161 271 633
162 308 909
163 941 128
164 119 877
165 125 758
166 102 856
167 503 909
168 886 161
169 205 442
170 209 600
171 251 877
172 907 166
173 475 886
174 846 170
175 307 561
176 281 561
177 356 706
178 685 879
179 139 792
180 188 458
181 990 280
182 425 862
183 132 617
184 27 749
185 219 393
186 351 815
187 921 173
188 449 874
189 669 859
190 903 164
191 159 801
192 891 152
193 440 836
194 210 737
195 900 213
196 828 139
197 181 452
198 359 351
199 314 859
200 425 948
201 149 514
202 516 905
203 278 844
204 144 616
205 41 715
206 213 755
207 205 785
208 157 504
209 166 607
210 66 652
211 242 589
212 67 514
213 228 344
214 614 815
215 4 658
216 19 918
217 327 672
218 956 153
219 224 587
220 392 748
221 886 154
222 249 734
223 397 947
224 217 460
225 214 448
226 164 620
227 935 216
228 201 694
229 461 857
230 35 898
231 264 895
232 292 579
233 192 747
234 859 177
235 154 613
236 278 613
237 116 568
238 355 974
239 270 414
240 753 185
241 389 841
242 493 814
243 467 883
244 196 686
245 979 283
246 175 481
247 78 763
248 303 526
249 255 855
250 420 960
251 899 140
252 567 731
253 513 894
254 370 942
255 104 402
256 417 940
257 798 198
258 495 914
259 894 162
260 154 817
261 94 373
262 528 792
263 234 636
264 77 565
265 224 758
266 443 852
267 961 214
268 183 785
269 158 602
270 230 446
271 286 851
272 243 482
273 198 727
274 11 367
275 875 159
276 172 772
277 953 250
278 373 950
279 131 688
280 125 751
281 429 875
282 230 449
283 72 422
284 79 664
285 765 213
286 450 818
287 84 781
288 178 864
289 863 164
290 993 250
291 161 837
292 930 143
293 189 469
294 217 803
295 229 622
296 201 599
297 236 408
298 222 762
299 198 340
300 119 621
301 844 132
302 376 725
303 68 519
304 914 192
305 316 406
306 313 830
307 169 799
308 231 439
309 857 163
310 378 718
311 598 885
312 484 848
313 360 441
314 214 376
315 998 234
316 348 364
317 299 851
318 175 712
319 437 830
320 355 879
321 639 866
322 199 482
323 208 828
324 241 865
325 335 749
326 85 741
327 872 257
328 578 822
329 269 374
330 511 912
331 151 889
332 248 646
333 388 408
334 892 169
335 905 265
336 208 626
337 366 446
338 520 859
339 866 142
340 201 723
341 207 436
342 959 212
343 286 836
344 839 161
345 413 467
346 900 226
347 173 511
348 192 541
349 359 922
350 201 403
351 186 353
352 592 884
353 201 793
354 269 599
355 173 844
356 326 854
357 840 141
358 153 454
359 302 878
360 476 900
361 127 659
362 250 889
363 328 818
364 237 482
365 336 376
366 193 527
367 456 866
368 192 347
369 183 480
370 144 458
371 129 762
372 182 351
373 193 763
374 69 514
375 360 980
376 121 840
377 254 614
378 255 472
379 229 456
380 242 459
381 247 488
382 248 604
383 62 657
384 906 287
385 84 662
386 18 916
387 310 815
388 345 904
389 215 593
390 161 464
391 392 457
392 608 839
393 417 815
394 941 191
395 207 488
396 139 755
397 163 715
398 68 718
399 770 153
400 185 765
401 135 490
402 90 548
403 179 821
404 415 844
405 183 692
406 911 258
407 220 422
408 22 663
409 115 875
410 395 921
411 59 511
412 160 758
413 100 547
414 350 659
415 202 526
416 48 759
417 420 813
418 76 737
419 135 595
420 143 945
421 18 770
422 284 822
423 866 252
424 368 807
425 135 728
426 946 170
427 262 582
428 466 885
429 171 610
430 204 837
431 240 317
432 812 120
433 150 951
434 991 264
435 179 716
436 124 629
437 186 627
438 591 791
439 152 737
440 282 357
441 184 786
442 991 236
443 861 165
444 178 631
445 361 801
446 420 492
447 836 157
448 208 436
449 191 251
450 320 398
451 440 871
452 912 151
453 68 604
454 346 276
455 495 886
456 277 823
457 271 387
458 228 881
459 893 185
460 215 871
461 119 397
462 238 440
463 139 814
464 332 800
465 27 398
466 194 401
467 153 742
468 262 837
469 442 792
470 627 869
471 972 244
472 209 903
473 128 462
474 487 879
475 837 152
476 172 880
477 215 624
478 960 163
479 237 830
480 229 818
481 419 930
482 57 375
483 226 708
484 178 634
485 200 453
486 155 636
487 304 808
488 522 889
489 199 348
490 315 324
491 197 285
492 398 221
493 214 630
494 244 736
495 177 772
496 205 796
DEMAND_SECTION
2 25
3 94
4 71
5 59
6 35
7 5
8 45
9 40
10 6
11 72
12 23
13 93
14 13
15 83
16 26
17 11
18 6
19 91
20 68
21 7
22 75
23 31
24 33
25 86
26 42
27 43
28 77
29 35
30 74
31 37
32 55
33 49
34 18
35 72
36 69
37 72
38 72
39 65
40 51
41 71
42 69
43 23
44 58
45 28
46 91
47 4
48 2
49 62
50 11
51 94
52 1
53 76
54 56
55 21
56 57
57 24
58 95
59 84
60 54
61 6
62 55
63 10
64 87
65 94
66 55
67 42
68 14
69 70
70 79
71 40
72 32
73 1
74 57
75 21
76 78
77 33
78 82
79 8
80 54
81 11
82 49
83 23
84 83
85 26
86 21
87 86
88 83
COVERAGE_SECTION
2 2 336 493 
3 7 259 24 168 334 192 190 221 
4 7 74 100 142 159 373 400 268 
5 7 451 188 136 367 109 125 281 
6 7 270 119 282 308 7 225 379 
7 7 379 119 282 224 6 270 225 
8 4 175 232 158 176 
9 7 396 467 439 280 165 371 425 
10 7 353 92 496 207 159 441 268 
11 4 320 388 93 349 
12 7 75 113 275 35 168 289 24 
13 6 383 210 90 284 385 116 
14 7 475 344 447 357 309 72 174 
15 7 463 179 260 191 66 104 307 
16 6 393 417 37 319 101 404 
17 6 255 283 461 261 473 482 
18 7 187 292 452 426 172 190 30 
19 5 238 375 278 254 349 
20 7 154 323 294 496 480 126 353 
21 6 318 160 397 435 82 405 
22 5 39 220 445 98 302 
23 7 271 317 343 203 199 422 306 
24 7 3 168 259 334 221 192 35 
25 7 211 382 427 139 354 102 377 
26 7 471 49 88 442 267 277 342 
27 7 249 324 171 468 45 203 479 
28 7 130 377 139 80 382 161 236 
29 5 79 412 276 495 94 
30 7 141 452 251 190 192 172 3 
31 6 378 272 380 156 364 381 
32 7 293 180 155 485 197 52 369 
33 7 438 153 328 214 392 262 40 
34 7 60 105 89 336 437 2 477 
35 7 275 12 168 221 24 75 113 
36 7 99 186 54 98 464 363 445 
37 6 319 286 417 16 393 193 
38 4 287 247 416 81 
39 6 22 325 220 445 98 302 
40 7 108 470 392 321 311 352 214 
41 5 366 415 347 107 348 
42 7 465 283 411 274 17 482 212 
43 7 96 406 335 346 148 114 128 
44 7 48 71 194 494 483 206 222 
45 6 479 126 430 324 323 460 
46 6 223 256 410 278 250 254 
47 7 407 143 106 448 341 350 297 
48 7 44 71 194 494 222 265 483 
49 7 267 26 342 88 471 442 315 
50 7 401 370 473 390 358 208 246 
51 6 152 476 331 288 472 112 
52 7 322 395 293 369 32 155 127 
53 7 436 300 62 140 183 91 138 
54 7 99 464 36 363 186 98 445 
55 7 167 455 253 258 202 330 95 
56 7 58 399 240 131 134 257 118 
57 7 474 173 243 133 428 229 367 
58 7 56 399 257 72 134 150 131 
59 6 422 456 487 387 343 306 
60 7 105 34 89 296 146 336 170 
61 2 217 414 
62 7 138 76 183 436 204 53 140 
63 7 490 120 198 121 316 365 440 
64 6 97 312 157 242 338 133 
65 6 263 295 493 115 477 332 
66 7 104 179 191 307 29 276 79 
67 6 457 329 70 440 144 110 
68 7 235 226 209 117 204 269 429 
69 5 227 195 304 346 394 
70 6 110 67 457 305 239 450 
71 7 44 48 194 206 265 494 298 
72 7 150 475 196 447 357 344 14 
73 7 169 341 448 225 106 485 6 
74 7 4 142 373 159 207 400 100 
75 7 113 12 275 35 168 24 289 
76 7 204 62 138 183 235 68 486 
77 5 413 402 237 264 124 
78 7 123 391 337 313 333 111 345 
79 5 29 412 276 94 495 
80 7 115 28 130 332 377 161 263 
81 7 418 416 398 326 247 184 205 
82 6 435 318 21 405 160 228 
83 7 291 403 260 355 191 307 463 
84 5 273 194 233 340 206 
85 7 397 103 21 160 318 425 279 
86 7 489 299 368 351 213 372 314 
87 7 135 230 386 216 166 409 38 
88 7 442 315 26 49 471 290 267 
89 7 336 105 477 34 493 60 2 
90 6 13 383 210 408 284 116 
91 6 361 53 132 436 62 138 
92 7 10 441 353 268 159 100 496 
93 5 349 11 388 410 254 
94 2 412 79 
95 7 202 330 253 167 488 55 258 
96 7 43 406 148 335 128 346 114 
97 6 312 57 133 64 229 474 
98 7 445 424 186 99 36 54 464 
99 7 36 186 54 464 98 445 363 
100 7 159 268 441 4 495 74 276 
101 4 393 16 417 241 
102 3 427 25 158 
103 6 425 85 439 397 9 467 
104 7 66 179 191 29 276 307 79 
105 7 60 89 34 336 477 170 296 
106 5 341 448 169 73 47 
107 4 348 415 366 41 
108 6 40 311 352 470 321 392 
109 6 136 188 243 367 428 5 
110 5 70 305 450 67 239 
111 4 337 313 391 78 
112 4 472 433 51 420 
113 7 75 12 275 168 24 35 334 
114 3 346 195 43 
115 5 332 80 263 65 161 
116 5 453 210 13 383 90 
117 7 226 68 444 484 429 486 235 
118 6 131 240 399 137 56 58 
119 7 282 7 6 270 379 225 224 
120 4 121 440 490 63 
121 6 440 120 329 67 490 144 
122 7 129 218 163 292 478 426 18 
123 6 333 78 313 337 391 111 
124 5 237 419 413 77 402 
125 6 266 5 451 367 136 188 
126 5 480 479 323 20 45 
127 6 224 7 364 379 119 272 
128 7 148 277 96 227 406 43 26 
129 7 122 218 163 292 478 426 18 
130 7 28 161 377 139 236 80 354 
131 6 118 399 240 56 137 58 
132 4 279 361 91 85 
133 7 474 455 57 97 173 312 55 
134 5 257 285 56 240 58 
135 6 230 87 216 386 166 409 
136 6 188 5 109 367 451 125 
137 5 118 131 399 240 56 
138 6 62 76 486 204 183 436 
139 6 354 28 377 130 236 382 
140 7 183 300 436 62 53 204 76 
141 7 30 251 452 192 3 190 259 
142 5 373 400 4 74 495 
143 7 350 47 466 185 407 106 297 
144 4 329 457 67 440 
145 4 258 167 330 55 
146 5 296 170 60 389 105 
147 7 221 192 251 35 339 168 275 
148 7 128 96 406 43 227 277 69 
149 5 207 298 74 265 353 
150 7 196 72 357 475 447 301 14 
151 6 421 184 416 81 205 38 
152 6 476 51 331 288 355 291 
153 6 328 33 438 214 392 40 
154 7 20 294 496 323 353 480 10 
155 7 485 32 224 180 225 169 73 
156 5 380 31 378 379 282 
157 3 242 64 262 
158 5 176 232 8 427 102 
159 7 100 268 441 4 10 495 74 
160 7 21 405 318 82 397 435 85 
161 4 130 28 80 236 
162 4 359 388 231 11 
163 5 122 129 292 218 18 
164 6 409 166 331 376 152 51 
165 4 371 280 396 9 
166 7 409 376 164 135 463 331 15 
167 7 258 330 55 202 95 253 145 
168 7 24 3 221 259 35 192 334 
169 7 73 341 448 225 106 485 155 
170 6 296 389 146 105 60 89 
171 7 362 324 27 231 249 458 460 
172 6 190 259 3 334 187 452 
173 5 243 428 360 474 57 
174 6 344 309 234 443 447 14 
175 5 8 232 176 158 248 
176 4 158 8 232 175 
177 5 310 302 61 217 414 
178 7 189 321 470 40 108 311 392 
179 7 66 104 15 191 463 260 307 
180 7 32 197 293 485 155 169 369 
181 7 245 434 290 471 442 315 88 
182 4 281 451 125 5 
183 7 140 204 62 76 300 436 138 
184 7 151 416 421 81 205 38 418 
185 6 143 314 350 297 47 466 
186 7 36 99 98 54 445 424 363 
187 6 18 172 190 304 452 426 
188 6 136 5 109 451 367 125 
189 7 178 321 470 40 108 392 214 
190 7 172 259 3 334 24 30 452 
191 7 307 66 260 104 15 179 463 
192 7 221 3 168 259 24 141 35 
193 5 319 266 37 125 286 
194 7 71 84 44 48 273 340 206 
195 3 346 114 69 
196 7 150 72 357 475 301 447 14 
197 5 180 32 293 485 155 
198 5 316 365 63 490 450 
199 6 356 317 359 23 271 306 
200 5 256 250 481 46 223 
201 4 208 347 401 50 
202 7 95 330 253 167 488 55 258 
203 7 271 343 23 468 456 317 422 
204 7 76 235 183 68 62 138 140 
205 4 398 81 184 418 
206 4 265 298 71 194 
207 6 353 10 496 74 149 4 
208 5 201 347 401 246 50 
209 5 429 269 68 226 235 
210 6 383 13 284 90 385 116 
211 6 25 382 219 427 102 389 
212 6 374 303 411 402 77 413 
213 4 86 489 299 431 
214 7 392 153 33 438 328 40 470 
215 4 408 90 13 383 
216 5 386 230 135 87 166 
217 2 61 414 
218 7 478 122 129 426 292 18 163 
219 6 389 211 170 25 296 146 
220 4 22 302 310 39 
221 7 192 168 35 3 24 259 275 
222 4 494 48 44 71 
223 6 46 256 278 250 410 254 
224 7 7 225 119 379 127 155 6 
225 7 73 6 169 119 224 448 7 
226 7 117 68 235 429 209 444 486 
227 6 69 342 148 267 394 128 
228 5 244 405 82 340 483 
229 7 367 125 266 57 136 188 5 
230 5 386 135 216 87 166 
231 5 362 171 324 458 27 
232 4 8 158 176 175 
233 3 84 373 94 
234 6 443 289 309 174 75 113 
235 7 68 204 226 269 209 76 117 
236 5 130 139 354 28 161 
237 4 124 413 77 402 
238 6 375 19 278 254 223 46 
239 2 70 457 
240 7 118 131 56 285 134 399 58 
241 3 101 404 16 
242 2 157 64 
243 4 428 173 109 57 
244 3 228 405 82 
245 6 181 434 290 471 277 26 
246 7 369 293 390 32 322 52 180 
247 4 287 326 38 418 
248 2 175 8 
249 7 27 324 468 171 203 45 271 
250 5 200 256 223 46 481 
251 7 141 30 192 147 452 221 3 
252 4 438 33 262 153 
253 7 488 202 95 55 167 330 455 
254 6 278 349 46 223 93 410 
255 5 461 17 261 283 482 
256 5 481 200 250 46 223 
257 3 134 56 58 
258 5 167 145 55 330 202 
259 7 3 24 334 168 190 192 221 
260 7 463 83 15 191 291 307 403 
261 5 255 461 482 17 283 
262 3 157 242 64 
263 7 65 115 295 332 80 493 477 
264 4 402 413 77 124 
265 5 298 206 71 149 48 
266 5 125 193 5 229 367 
267 6 342 49 26 227 394 88 
268 7 441 100 159 4 92 10 495 
269 5 209 235 68 429 226 
270 7 282 6 119 308 379 462 7 
271 7 23 203 317 343 468 199 422 
272 5 364 381 31 378 127 
273 6 340 84 194 233 435 82 
274 7 465 482 42 283 261 255 17 
275 7 35 12 75 168 113 221 289 
276 6 495 29 79 100 400 159 
277 7 128 471 26 148 49 267 88 
278 6 254 223 46 238 349 375 
279 5 132 85 361 91 103 
280 5 165 371 396 9 425 
281 4 451 182 5 188 
282 7 270 119 6 379 7 308 462 
283 7 17 255 482 465 461 261 42 
284 4 385 210 383 13 
285 4 134 240 257 56 
286 3 37 319 193 
287 2 247 38 
288 6 476 152 355 291 51 331 
289 7 443 309 12 275 234 75 35 
290 7 434 442 315 88 471 26 181 
291 6 83 355 260 403 288 463 
292 7 129 18 122 163 452 30 141 
293 7 32 180 369 52 322 155 246 
294 6 154 20 496 353 480 207 
295 7 65 477 263 493 89 336 80 
296 5 146 170 60 389 105 
297 3 407 47 185 
298 4 265 206 149 71 
299 7 489 368 86 351 372 213 314 
300 7 140 436 53 183 62 76 204 
301 6 357 196 150 14 475 72 
302 5 310 177 220 22 39 
303 6 212 374 411 402 77 413 
304 4 69 187 459 195 
305 4 450 110 70 365 
306 7 387 363 487 317 356 23 343 
307 7 191 92 268 441 66 100 104 
308 7 270 462 6 282 119 379 7 
309 7 443 289 174 234 14 275 344 
310 5 302 177 220 22 39 
311 4 352 108 40 470 
312 6 97 57 64 133 229 474 
313 4 337 111 123 78 
314 5 185 86 350 143 466 
315 7 442 88 290 26 471 49 434 
316 5 198 365 63 450 490 
317 7 23 271 199 343 203 306 356 
318 6 435 21 397 82 160 405 
319 5 193 37 286 16 266 
320 4 11 388 93 356 
321 7 470 40 189 108 392 311 178 
322 7 52 395 293 369 32 155 246 
323 7 430 20 154 126 480 45 294 
324 7 27 171 249 458 45 362 460 
325 2 39 22 
326 3 418 247 81 
327 4 423 43 335 114 
328 6 153 33 392 438 214 40 
329 5 144 67 457 440 121 
330 7 95 167 202 258 55 253 145 
331 6 152 51 476 164 288 409 
332 5 115 80 263 65 161 
333 5 123 78 313 337 391 
334 7 24 259 3 168 190 113 75 
335 6 406 43 96 384 148 327 
336 7 89 477 493 34 2 105 60 
337 5 313 111 78 123 391 
338 5 64 133 488 97 253 
339 6 147 35 275 289 221 309 
340 6 273 84 194 82 435 44 
341 7 448 73 169 106 225 485 407 
342 6 267 49 227 26 394 88 
343 7 203 23 422 271 456 317 59 
344 7 447 475 14 174 72 309 357 
345 6 391 446 78 111 337 123 
346 5 114 195 43 69 96 
347 7 208 41 201 366 246 369 415 
348 4 107 366 415 41 
349 5 93 254 388 11 278 
350 6 143 466 47 185 106 407 
351 5 372 368 489 299 86 
352 4 311 108 40 470 
353 7 10 496 207 92 441 154 159 
354 6 139 236 427 25 28 377 
355 6 291 83 288 403 430 260 
356 6 199 306 317 359 23 363 
357 7 301 475 196 14 150 72 447 
358 6 370 390 50 473 197 180 
359 6 199 317 271 162 23 356 
360 4 173 428 243 55 
361 6 91 132 53 279 436 138 
362 7 171 231 458 324 27 249 460 
363 7 54 387 464 36 99 306 186 
364 5 272 381 31 127 378 
365 5 316 450 198 305 63 
366 4 415 41 107 348 
367 7 136 229 188 109 5 125 451 
368 6 489 351 299 372 86 213 
369 7 246 293 322 52 32 180 395 
370 7 358 473 50 390 401 197 246 
371 4 165 280 396 9 
372 5 351 368 489 299 86 
373 4 142 400 74 4 
374 6 212 303 411 402 77 413 
375 6 238 19 278 254 223 46 
376 7 166 463 409 15 164 260 291 
377 7 28 139 382 130 80 354 25 
378 6 31 272 156 380 381 364 
379 7 7 119 282 270 6 224 380 
380 6 156 31 379 7 282 119 
381 4 272 364 31 378 
382 7 377 25 139 211 28 354 130 
383 6 210 13 90 284 385 116 
384 4 335 406 43 96 
385 4 284 210 383 13 
386 5 216 230 135 87 166 
387 7 487 306 363 59 54 422 464 
388 5 11 349 93 320 162 
389 6 170 219 296 146 105 60 
390 7 358 370 50 246 197 369 180 
391 6 78 345 111 337 313 123 
392 7 40 214 108 328 470 153 321 
393 6 417 16 37 101 319 404 
394 6 426 227 187 304 342 69 
395 4 322 52 127 369 
396 7 9 371 165 280 467 412 439 
397 4 318 21 85 435 
398 4 418 81 205 326 
399 7 56 131 58 118 240 134 257 
400 4 142 373 495 4 
401 5 50 208 201 473 370 
402 6 77 413 264 237 124 303 
403 7 83 291 307 355 260 92 191 
404 3 16 182 193 
405 6 160 82 244 21 228 318 
406 6 335 96 43 148 128 384 
407 7 47 448 106 341 308 143 297 
408 4 215 90 13 383 
409 6 164 166 376 331 152 51 
410 1 46 
411 5 212 374 303 402 77 
412 5 79 29 94 467 276 
413 5 77 402 237 264 124 
414 3 61 217 177 
415 4 366 107 41 348 
416 7 81 184 38 247 421 418 151 
417 6 393 16 37 101 319 193 
418 4 326 81 398 247 
419 6 140 183 204 269 235 76 
420 4 433 112 51 331 
421 7 151 184 416 38 81 205 247 
422 7 456 59 343 203 487 23 387 
423 3 327 114 43 
424 6 98 445 186 36 99 54 
425 6 103 9 439 467 280 85 
426 6 478 18 218 394 187 129 
427 5 102 25 354 211 158 
428 4 243 173 109 57 
429 5 209 226 68 269 117 
430 6 323 20 45 154 126 403 
431 4 213 86 299 120 
432 3 196 150 72 
433 4 420 112 51 331 
434 7 290 181 245 442 471 315 88 
435 6 318 82 21 397 160 273 
436 7 53 300 62 140 183 138 76 
437 7 444 484 34 60 117 2 105 
438 7 33 153 214 328 392 262 252 
439 3 467 9 425 
440 5 121 329 67 120 144 
441 7 268 159 100 92 4 10 495 
442 7 88 315 290 26 471 49 434 
443 7 289 309 234 12 275 174 75 
444 6 484 437 117 226 34 429 
445 7 98 424 186 99 36 54 464 
446 4 345 391 78 111 
447 7 344 475 14 72 174 357 150 
448 7 341 73 169 106 225 407 6 
449 5 491 431 299 368 86 
450 5 305 110 365 70 67 
451 7 5 188 136 281 125 109 182 
452 7 30 141 172 190 251 18 292 
453 4 116 264 210 13 
454 6 490 63 198 492 120 316 
455 7 474 55 133 173 253 167 360 
456 5 422 59 343 203 468 
457 5 67 329 144 70 239 
458 7 460 324 171 362 472 27 45 
459 3 334 113 24 
460 6 458 45 324 472 171 430 
461 4 255 17 261 283 
462 5 308 270 282 6 119 
463 7 15 260 179 191 83 66 291 
464 7 54 99 36 363 186 387 98 
465 7 274 482 42 283 17 261 255 
466 4 350 143 185 47 
467 3 439 9 412 
468 5 203 249 456 27 343 
469 1 37 
470 7 321 40 108 311 392 352 189 
471 7 26 88 277 442 290 49 315 
472 6 458 460 112 51 362 476 
473 7 370 50 358 401 390 208 246 
474 7 133 455 57 173 243 428 55 
475 7 447 14 72 344 357 150 196 
476 6 152 51 288 331 355 291 
477 7 493 89 336 105 295 2 34 
478 5 218 426 129 122 18 
479 3 126 480 45 
480 4 126 479 294 20 
481 4 256 200 410 46 
482 7 261 465 274 283 255 17 461 
483 4 44 48 228 340 
484 5 444 437 117 226 34 
485 7 155 169 180 32 73 225 224 
486 5 138 117 76 226 62 
487 7 387 59 306 422 363 464 456 
488 6 253 202 95 55 330 455 
489 7 86 368 299 351 372 213 314 
490 6 63 120 121 440 198 316 
491 5 449 431 299 368 86 
492 4 454 490 63 198 
493 7 477 336 89 2 65 295 34 
494 4 222 48 44 71 
495 6 276 100 400 159 4 268 
496 7 353 10 207 294 154 92 20 
DEPOT_SECTION
   1
   -1
EOF
