NAME :  X-n819-kX-w81-c7.cctp
COMMENT : 	Adapted by Maziero, Usberti and Cavellucci from the Uchoa, Pecin, Pessoa, Poggi, Subramanian, and Vidal (2013)
TYPE :  CCTP
DIMENSION :    472
EDGE_WEIGHT_TYPE : 	EUC_2D	
CAPACITY : 	358
VERTICES_WITHIN_COVERAGE :  7
VERTICES_WITH_DEMAND : 	81
NODE_COORD_SECTION
1 500 500
2 174 325
3 49 34
4 543 815
5 42 920
6 545 80
7 681 950
8 664 944
9 61 68
10 609 259
11 116 500
12 482 911
13 708 930
14 93 57
15 642 940
16 487 619
17 511 63
18 330 52
19 529 831
20 586 862
21 503 839
22 713 994
23 28 939
24 9 111
25 203 347
26 31 115
27 414 352
28 521 982
29 121 304
30 600 26
31 506 772
32 624 39
33 205 328
34 218 104
35 22 959
36 657 188
37 72 978
38 434 815
39 487 107
40 22 987
41 599 870
42 201 402
43 726 961
44 51 7
45 35 922
46 182 331
47 577 233
48 672 906
49 485 852
50 543 849
51 574 991
52 120 166
53 592 877
54 422 762
55 26 695
56 52 953
57 673 848
58 66 393
59 165 162
60 824 928
61 462 135
62 520 759
63 25 807
64 483 808
65 600 549
66 196 76
67 420 719
68 348 480
69 531 837
70 157 347
71 273 259
72 526 18
73 373 29
74 39 211
75 398 49
76 451 211
77 693 949
78 518 106
79 451 981
80 629 687
81 731 830
82 599 866
83 102 404
84 601 864
85 467 217
86 62 8
87 532 256
88 57 914
89 640 193
90 502 823
91 197 59
92 4 824
93 439 838
94 543 808
95 51 34
96 94 672
97 55 46
98 420 46
99 186 414
100 482 816
101 537 858
102 703 953
103 74 352
104 496 834
105 660 886
106 650 963
107 446 971
108 752 955
109 511 904
110 411 5
111 53 168
112 495 777
113 201 317
114 531 985
115 654 903
116 634 953
117 612 71
118 334 119
119 35 956
120 593 840
121 23 813
122 49 38
123 162 152
124 297 479
125 627 78
126 79 48
127 711 905
128 509 839
129 693 913
130 95 965
131 29 145
132 674 900
133 418 225
134 501 68
135 546 820
136 683 948
137 571 205
138 553 9
139 672 129
140 908 170
141 514 130
142 459 856
143 467 859
144 494 844
145 106 523
146 726 969
147 497 414
148 85 39
149 52 978
150 521 99
151 704 952
152 197 150
153 307 273
154 602 256
155 111 139
156 657 898
157 438 983
158 179 381
159 510 735
160 586 48
161 663 907
162 210 315
163 503 313
164 541 34
165 415 220
166 67 86
167 500 94
168 490 62
169 181 316
170 179 85
171 95 82
172 411 740
173 474 811
174 480 939
175 7 927
176 115 40
177 185 356
178 707 856
179 45 961
180 435 96
181 68 71
182 590 866
183 678 960
184 105 300
185 488 850
186 524 833
187 688 857
188 556 998
189 639 513
190 535 534
191 193 52
192 509 765
193 41 119
194 170 171
195 79 975
196 139 193
197 553 62
198 65 0
199 822 866
200 669 895
201 204 332
202 163 344
203 493 780
204 687 988
205 723 938
206 133 299
207 838 996
208 747 957
209 685 953
210 34 141
211 173 354
212 237 260
213 689 665
214 624 724
215 238 451
216 451 753
217 540 26
218 48 70
219 58 59
220 78 51
221 429 830
222 304 71
223 702 1000
224 695 79
225 142 327
226 90 319
227 572 857
228 552 866
229 473 856
230 183 84
231 518 746
232 694 842
233 715 979
234 690 911
235 671 971
236 157 358
237 560 81
238 534 40
239 50 965
240 137 291
241 72 4
242 61 941
243 0 670
244 525 819
245 653 935
246 762 807
247 596 837
248 199 342
249 229 317
250 198 350
251 727 827
252 196 105
253 169 341
254 65 415
255 687 953
256 597 972
257 158 345
258 168 332
259 499 805
260 539 750
261 688 899
262 172 491
263 369 479
264 505 783
265 473 946
266 129 174
267 44 120
268 484 88
269 275 224
270 386 351
271 761 965
272 418 252
273 33 233
274 270 216
275 90 999
276 580 870
277 487 213
278 174 502
279 752 26
280 489 858
281 563 88
282 749 944
283 568 369
284 612 959
285 601 848
286 645 972
287 200 307
288 63 913
289 703 818
290 727 924
291 465 800
292 11 954
293 24 106
294 144 326
295 545 810
296 381 237
297 376 828
298 61 589
299 24 440
300 4 968
301 519 601
302 159 419
303 689 943
304 193 365
305 660 952
306 126 365
307 652 954
308 176 182
309 266 261
310 527 817
311 564 87
312 497 765
313 483 865
314 50 230
315 689 955
316 534 35
317 295 209
318 540 822
319 517 26
320 538 79
321 599 3
322 45 0
323 703 930
324 707 633
325 490 107
326 163 88
327 583 628
328 474 789
329 9 943
330 413 80
331 743 800
332 494 869
333 183 312
334 894 879
335 566 275
336 35 927
337 152 359
338 566 201
339 237 261
340 664 667
341 467 937
342 144 327
343 92 296
344 63 83
345 340 435
346 431 52
347 234 263
348 161 343
349 556 90
350 246 413
351 422 731
352 626 53
353 509 746
354 743 851
355 520 46
356 63 807
357 704 940
358 671 909
359 649 861
360 161 352
361 8 93
362 456 852
363 541 805
364 713 907
365 705 942
366 118 327
367 402 539
368 783 822
369 487 201
370 581 876
371 39 795
372 604 984
373 706 947
374 229 339
375 533 973
376 738 836
377 0 139
378 130 325
379 26 364
380 853 961
381 695 995
382 1 405
383 142 302
384 484 875
385 499 18
386 698 178
387 576 208
388 550 819
389 461 796
390 546 805
391 93 132
392 48 0
393 648 844
394 35 957
395 70 204
396 91 1000
397 659 627
398 197 355
399 643 157
400 297 284
401 7 211
402 533 136
403 548 625
404 715 919
405 491 40
406 452 801
407 694 940
408 823 947
409 462 123
410 506 826
411 531 827
412 188 88
413 655 42
414 124 310
415 44 925
416 381 213
417 65 691
418 219 340
419 611 651
420 522 748
421 236 388
422 671 852
423 637 21
424 630 923
425 506 74
426 840 991
427 553 816
428 902 947
429 680 942
430 183 310
431 16 909
432 745 841
433 174 323
434 792 924
435 642 135
436 251 48
437 509 90
438 574 870
439 86 444
440 594 200
441 102 646
442 278 137
443 543 833
444 316 283
445 40 828
446 676 214
447 546 814
448 300 72
449 63 228
450 46 24
451 692 956
452 570 963
453 207 354
454 794 926
455 692 925
456 726 947
457 36 904
458 0 507
459 577 986
460 529 574
461 545 845
462 663 944
463 506 93
464 649 937
465 794 915
466 402 111
467 433 838
468 261 258
469 248 400
470 51 910
471 96 62
472 666 855
DEMAND_SECTION
2 89
3 59
4 53
5 85
6 95
7 66
8 70
9 84
10 68
11 96
12 87
13 77
14 65
15 88
16 75
17 84
18 92
19 75
20 77
21 55
22 64
23 60
24 71
25 80
26 79
27 61
28 100
29 62
30 92
31 60
32 55
33 52
34 65
35 73
36 81
37 97
38 75
39 76
40 87
41 99
42 78
43 50
44 70
45 89
46 98
47 84
48 59
49 63
50 62
51 88
52 61
53 77
54 70
55 76
56 77
57 59
58 53
59 54
60 74
61 81
62 59
63 79
64 78
65 95
66 51
67 69
68 73
69 78
70 59
71 86
72 63
73 97
74 51
75 77
76 99
77 76
78 68
79 77
80 65
81 87
82 62
COVERAGE_SECTION
2 7 433 258 46 169 333 253 430 
3 4 95 122 450 97 
4 7 447 295 135 94 318 388 363 
5 6 415 45 336 470 88 457 
6 6 320 237 349 197 281 311 
7 7 136 209 255 429 315 183 303 
8 7 462 305 245 307 429 464 7 
9 6 181 219 218 344 166 97 
10 6 154 47 335 387 440 137 
11 5 145 262 278 439 302 
12 6 174 109 341 265 384 332 
13 7 323 357 365 404 205 373 407 
14 7 471 220 126 148 171 176 181 
15 7 464 245 116 307 424 462 8 
16 3 301 403 460 
17 5 134 425 355 168 437 
18 6 222 448 73 118 75 436 
19 7 411 186 69 244 310 318 443 
20 7 182 276 82 438 41 84 227 
21 7 128 104 144 410 90 185 49 
22 6 223 233 381 204 146 43 
23 7 336 45 119 329 394 35 415 
24 7 293 361 26 377 193 267 131 
25 7 248 250 453 398 201 418 33 
26 7 193 293 267 24 210 131 361 
27 4 270 163 272 147 
28 5 114 375 188 452 51 
29 7 414 206 184 240 383 366 378 
30 4 321 160 32 352 
31 6 192 264 312 112 203 62 
32 7 352 423 30 413 117 125 160 
33 7 201 113 162 248 418 25 287 
34 7 252 412 66 230 170 91 152 
35 7 292 119 394 300 23 329 179 
36 5 89 446 399 386 435 
37 6 195 149 130 239 275 396 
38 7 221 406 467 93 389 291 173 
39 4 325 167 268 463 
40 7 300 35 149 394 119 179 292 
41 7 82 84 53 182 20 276 370 
42 4 99 158 304 421 
43 7 146 456 208 233 205 102 151 
44 6 392 322 86 198 450 241 
45 7 336 5 415 23 457 470 88 
46 7 2 433 258 169 253 333 248 
47 7 387 137 154 338 440 10 335 
48 7 358 132 161 200 156 261 115 
49 7 185 280 144 229 313 143 332 
50 6 461 101 443 69 228 19 
51 6 459 188 452 256 372 114 
52 6 266 155 196 391 123 59 
53 7 41 182 370 82 276 20 84 
54 5 172 216 351 67 406 
55 7 243 417 96 441 371 63 298 
56 7 179 239 242 119 394 149 23 
57 6 422 472 187 232 393 359 
58 6 254 83 103 379 439 299 
59 7 123 194 308 152 266 196 52 
60 5 408 454 434 465 380 
61 4 409 39 325 180 
62 6 420 192 231 353 31 260 
63 5 121 371 445 92 356 
64 7 100 173 259 291 328 90 389 
65 6 189 190 460 327 403 301 
66 6 412 230 91 170 191 252 
67 4 351 172 54 216 
68 4 263 345 124 367 
69 7 19 186 411 443 461 50 318 
70 7 257 348 360 202 236 253 337 
71 7 309 468 269 400 212 339 153 
72 7 319 217 316 164 238 385 138 
73 7 75 110 18 98 346 330 222 
74 5 314 273 449 395 401 
75 6 98 73 346 330 110 180 
76 6 85 133 277 165 369 272 
77 7 255 303 315 451 209 407 136 
78 7 150 437 463 167 141 325 39 
79 5 107 157 265 341 174 
80 5 214 340 419 213 397 
81 7 251 376 432 354 289 331 178 
82 7 84 41 182 53 20 285 276 
83 4 58 254 439 306 
84 6 82 41 182 20 53 285 
85 5 76 277 369 133 165 
86 7 198 44 241 392 322 450 95 
87 5 335 47 277 137 163 
88 4 288 470 5 415 
89 4 36 399 446 440 
90 7 410 104 21 128 259 100 144 
91 6 191 66 230 412 170 326 
92 4 121 63 445 371 
93 7 467 221 362 38 142 143 229 
94 6 295 363 390 4 447 135 
95 4 3 122 450 97 
96 5 441 417 55 298 243 
97 4 122 3 95 219 
98 6 346 75 330 110 73 180 
99 3 42 302 158 
100 7 64 173 259 90 104 291 410 
101 6 50 461 228 69 443 19 
102 7 151 373 77 365 451 357 315 
103 4 226 58 379 366 
104 7 21 144 90 410 128 185 49 
105 6 156 200 115 132 161 48 
106 7 307 286 305 116 235 462 8 
107 4 79 157 265 341 
108 6 208 282 271 43 456 146 
109 1 12 
110 6 98 73 75 346 330 405 
111 4 131 210 395 74 
112 5 203 31 264 312 192 
113 7 162 287 33 201 333 430 169 
114 6 28 375 188 51 452 459 
115 6 156 161 200 48 105 358 
116 7 15 307 106 286 464 284 245 
117 4 125 352 32 160 
118 4 222 448 442 18 
119 7 394 179 35 56 239 23 292 
120 3 247 285 20 
121 5 63 92 445 371 356 
122 4 3 95 97 450 
123 7 59 194 308 152 266 52 196 
124 4 68 345 215 263 
125 4 117 352 32 413 
126 7 220 148 14 471 97 219 181 
127 6 364 404 129 234 261 13 
128 7 21 410 104 144 186 90 19 
129 7 234 455 261 127 323 364 48 
130 3 195 37 275 
131 6 210 193 267 26 377 111 
132 7 48 200 358 161 261 156 234 
133 6 165 272 76 296 416 85 
134 3 425 17 168 
135 7 388 4 318 447 427 295 94 
136 7 7 209 255 429 303 315 77 
137 4 338 387 440 47 
138 4 217 72 164 316 
139 6 435 399 224 386 36 125 
140 6 386 279 224 446 139 36 
141 5 402 78 150 325 39 
142 7 362 143 229 49 313 93 185 
143 7 229 142 362 313 49 280 185 
144 7 185 21 104 49 280 128 90 
145 5 11 278 262 298 439 
146 7 43 233 456 208 22 102 151 
147 6 283 163 27 190 270 263 
148 5 126 220 14 471 176 
149 7 239 179 37 56 195 394 119 
150 7 78 437 463 167 320 425 6 
151 7 102 373 365 77 357 451 315 
152 7 59 194 123 308 252 34 412 
153 6 444 400 71 309 468 269 
154 6 10 47 335 387 440 137 
155 3 391 52 266 
156 6 115 161 105 200 48 132 
157 3 79 107 265 
158 4 304 177 211 42 
159 5 353 231 420 62 192 
160 1 30 
161 6 358 48 115 156 132 200 
162 7 113 287 33 201 249 333 418 
163 6 87 335 283 27 147 277 
164 4 316 217 238 72 
165 6 133 272 416 76 296 85 
166 5 344 181 9 218 171 
167 5 463 437 325 268 39 
168 3 134 425 17 
169 7 333 430 433 2 46 113 258 
170 6 230 412 326 66 252 91 
171 4 471 14 166 181 
172 4 351 67 54 216 
173 7 64 100 291 389 328 406 259 
174 6 265 341 12 107 109 79 
175 6 329 431 23 292 45 336 
176 3 14 471 148 
177 6 211 304 398 250 25 248 
178 6 187 232 57 81 251 354 
179 7 239 56 119 394 149 35 242 
180 5 330 466 409 346 61 
181 6 9 344 166 219 218 220 
182 7 20 82 41 53 84 276 370 
183 7 7 209 255 315 136 235 451 
184 6 343 29 414 226 206 366 
185 7 49 144 280 229 313 104 21 
186 7 19 69 411 244 128 310 318 
187 7 232 57 422 178 472 359 105 
188 6 51 459 114 375 28 452 
189 5 65 190 397 460 327 
190 6 460 65 301 403 16 189 
191 5 91 66 230 170 412 
192 7 31 312 62 112 264 353 231 
193 5 267 26 293 210 131 
194 7 59 308 123 152 196 266 52 
195 6 37 130 275 149 396 239 
196 6 266 52 194 308 59 123 
197 2 6 237 
198 6 241 86 44 392 322 450 
199 5 465 368 60 434 454 
200 6 132 48 156 105 161 358 
201 7 33 248 25 113 418 162 250 
202 7 348 257 70 253 360 258 211 
203 5 112 264 31 312 328 
204 5 381 223 235 22 183 
205 7 456 290 13 365 357 373 404 
206 6 240 383 29 414 378 184 
207 4 426 380 408 60 
208 6 108 282 271 43 456 146 
209 7 255 315 7 136 451 77 183 
210 5 131 193 267 26 111 
211 7 177 360 202 253 236 348 70 
212 5 339 347 468 309 71 
213 4 340 324 397 80 
214 1 80 
215 3 350 469 42 
216 3 54 351 172 
217 6 164 316 238 72 138 319 
218 2 9 219 
219 4 9 97 218 181 
220 7 126 148 14 471 181 219 9 
221 7 467 93 38 362 406 142 291 
222 6 448 18 118 436 442 73 
223 5 381 22 204 233 146 
224 7 413 139 125 352 435 279 32 
225 7 294 342 378 257 366 70 348 
226 4 343 184 366 29 
227 7 438 20 276 182 370 228 120 
228 6 101 50 227 438 461 276 
229 7 143 49 313 142 185 280 362 
230 6 170 412 66 326 252 91 
231 7 420 353 62 159 192 260 312 
232 7 187 178 57 422 289 472 251 
233 7 22 146 43 223 381 102 151 
234 7 129 261 455 48 132 358 127 
235 6 183 106 305 7 204 209 
236 7 337 360 70 257 202 211 348 
237 5 311 281 349 6 197 
238 6 316 164 217 355 319 72 
239 7 179 56 149 119 394 37 242 
240 5 206 383 29 414 184 
241 5 198 86 44 392 322 
242 2 56 415 
243 7 55 417 96 298 441 371 63 
244 6 310 411 19 186 318 4 
245 7 464 15 462 8 305 307 116 
246 6 331 368 376 432 81 251 
247 3 120 285 20 
248 7 25 250 201 398 453 33 46 
249 4 162 374 418 33 
250 7 398 25 248 453 177 304 201 
251 7 81 376 432 289 354 331 178 
252 7 412 34 230 170 66 326 152 
253 7 202 348 258 257 70 211 360 
254 5 58 439 83 299 103 
255 7 209 315 136 451 7 77 303 
256 5 372 284 459 452 51 
257 7 70 348 202 360 253 236 337 
258 7 2 253 433 202 348 46 257 
259 5 64 90 100 410 264 
260 4 420 62 231 353 
261 7 234 132 129 48 200 358 127 
262 2 278 11 
263 4 68 345 367 124 
264 5 31 112 203 192 312 
265 6 174 341 12 107 79 157 
266 7 52 196 59 155 123 194 308 
267 5 193 26 210 293 131 
268 3 167 39 325 
269 5 274 317 71 468 309 
270 1 27 
271 4 108 208 282 43 
272 6 133 165 296 76 416 85 
273 4 314 74 449 401 
274 4 269 317 71 468 
275 5 396 195 37 130 149 
276 7 370 438 20 182 53 227 41 
277 3 369 85 76 
278 3 262 11 145 
279 6 224 413 423 32 352 139 
280 7 49 185 313 332 144 229 384 
281 4 311 349 237 6 
282 6 108 208 456 271 205 43 
283 6 147 163 335 10 154 87 
284 6 256 116 372 286 15 106 
285 4 120 247 84 82 
286 6 106 307 116 305 235 15 
287 7 113 162 430 333 169 33 201 
288 3 88 470 5 
289 7 232 251 81 178 376 57 187 
290 4 404 205 13 364 
291 5 389 406 173 328 64 
292 7 329 35 300 23 119 394 175 
293 5 26 24 193 361 267 
294 7 342 225 378 257 348 383 70 
295 7 94 447 4 390 363 135 388 
296 5 416 165 133 272 76 
297 5 221 467 38 93 54 
298 7 441 145 96 243 417 458 11 
299 7 382 254 439 58 458 379 83 
300 7 292 35 329 40 119 394 23 
301 5 460 16 403 190 327 
302 3 99 158 42 
303 7 407 77 136 429 255 7 209 
304 5 398 177 250 453 25 
305 7 307 8 462 106 245 464 183 
306 6 337 236 70 360 257 366 
307 7 305 106 462 8 15 464 116 
308 6 194 59 123 152 196 266 
309 7 468 71 212 339 347 269 400 
310 5 244 411 19 318 4 
311 4 281 237 349 6 
312 6 31 112 192 203 264 353 
313 7 280 384 332 49 229 185 143 
314 4 449 273 74 395 
315 7 255 451 209 77 7 136 183 
316 6 238 164 217 355 72 319 
317 4 269 274 71 309 
318 7 135 4 388 411 447 443 295 
319 7 72 316 355 385 238 217 164 
320 7 6 349 237 197 150 281 311 
321 5 30 423 32 138 160 
322 6 392 44 86 198 450 241 
323 7 13 357 365 455 407 404 373 
324 5 213 397 340 80 419 
325 5 39 167 268 463 437 
326 4 170 230 412 66 
327 4 403 419 301 80 
328 4 291 389 64 203 
329 7 292 175 23 35 300 119 394 
330 6 180 346 466 75 98 73 
331 5 246 251 81 376 432 
332 6 280 313 384 49 185 144 
333 7 430 169 433 2 287 46 113 
334 4 428 199 60 380 
335 6 87 154 47 10 387 137 
336 7 45 415 5 23 457 470 88 
337 7 236 360 70 257 348 202 211 
338 4 137 387 440 47 
339 5 212 347 468 309 71 
340 6 213 80 397 324 419 214 
341 5 265 174 12 107 79 
342 7 294 225 378 257 348 70 202 
343 3 184 226 29 
344 5 166 181 9 218 219 
345 3 68 263 124 
346 5 98 75 330 180 110 
347 5 212 339 468 309 71 
348 7 202 257 70 253 360 258 211 
349 5 281 311 237 6 320 
350 4 469 421 215 42 
351 4 67 172 54 216 
352 7 32 117 125 413 423 30 160 
353 7 231 159 420 62 192 312 31 
354 6 432 376 81 251 178 246 
355 6 238 316 17 319 164 217 
356 4 371 445 63 121 
357 7 365 373 323 407 13 151 102 
358 7 48 161 132 200 115 156 234 
359 4 393 472 422 57 
360 7 70 236 202 257 348 337 211 
361 3 24 293 26 
362 7 142 143 229 93 467 49 313 
363 5 94 390 295 4 447 
364 6 127 404 129 290 234 13 
365 7 357 373 151 102 407 13 323 
366 6 378 414 29 225 294 342 
367 7 263 68 16 124 345 301 460 
368 6 246 432 331 376 354 81 
369 3 277 85 76 
370 6 276 438 53 182 20 41 
371 5 63 121 356 445 92 
372 7 256 284 459 51 452 116 286 
373 7 151 365 102 357 77 407 13 
374 5 418 249 33 201 25 
375 5 114 28 188 452 51 
376 6 81 432 251 354 331 178 
377 6 24 131 210 26 293 193 
378 7 225 366 294 342 414 29 206 
379 4 382 58 103 254 
380 6 408 426 207 60 428 454 
381 5 223 204 22 233 235 
382 5 299 379 254 58 103 
383 7 206 240 414 29 294 225 342 
384 7 313 332 280 229 49 143 185 
385 6 319 405 72 355 316 238 
386 6 36 446 139 399 89 435 
387 4 137 338 440 47 
388 6 135 427 447 4 295 318 
389 5 291 406 328 173 64 
390 5 94 295 363 447 4 
391 2 155 52 
392 6 322 44 86 198 241 450 
393 4 359 472 422 57 
394 7 119 179 35 56 239 23 292 
395 5 449 74 314 111 273 
396 4 275 195 37 130 
397 6 340 213 324 419 80 327 
398 6 250 25 453 304 177 248 
399 4 435 36 89 139 
400 5 153 444 71 309 468 
401 5 74 273 314 449 111 
402 2 141 78 
403 4 327 301 460 16 
404 6 364 13 290 127 323 205 
405 5 168 385 17 134 319 
406 5 389 291 38 173 328 
407 7 303 77 357 365 323 136 373 
408 6 60 380 454 434 465 426 
409 5 61 39 325 180 268 
410 7 90 21 104 128 186 244 144 
411 7 19 186 69 244 318 310 443 
412 7 230 170 66 252 326 91 34 
413 7 423 32 352 125 117 224 30 
414 7 29 206 378 366 383 184 240 
415 6 5 45 336 88 470 23 
416 5 296 165 133 272 76 
417 7 96 55 441 243 298 371 356 
418 6 374 25 201 33 453 248 
419 4 327 80 397 340 
420 7 231 62 353 260 159 192 31 
421 4 469 350 42 453 
422 6 57 472 187 359 393 232 
423 7 32 413 352 30 321 117 125 
424 5 15 464 245 116 115 
425 6 134 17 437 463 168 167 
426 4 207 380 408 60 
427 5 388 447 135 4 295 
428 5 380 334 426 408 60 
429 7 136 7 303 209 255 407 77 
430 7 333 169 433 2 287 113 46 
431 3 175 457 45 
432 6 376 354 81 251 246 178 
433 7 2 169 46 258 333 430 253 
434 4 454 465 60 408 
435 3 399 139 36 
436 7 91 448 191 222 66 34 412 
437 6 463 167 150 425 78 134 
438 6 276 370 227 20 182 53 
439 4 254 83 58 299 
440 4 387 137 338 47 
441 6 96 417 298 55 243 145 
442 3 118 34 448 
443 6 318 461 69 135 411 19 
444 4 153 400 71 309 
445 2 121 63 
446 5 36 89 386 399 10 
447 7 4 295 135 388 94 427 390 
448 5 222 18 436 118 442 
449 4 314 395 74 273 
450 6 3 95 122 44 86 97 
451 7 315 255 77 209 102 136 7 
452 4 459 51 256 188 
453 7 25 250 398 248 304 418 177 
454 4 434 465 60 408 
455 7 129 323 234 407 13 303 357 
456 7 205 43 373 146 365 151 208 
457 3 470 5 45 
458 7 299 298 382 145 439 254 11 
459 5 51 188 256 452 372 
460 6 301 190 403 16 65 327 
461 6 50 443 101 69 19 228 
462 7 8 305 245 307 464 429 7 
463 6 437 167 150 78 425 325 
464 7 245 15 462 8 307 305 116 
465 4 434 454 60 408 
466 5 330 180 409 75 61 
467 7 93 221 38 362 142 143 406 
468 7 309 71 212 339 347 269 274 
469 4 350 421 42 215 
470 5 88 288 5 457 415 
471 6 14 171 220 126 148 176 
472 5 422 57 359 393 187 
DEPOT_SECTION
   1
   -1
EOF
