NAME :  X-n876-kX-w175-c7.cctp
COMMENT : 	Adapted by Maziero, Usberti and Cavellucci from the Uchoa, Pecin, Pessoa, Poggi, Subramanian, and Vidal (2013)
TYPE :  CCTP
DIMENSION :    745
EDGE_WEIGHT_TYPE : 	EUC_2D	
CAPACITY : 	764
VERTICES_WITHIN_COVERAGE :  7
VERTICES_WITH_DEMAND : 	175
NODE_COORD_SECTION
1 0 0
2 205 638
3 893 161
4 191 775
5 444 871
6 225 445
7 226 456
8 301 566
9 140 746
10 196 791
11 356 894
12 876 165
13 56 653
14 845 153
15 139 808
16 418 823
17 94 422
18 928 162
19 341 981
20 209 815
21 172 705
22 374 765
23 291 847
24 890 163
25 250 591
26 970 235
27 251 857
28 260 618
29 162 764
30 906 149
31 247 471
32 191 464
33 587 796
34 198 622
35 878 157
36 346 812
37 435 818
38 61 783
39 362 765
40 612 859
41 194 515
42 17 446
43 903 248
44 224 732
45 225 847
46 397 945
47 215 418
48 226 733
49 972 221
50 142 476
51 168 895
52 200 480
53 119 633
54 336 808
55 499 899
56 777 171
57 476 870
58 792 163
59 288 812
60 198 613
61 336 674
62 137 629
63 325 333
64 504 837
65 230 635
66 152 785
67 280 381
68 157 615
69 919 211
70 292 398
71 222 739
72 828 150
73 208 442
74 197 773
75 877 170
76 143 623
77 99 543
78 389 437
79 161 762
80 252 631
81 57 741
82 186 706
83 167 827
84 198 737
85 150 707
86 205 347
87 38 861
88 986 232
89 348 608
90 209 620
91 45 650
92 123 656
93 189 796
94 745 402
95 223 504
96 371 909
97 173 748
98 300 680
99 519 907
100 912 247
101 486 851
102 351 603
103 361 802
104 345 809
105 300 669
106 184 781
107 95 678
108 341 854
109 850 357
110 277 718
111 398 817
112 595 938
113 251 511
114 256 570
115 139 720
116 439 977
117 152 784
118 239 824
119 204 615
120 203 430
121 201 538
122 305 605
123 257 811
124 210 654
125 896 5
126 469 802
127 608 873
128 456 878
129 298 404
130 364 459
131 193 936
132 225 517
133 878 171
134 889 224
135 246 643
136 903 67
137 188 667
138 74 625
139 891 34
140 166 625
141 352 593
142 852 122
143 738 166
144 226 451
145 289 331
146 902 312
147 290 350
148 949 143
149 853 187
150 331 440
151 388 908
152 379 421
153 113 576
154 443 857
155 228 825
156 223 473
157 236 677
158 276 929
159 935 243
160 948 144
161 420 893
162 296 718
163 265 621
164 750 158
165 163 734
166 138 677
167 706 133
168 494 871
169 431 620
170 785 201
171 59 888
172 200 544
173 62 591
174 248 791
175 450 874
176 66 681
177 716 135
178 143 633
179 264 607
180 125 615
181 903 146
182 192 766
183 920 407
184 207 406
185 368 628
186 258 369
187 496 929
188 198 597
189 883 141
190 253 331
191 928 241
192 217 778
193 827 143
194 758 327
195 9 757
196 164 879
197 584 811
198 880 217
199 208 811
200 891 43
201 712 541
202 222 501
203 561 983
204 203 458
205 841 201
206 405 922
207 413 793
208 122 590
209 134 553
210 246 457
211 506 813
212 286 652
213 851 207
214 298 692
215 280 567
216 186 782
217 171 696
218 590 986
219 271 633
220 308 909
221 941 128
222 119 877
223 125 758
224 413 530
225 102 856
226 440 612
227 503 909
228 200 669
229 311 931
230 270 504
231 846 9
232 198 543
233 67 565
234 240 696
235 34 561
236 886 161
237 205 442
238 209 600
239 253 812
240 251 877
241 907 166
242 410 893
243 475 886
244 846 170
245 799 232
246 307 561
247 281 561
248 356 706
249 685 879
250 766 256
251 139 792
252 188 458
253 990 280
254 425 862
255 132 617
256 317 742
257 264 341
258 324 634
259 27 749
260 219 393
261 351 815
262 921 173
263 449 874
264 256 693
265 669 859
266 903 164
267 159 801
268 323 607
269 891 152
270 440 836
271 210 737
272 900 213
273 828 139
274 181 452
275 359 351
276 178 757
277 44 689
278 186 659
279 314 859
280 658 1
281 453 791
282 425 948
283 149 514
284 214 648
285 277 686
286 516 905
287 278 844
288 461 796
289 78 694
290 144 616
291 41 715
292 213 755
293 205 785
294 157 504
295 166 607
296 66 652
297 400 881
298 242 589
299 385 910
300 153 665
301 67 514
302 228 344
303 614 815
304 735 79
305 4 658
306 427 846
307 19 918
308 327 672
309 956 153
310 224 587
311 392 748
312 886 154
313 249 734
314 414 635
315 608 925
316 397 947
317 217 460
318 214 448
319 164 620
320 230 662
321 935 216
322 201 694
323 461 857
324 171 743
325 35 898
326 856 88
327 264 895
328 292 579
329 557 864
330 192 747
331 790 501
332 859 177
333 154 613
334 278 613
335 116 568
336 367 501
337 355 974
338 270 414
339 199 663
340 753 185
341 611 937
342 389 841
343 493 814
344 467 883
345 196 686
346 979 283
347 671 251
348 299 613
349 175 481
350 246 965
351 78 763
352 292 719
353 303 526
354 452 889
355 255 855
356 179 436
357 420 960
358 899 140
359 365 372
360 378 855
361 567 731
362 250 767
363 513 894
364 881 116
365 370 942
366 104 402
367 31 560
368 417 940
369 798 198
370 495 914
371 894 162
372 154 817
373 94 373
374 528 792
375 234 636
376 56 594
377 234 489
378 318 719
379 994 143
380 77 565
381 224 758
382 464 893
383 281 604
384 443 852
385 961 214
386 183 785
387 186 551
388 158 602
389 978 344
390 230 446
391 271 713
392 286 851
393 571 979
394 287 648
395 38 560
396 243 482
397 198 727
398 162 732
399 11 367
400 875 159
401 172 772
402 204 654
403 844 215
404 953 250
405 343 611
406 373 950
407 535 887
408 456 964
409 131 688
410 125 751
411 429 875
412 230 449
413 207 652
414 188 430
415 186 661
416 72 422
417 464 984
418 79 664
419 765 213
420 284 425
421 450 818
422 84 781
423 178 864
424 863 164
425 993 250
426 161 837
427 930 143
428 189 469
429 217 803
430 229 622
431 950 81
432 201 599
433 236 408
434 222 762
435 198 340
436 119 621
437 844 132
438 362 469
439 376 725
440 68 519
441 914 192
442 316 406
443 313 830
444 169 799
445 231 439
446 926 70
447 857 163
448 378 718
449 598 885
450 484 848
451 360 441
452 214 376
453 998 234
454 348 364
455 299 851
456 300 676
457 175 712
458 881 110
459 406 657
460 961 115
461 437 830
462 355 879
463 639 866
464 246 245
465 347 454
466 199 482
467 208 828
468 241 865
469 335 749
470 85 741
471 250 783
472 872 257
473 517 540
474 578 822
475 240 562
476 269 374
477 511 912
478 412 876
479 151 889
480 248 646
481 388 408
482 892 169
483 410 905
484 905 265
485 208 626
486 366 446
487 520 859
488 882 216
489 866 142
490 201 723
491 207 436
492 931 286
493 315 420
494 178 725
495 959 212
496 286 836
497 839 161
498 207 653
499 880 197
500 100 699
501 413 467
502 587 908
503 900 226
504 409 902
505 108 725
506 173 511
507 192 541
508 439 901
509 359 922
510 201 403
511 494 798
512 567 243
513 405 913
514 186 353
515 592 884
516 241 806
517 93 947
518 253 495
519 201 793
520 865 120
521 269 599
522 881 203
523 173 844
524 326 854
525 840 141
526 153 454
527 302 878
528 94 682
529 476 900
530 127 659
531 250 889
532 822 95
533 328 818
534 894 76
535 237 482
536 824 116
537 336 376
538 301 679
539 193 527
540 105 922
541 449 905
542 456 866
543 192 347
544 432 995
545 183 480
546 192 660
547 144 458
548 310 462
549 309 439
550 129 762
551 182 351
552 193 763
553 69 514
554 978 382
555 360 980
556 253 694
557 121 840
558 254 614
559 255 472
560 229 456
561 187 667
562 242 459
563 295 602
564 247 488
565 248 604
566 62 657
567 229 502
568 906 287
569 84 662
570 18 916
571 255 564
572 310 815
573 345 904
574 215 593
575 464 806
576 161 464
577 392 457
578 608 839
579 417 815
580 211 656
581 438 990
582 941 191
583 357 627
584 207 488
585 298 756
586 217 656
587 139 755
588 163 715
589 68 718
590 770 153
591 927 408
592 185 765
593 135 490
594 462 963
595 90 548
596 464 630
597 179 821
598 794 244
599 415 844
600 183 692
601 911 258
602 220 422
603 22 663
604 115 875
605 395 921
606 476 787
607 258 531
608 59 511
609 160 758
610 243 815
611 100 547
612 350 659
613 202 526
614 834 185
615 179 431
616 831 192
617 48 759
618 420 813
619 17 690
620 76 737
621 135 595
622 670 983
623 339 453
624 283 751
625 143 945
626 18 770
627 284 822
628 469 797
629 188 429
630 866 252
631 368 807
632 135 728
633 946 170
634 223 936
635 262 582
636 466 885
637 171 610
638 204 837
639 240 317
640 812 120
641 150 951
642 208 651
643 991 264
644 572 917
645 179 716
646 124 629
647 31 691
648 306 444
649 186 627
650 435 842
651 247 809
652 591 791
653 152 737
654 382 828
655 292 231
656 180 671
657 282 357
658 184 786
659 179 972
660 991 236
661 861 165
662 178 631
663 361 801
664 420 492
665 232 684
666 836 157
667 208 436
668 202 676
669 366 385
670 191 251
671 320 398
672 440 871
673 258 785
674 234 547
675 912 151
676 936 66
677 68 604
678 346 276
679 178 751
680 213 655
681 531 949
682 185 662
683 495 886
684 277 823
685 271 387
686 228 881
687 893 185
688 238 980
689 215 871
690 119 397
691 238 440
692 139 814
693 332 800
694 305 717
695 27 398
696 194 401
697 305 676
698 466 826
699 256 531
700 153 742
701 262 837
702 923 23
703 442 792
704 846 349
705 224 543
706 627 869
707 972 244
708 209 903
709 275 565
710 128 462
711 487 879
712 168 744
713 837 152
714 172 880
715 496 803
716 215 624
717 992 152
718 218 497
719 960 163
720 249 552
721 237 830
722 229 818
723 261 498
724 350 941
725 419 930
726 887 318
727 57 375
728 226 708
729 178 634
730 200 453
731 155 636
732 304 808
733 265 655
734 522 889
735 199 348
736 268 963
737 966 105
738 315 324
739 197 285
740 398 221
741 214 630
742 244 736
743 230 784
744 177 772
745 205 796
DEMAND_SECTION
2 25
3 94
4 71
5 59
6 35
7 5
8 45
9 40
10 6
11 72
12 23
13 93
14 13
15 83
16 26
17 11
18 6
19 91
20 68
21 7
22 75
23 31
24 33
25 86
26 42
27 43
28 77
29 35
30 74
31 37
32 55
33 49
34 18
35 72
36 69
37 72
38 72
39 65
40 51
41 71
42 69
43 23
44 58
45 28
46 91
47 4
48 2
49 62
50 11
51 94
52 1
53 76
54 56
55 21
56 57
57 24
58 95
59 84
60 54
61 6
62 55
63 10
64 87
65 94
66 55
67 42
68 14
69 70
70 79
71 40
72 32
73 1
74 57
75 21
76 78
77 33
78 82
79 8
80 54
81 11
82 49
83 23
84 83
85 26
86 21
87 86
88 83
89 82
90 14
91 54
92 67
93 93
94 13
95 75
96 72
97 7
98 15
99 71
100 9
101 44
102 84
103 49
104 42
105 71
106 50
107 30
108 85
109 99
110 15
111 11
112 35
113 98
114 99
115 43
116 17
117 47
118 97
119 42
120 64
121 100
122 75
123 20
124 20
125 87
126 78
127 45
128 62
129 28
130 74
131 23
132 57
133 84
134 14
135 5
136 32
137 23
138 25
139 18
140 84
141 17
142 19
143 29
144 98
145 64
146 38
147 20
148 4
149 29
150 14
151 2
152 53
153 20
154 58
155 46
156 15
157 77
158 78
159 38
160 11
161 98
162 12
163 66
164 60
165 81
166 99
167 24
168 58
169 96
170 60
171 49
172 77
173 77
174 21
175 76
176 96
COVERAGE_SECTION
2 7 485 741 284 642 413 498 402 
3 7 371 24 236 482 269 266 312 
4 7 74 106 182 216 552 592 386 
5 7 672 263 175 542 128 154 411 
6 7 390 144 412 445 7 318 560 
7 7 560 144 412 317 6 390 318 
8 6 246 328 215 247 709 563 
9 7 587 700 653 410 223 550 632 
10 7 519 93 745 293 216 658 386 
11 7 462 573 96 509 299 151 108 
12 7 75 133 400 35 236 424 24 
13 7 566 296 91 418 569 176 138 
14 7 713 497 666 525 447 72 244 
15 7 692 251 372 267 66 117 444 
16 7 579 618 37 461 111 599 306 
17 6 366 416 690 373 710 727 
18 7 262 427 675 633 241 266 30 
19 7 337 555 724 406 365 229 509 
20 7 199 467 429 745 722 155 519 
21 7 457 217 588 645 82 600 494 
22 5 39 311 663 103 439 
23 7 392 455 496 287 279 627 443 
24 7 3 236 371 482 312 269 35 
25 7 298 565 635 179 521 114 558 
26 7 707 49 88 660 385 404 495 
27 7 355 468 240 701 45 287 721 
28 7 163 558 179 80 565 219 334 
29 7 79 609 401 276 744 97 679 
30 7 181 675 358 266 269 241 3 
31 7 559 396 562 210 535 564 377 
32 7 428 252 204 730 274 52 545 
33 7 652 197 474 303 578 374 40 
34 7 60 119 90 485 649 2 716 
35 7 400 12 236 312 24 75 133 
36 7 104 261 54 103 693 533 663 
37 7 461 421 618 16 579 270 650 
38 4 422 351 617 81 
39 6 22 469 311 663 103 439 
40 7 127 706 578 463 449 515 303 
41 7 539 613 506 121 507 232 172 
42 7 695 416 608 399 17 727 301 
43 7 100 601 484 503 191 134 159 
44 7 48 71 271 742 728 292 313 
45 7 721 155 638 468 467 689 118 
46 7 316 368 206 605 406 357 365 
47 7 602 184 120 667 491 510 433 
48 7 44 71 271 742 313 381 728 
49 7 385 26 495 88 707 660 453 
50 7 593 547 710 576 526 294 349 
51 6 196 714 479 423 708 131 
52 7 466 584 428 545 32 204 156 
53 7 646 436 62 180 255 92 178 
54 7 104 693 36 533 261 103 663 
55 7 227 683 363 370 286 477 99 
56 7 58 590 340 164 170 369 143 
57 7 711 243 344 168 636 323 542 
58 7 56 590 369 72 170 193 164 
59 7 627 684 732 572 496 123 443 
60 7 119 34 90 432 188 485 238 
61 7 308 612 697 538 98 105 456 
62 7 178 76 255 646 290 53 180 
63 7 738 145 275 147 454 537 657 
64 7 101 450 211 343 487 168 715 
65 7 375 430 741 135 716 284 480 
66 7 117 251 267 444 29 401 79 
67 6 685 476 70 657 186 129 
68 7 333 319 295 140 290 388 637 
69 5 321 272 441 503 582 
70 7 129 67 685 442 338 420 671 
71 7 44 48 271 292 381 742 434 
72 7 193 713 273 666 525 497 14 
73 7 237 491 667 318 120 730 6 
74 7 4 182 552 216 293 592 106 
75 7 133 12 400 35 236 24 424 
76 7 290 62 178 255 333 68 731 
77 7 611 595 335 380 153 209 233 
78 7 152 577 486 451 481 130 501 
79 7 29 609 401 97 276 712 744 
80 7 135 28 163 480 558 219 375 
81 7 620 617 589 470 351 259 291 
82 7 645 457 21 600 217 322 494 
83 7 426 597 372 523 267 444 692 
84 5 397 271 330 490 292 
85 7 588 115 21 217 457 632 409 
86 7 735 435 543 514 302 551 452 
87 7 171 325 570 307 225 604 38 
88 7 660 453 26 49 707 425 385 
89 7 102 405 141 583 268 185 258 
90 7 485 119 716 34 741 60 2 
91 7 13 566 296 603 176 418 138 
92 7 530 53 166 646 62 178 300 
93 7 10 658 519 386 216 106 745 
94 4 194 331 109 704 
95 7 202 567 718 132 377 584 535 
96 7 299 151 509 11 573 605 365 
97 7 324 679 712 276 609 165 79 
98 7 538 456 697 105 214 285 308 
99 7 286 477 363 227 734 55 370 
100 7 43 601 191 484 159 503 134 
101 7 450 57 168 64 323 711 698 
102 7 89 141 405 583 268 185 258 
103 7 663 631 261 104 36 54 693 
104 7 36 261 54 693 103 663 533 
105 7 456 697 538 98 212 214 394 
106 7 216 386 658 4 744 74 401 
107 7 528 569 418 500 289 176 92 
108 7 524 279 462 360 443 533 261 
109 4 704 726 146 183 
110 7 391 352 162 694 285 313 214 
111 6 579 654 16 618 342 207 
112 7 341 315 502 644 218 393 449 
113 7 518 723 230 607 699 564 567 
114 7 571 635 475 720 709 25 215 
115 7 632 85 653 588 9 398 700 
116 7 581 544 408 357 417 594 282 
117 7 66 251 267 29 401 444 79 
118 7 721 610 155 722 651 239 516 
119 7 60 90 34 485 716 238 432 
120 7 491 667 237 73 414 629 47 
121 7 172 232 507 613 539 387 41 
122 7 348 563 268 383 334 328 258 
123 7 239 651 610 516 118 174 684 
124 7 580 498 680 413 642 402 284 
125 7 139 702 200 231 136 534 446 
126 7 628 575 288 606 281 698 421 
127 7 40 449 515 706 463 578 502 
128 7 175 263 344 354 542 636 5 
129 7 70 442 493 671 420 67 338 
130 7 438 486 451 465 623 577 78 
131 7 634 708 659 641 51 625 350 
132 7 95 202 567 718 613 705 113 
133 7 75 12 400 236 24 35 482 
134 7 198 488 503 272 522 43 499 
135 7 480 80 375 65 733 320 219 
136 5 534 446 200 676 139 
137 7 561 415 682 278 546 656 228 
138 7 677 296 13 566 173 376 91 
139 6 200 125 702 136 534 446 
140 7 319 68 662 729 637 731 333 
141 7 102 89 405 268 583 185 122 
142 7 437 520 525 489 273 536 364 
143 7 164 340 590 177 56 167 58 
144 7 412 7 6 390 560 318 317 
145 6 147 257 657 738 63 190 
146 6 726 568 492 484 601 472 
147 7 657 145 257 476 67 738 186 
148 7 160 309 221 427 719 633 18 
149 7 332 205 244 614 213 616 661 
150 7 623 465 549 648 493 451 548 
151 7 299 605 96 513 206 483 504 
152 7 481 78 451 486 577 669 130 
153 7 335 208 621 209 611 77 595 
154 7 384 5 672 542 650 175 263 
155 7 722 721 118 610 467 20 45 
156 7 317 7 535 560 377 144 396 
157 6 665 320 234 556 264 586 
158 6 229 736 327 220 350 531 
159 7 191 404 100 321 601 43 26 
160 7 148 309 221 427 719 633 18 
161 7 242 504 483 478 411 508 297 
162 7 352 694 110 378 391 214 256 
163 7 28 219 558 179 334 80 521 
164 7 143 590 340 56 177 58 167 
165 7 398 653 712 324 700 97 494 
166 5 409 300 530 92 85 
167 6 177 143 164 304 590 340 
168 7 711 683 57 101 243 450 55 
169 6 226 314 596 459 185 583 
170 6 369 419 56 245 340 58 
171 7 325 87 307 570 225 540 604 
172 7 232 121 507 387 539 613 705 
173 7 376 677 233 380 138 395 235 
174 7 471 673 516 651 743 123 239 
175 7 263 5 128 542 672 354 154 
176 7 289 418 277 566 569 528 107 
177 7 167 143 164 590 304 340 56 
178 6 62 76 731 290 255 646 
179 7 521 28 558 163 334 565 383 
180 7 255 436 646 62 53 290 76 
181 7 30 358 675 269 3 266 371 
182 5 552 592 4 74 744 
183 7 591 554 109 389 704 726 146 
184 7 510 47 696 260 602 120 433 
185 7 583 89 102 405 612 141 258 
186 4 476 685 67 657 
187 4 370 227 477 55 
188 5 432 238 60 574 119 
189 7 312 269 358 35 489 236 400 
190 6 257 639 302 145 186 657 
191 7 159 100 601 43 321 404 69 
192 6 293 743 434 74 381 519 
193 7 273 72 525 713 666 437 14 
194 3 250 94 598 
195 7 626 259 617 81 291 38 619 
196 6 714 51 479 423 523 426 
197 7 474 33 652 303 578 40 329 
198 6 488 134 522 272 499 503 
199 7 20 429 745 467 519 722 10 
200 5 139 136 534 125 702 
201 3 331 94 473 
202 7 95 718 567 132 377 584 535 
203 6 393 218 681 112 644 341 
204 7 730 32 317 252 318 237 73 
205 5 213 616 403 614 149 
206 7 513 605 725 483 504 151 368 
207 4 618 579 111 703 
208 7 621 153 335 180 255 436 290 
209 3 335 153 611 
210 5 562 31 559 560 412 
211 7 343 715 511 64 374 126 606 
212 4 394 733 105 219 
213 5 403 205 149 616 614 
214 7 98 538 456 697 285 105 162 
215 6 709 247 328 8 635 114 
216 7 106 386 658 4 10 744 74 
217 7 21 600 457 82 588 645 85 
218 7 393 203 112 341 315 681 644 
219 7 163 28 80 334 394 733 212 
220 6 229 527 573 158 327 11 
221 7 148 160 427 460 309 737 18 
222 7 604 225 479 557 196 540 51 
223 4 550 410 587 9 
224 6 664 336 501 577 438 130 
225 7 604 557 222 171 692 479 15 
226 6 169 596 314 459 185 583 
227 7 370 477 55 286 99 363 187 
228 7 339 668 137 546 561 402 415 
229 6 220 158 724 573 509 527 
230 4 723 518 113 564 
231 3 125 139 200 
232 7 172 121 507 387 539 613 705 
233 7 380 173 395 595 376 235 367 
234 6 556 665 264 728 157 320 
235 7 367 395 233 376 173 380 440 
236 7 24 3 312 371 35 269 482 
237 7 73 491 667 318 120 730 204 
238 6 432 574 188 119 60 90 
239 7 123 651 610 516 118 174 721 
240 7 531 468 27 327 355 686 689 
241 6 266 371 3 482 262 675 
242 7 504 161 483 297 478 513 411 
243 6 344 636 382 529 711 57 
244 7 497 447 332 661 666 14 149 
245 4 598 170 369 419 
246 6 8 328 247 215 709 353 
247 6 215 709 8 328 246 571 
248 6 448 439 61 378 308 612 
249 7 265 463 706 40 127 449 578 
250 4 598 245 419 170 
251 7 66 117 15 267 692 372 444 
252 7 32 274 428 730 204 237 545 
253 7 346 643 425 707 660 453 88 
254 6 411 306 672 154 478 5 
255 7 180 290 62 76 436 646 178 
256 5 469 378 585 694 162 
257 6 190 657 145 147 186 476 
258 7 268 405 348 583 89 122 612 
259 7 195 617 626 81 291 38 620 
260 6 184 452 510 433 47 696 
261 7 36 104 103 54 663 631 533 
262 6 18 241 266 441 675 633 
263 7 175 5 128 672 542 354 154 
264 6 556 234 285 391 157 665 
265 7 249 463 706 40 127 578 303 
266 7 241 371 3 482 24 30 675 
267 7 444 66 372 117 15 251 692 
268 7 122 405 89 348 258 102 563 
269 7 312 3 236 371 24 181 35 
270 7 461 650 306 384 37 154 421 
271 7 71 84 44 48 397 490 292 
272 5 503 134 488 69 198 
273 7 193 72 525 713 437 666 14 
274 7 252 32 356 428 730 615 204 
275 7 454 359 537 669 63 738 671 
276 5 679 97 592 744 324 
277 7 647 176 291 619 289 603 566 
278 6 415 682 546 137 561 656 
279 7 524 455 527 23 108 392 443 
280 3 304 167 177 
281 5 288 703 628 126 575 
282 6 368 357 725 46 316 116 
283 4 294 506 593 50 
284 7 124 642 680 413 498 580 586 
285 4 214 264 98 456 
286 7 99 477 363 227 734 55 370 
287 7 392 496 23 701 684 455 627 
288 6 628 281 126 575 606 703 
289 7 176 528 107 500 589 418 569 
290 7 76 333 255 68 62 178 180 
291 7 277 647 589 81 619 259 620 
292 4 381 434 71 271 
293 6 519 10 745 74 192 4 
294 5 283 506 593 349 50 
295 5 637 388 68 319 333 
296 7 566 13 418 91 569 138 176 
297 6 478 242 161 504 483 151 
298 7 25 565 310 635 114 475 574 
299 7 151 96 605 513 206 483 504 
300 2 166 530 
301 7 553 440 608 595 77 611 233 
302 5 86 190 735 435 639 
303 7 578 197 33 652 474 40 706 
304 3 177 167 164 
305 7 603 619 91 647 277 13 566 
306 6 650 599 254 270 384 154 
307 7 570 325 171 87 517 540 225 
308 7 61 697 612 105 456 538 98 
309 7 719 148 160 633 427 18 221 
310 6 574 298 238 25 432 188 
311 4 22 439 448 39 
312 7 269 236 35 3 24 371 400 
313 5 742 48 44 71 391 
314 6 169 459 226 185 596 583 
315 7 341 112 502 644 449 515 127 
316 7 46 368 406 206 357 605 365 
317 7 7 318 144 560 156 204 6 
318 7 73 6 237 144 317 667 7 
319 7 140 68 333 637 295 662 731 
320 7 586 157 680 580 284 124 665 
321 6 69 495 191 385 582 159 
322 7 345 600 668 82 228 490 728 
323 7 542 154 384 57 175 263 5 
324 7 712 97 679 165 398 276 700 
325 7 570 171 307 87 540 517 225 
326 3 458 520 142 
327 6 531 240 158 468 686 27 
328 7 8 215 247 709 246 563 383 
329 7 407 487 515 734 449 474 127 
330 5 84 679 552 276 97 
331 7 201 94 109 183 704 591 194 
332 7 149 661 424 447 244 75 133 
333 7 68 290 319 388 295 76 140 
334 7 383 163 179 521 28 563 219 
335 6 153 208 209 611 77 595 
336 4 438 130 465 577 
337 7 555 19 406 724 365 316 46 
338 3 420 70 685 
339 7 228 546 402 137 415 498 561 
340 7 143 164 56 419 170 590 58 
341 7 315 112 502 644 218 449 515 
342 5 654 360 111 599 16 
343 7 715 211 511 64 126 628 575 
344 6 636 243 382 128 57 354 
345 7 322 668 600 228 137 561 82 
346 7 253 643 425 707 404 492 26 
347 5 250 419 512 340 143 
348 7 122 563 383 334 268 258 521 
349 7 545 428 576 32 466 52 252 
350 7 688 736 634 158 131 659 327 
351 4 422 470 38 620 
352 7 162 694 110 391 378 214 624 
353 3 246 8 230 
354 6 128 382 175 263 636 344 
355 7 27 468 701 240 287 45 392 
356 6 615 414 629 274 252 120 
357 6 282 368 116 316 46 725 
358 7 181 30 269 189 675 312 3 
359 7 669 454 275 537 481 152 671 
360 6 342 654 462 297 108 599 
361 4 652 33 374 197 
362 4 471 673 174 743 
363 7 734 286 99 55 227 477 683 
364 6 458 520 189 142 358 489 
365 7 406 724 509 46 316 96 605 
366 5 690 17 373 416 727 
367 7 235 395 233 376 173 380 440 
368 6 725 282 357 46 316 206 
369 5 170 56 245 616 58 
370 5 227 187 55 477 286 
371 7 3 24 482 236 266 269 312 
372 7 692 83 15 267 426 444 597 
373 5 366 690 727 17 416 
374 6 211 715 511 343 64 606 
375 7 65 135 430 480 80 741 716 
376 7 173 677 233 138 380 395 235 
377 7 535 396 564 567 202 718 95 
378 5 694 162 256 352 214 
379 6 717 309 719 460 148 160 
380 7 233 595 611 173 77 376 153 
381 5 434 292 71 192 48 
382 6 636 344 243 354 529 128 
383 7 334 521 563 179 348 163 122 
384 7 154 650 270 306 5 323 542 
385 6 495 49 26 321 582 88 
386 7 658 106 216 4 93 10 744 
387 6 507 232 172 121 539 613 
388 5 295 333 68 637 319 
389 7 554 346 253 492 643 146 591 
390 7 412 6 144 445 560 691 7 
391 7 110 352 162 264 556 285 313 
392 7 23 287 455 496 701 279 627 
393 7 203 218 112 681 341 644 315 
394 4 212 219 733 105 
395 7 235 367 233 376 173 380 440 
396 7 535 564 377 31 518 559 156 
397 7 490 84 271 494 330 645 82 
398 7 165 653 700 712 324 494 588 
399 7 695 727 42 416 373 366 17 
400 7 35 12 75 236 133 312 424 
401 7 744 29 79 106 592 276 216 
402 7 498 413 642 124 580 680 339 
403 4 213 205 616 149 
404 7 159 707 26 191 49 385 88 
405 7 89 102 141 268 583 185 258 
406 7 365 316 46 724 337 509 555 
407 7 734 363 99 286 329 487 477 
408 5 594 116 417 581 282 
409 7 166 85 530 300 92 115 500 
410 5 223 550 587 9 632 
411 6 672 254 5 478 161 263 
412 7 390 144 6 560 7 445 691 
413 7 498 642 124 402 580 680 284 
414 6 629 615 356 120 491 237 
415 7 682 278 137 546 561 656 339 
416 7 17 366 727 695 690 373 42 
417 5 594 408 116 581 544 
418 7 569 296 566 107 176 528 13 
419 7 170 340 369 245 598 250 56 
420 2 338 129 
421 7 37 461 575 698 270 126 288 
422 2 351 38 
423 6 714 196 523 426 51 479 
424 7 661 447 12 400 332 75 35 
425 7 643 660 453 88 707 26 253 
426 6 83 523 372 597 423 692 
427 7 160 18 148 221 675 30 181 
428 7 32 252 545 52 466 204 349 
429 7 199 20 745 519 722 293 743 
430 7 65 716 375 741 90 485 80 
431 7 676 446 737 460 221 136 534 
432 5 188 238 60 574 119 
433 3 602 47 260 
434 5 381 292 192 71 743 
435 7 735 543 86 514 551 302 452 
436 7 180 646 53 255 62 76 290 
437 7 525 142 273 193 14 713 72 
438 7 130 465 486 451 623 336 577 
439 5 448 248 311 22 39 
440 7 301 553 608 595 77 611 233 
441 4 69 262 687 272 
442 7 671 493 129 70 549 537 150 
443 7 572 533 732 455 524 23 496 
444 7 267 93 386 658 66 106 117 
445 7 390 691 6 412 144 560 7 
446 7 676 136 431 534 200 702 139 
447 7 661 424 244 332 14 400 497 
448 5 439 248 311 22 39 
449 7 515 127 502 40 706 315 644 
450 7 101 57 64 168 323 698 711 
451 7 486 130 465 623 152 438 78 
452 5 260 86 510 184 696 
453 7 660 88 425 26 707 49 643 
454 7 275 537 359 669 63 671 738 
455 7 23 392 279 496 287 443 524 
456 7 538 98 697 105 214 285 308 
457 7 645 21 588 82 494 217 600 
458 4 364 520 142 189 
459 5 314 169 185 226 612 
460 7 737 221 148 160 431 309 427 
461 7 270 37 650 421 306 16 384 
462 7 11 573 108 360 96 524 299 
463 7 706 40 265 127 578 449 249 
464 6 655 670 739 639 190 145 
465 7 623 130 451 150 438 486 548 
466 7 52 584 428 545 32 204 349 
467 7 638 20 199 155 722 45 429 
468 7 27 240 355 686 45 531 689 
469 5 256 39 378 585 22 
470 4 620 351 81 505 
471 6 174 673 362 743 516 651 
472 4 630 43 484 134 
473 5 224 596 226 664 169 
474 7 197 33 578 652 303 329 40 
475 7 720 571 674 114 705 298 310 
476 5 186 67 685 657 147 
477 7 99 227 286 370 55 363 187 
478 6 297 242 411 161 254 504 
479 6 196 51 714 222 423 604 
480 7 135 80 375 733 65 320 219 
481 7 152 78 669 359 451 486 577 
482 7 24 371 3 236 266 133 75 
483 7 504 513 242 161 206 151 605 
484 7 601 43 100 568 191 492 472 
485 7 90 716 741 34 2 119 60 
486 7 451 130 465 438 78 152 577 
487 7 64 168 734 407 101 363 329 
488 6 198 134 522 272 499 503 
489 7 189 35 400 424 520 312 447 
490 7 397 84 271 82 494 645 44 
491 7 667 73 237 120 318 730 602 
492 7 568 484 601 146 404 100 159 
493 7 442 549 129 671 150 648 420 
494 7 645 457 165 398 588 324 397 
495 6 385 49 321 26 582 88 
496 7 287 23 627 392 684 455 59 
497 7 666 713 14 244 72 447 525 
498 7 413 642 124 402 580 680 284 
499 5 522 687 488 198 133 
500 6 528 107 289 505 409 589 
501 7 577 664 78 130 438 486 152 
502 7 644 449 515 315 112 341 127 
503 7 134 272 488 43 198 69 100 
504 7 483 242 513 161 206 151 297 
505 4 500 632 470 115 
506 7 294 41 283 539 349 545 613 
507 7 232 121 172 387 539 613 41 
508 6 541 354 161 382 411 128 
509 7 96 724 365 573 11 299 406 
510 6 184 696 47 260 120 602 
511 7 715 343 211 606 126 628 575 
512 4 347 740 167 177 
513 7 206 483 504 605 151 299 242 
514 5 551 543 735 435 86 
515 7 449 127 502 40 706 644 329 
516 7 651 610 239 123 174 722 118 
517 7 540 625 641 171 222 604 325 
518 7 564 723 113 396 230 377 535 
519 7 10 745 293 93 658 199 216 
520 6 142 364 458 489 437 189 
521 7 179 383 334 635 25 28 558 
522 6 499 488 198 272 134 687 
523 6 426 83 423 597 638 372 
524 7 279 108 443 455 527 23 533 
525 7 437 713 273 14 193 72 666 
526 7 547 576 50 710 274 356 252 
527 6 279 455 392 220 23 524 
528 7 107 500 289 569 418 176 409 
529 5 243 382 636 344 55 
530 7 92 166 53 300 409 646 178 
531 7 240 327 686 468 27 355 689 
532 4 536 640 326 142 
533 7 54 572 693 36 104 443 261 
534 4 136 200 446 458 
535 7 396 377 564 31 156 518 559 
536 6 640 532 273 437 193 142 
537 7 454 671 359 669 275 442 63 
538 7 98 456 697 105 214 285 308 
539 7 613 41 121 507 232 172 387 
540 7 517 625 222 604 641 171 479 
541 6 508 354 382 636 529 128 
542 7 175 323 263 128 5 154 672 
543 6 735 514 435 551 86 302 
544 7 581 116 417 357 408 594 282 
545 7 349 428 466 52 32 252 584 
546 7 278 415 682 137 339 561 228 
547 7 526 710 50 576 593 274 349 
548 4 648 549 150 623 
549 5 648 493 150 548 420 
550 4 223 410 587 9 
551 5 514 543 735 435 86 
552 5 182 592 74 4 276 
553 7 301 440 608 595 77 611 233 
554 7 389 591 183 346 146 253 492 
555 7 337 19 406 365 724 316 46 
556 6 264 234 665 157 285 391 
557 7 225 692 604 15 222 372 426 
558 7 28 179 565 163 80 521 25 
559 6 31 396 210 562 564 535 
560 7 7 144 412 390 6 317 562 
561 7 137 682 415 278 656 546 228 
562 6 210 31 560 7 412 144 
563 7 122 348 383 334 328 521 268 
564 7 396 518 535 377 31 723 559 
565 7 558 25 179 298 28 521 163 
566 7 296 13 91 418 569 176 138 
567 7 95 202 718 377 132 535 564 
568 7 484 146 492 601 726 43 100 
569 7 418 107 296 528 566 176 13 
570 7 307 325 171 87 517 540 225 
571 6 114 720 475 635 709 215 
572 7 732 443 533 59 54 627 693 
573 7 11 509 96 462 220 724 299 
574 6 238 310 432 188 119 60 
575 7 126 288 628 421 281 698 606 
576 7 526 547 50 349 274 545 252 
577 7 78 501 130 486 438 451 152 
578 7 40 303 127 474 706 197 463 
579 7 618 16 37 111 207 461 599 
580 7 124 680 498 413 586 642 402 
581 7 544 116 417 408 357 594 282 
582 6 633 321 262 441 495 69 
583 7 185 89 405 102 612 141 258 
584 7 466 52 718 202 156 95 545 
585 4 624 256 352 162 
586 7 680 580 124 284 498 642 413 
587 7 9 550 223 410 700 609 653 
588 7 457 21 85 645 398 494 165 
589 7 620 81 289 291 470 176 500 
590 7 56 164 58 143 340 170 369 
591 7 183 554 389 109 726 146 704 
592 5 182 552 276 744 4 
593 5 50 294 283 710 547 
594 4 408 417 116 581 
595 7 77 611 380 233 335 153 440 
596 4 226 169 314 459 
597 7 83 426 444 523 372 93 267 
598 5 245 250 419 170 369 
599 5 306 650 16 254 270 
600 7 217 82 345 21 322 656 457 
601 7 484 100 43 191 159 568 492 
602 7 47 667 120 491 445 184 433 
603 7 305 91 619 647 277 13 566 
604 7 222 225 557 479 540 196 51 
605 7 206 513 151 299 483 46 504 
606 6 628 126 288 511 575 281 
607 6 699 113 720 674 230 571 
608 7 301 553 440 595 77 395 233 
609 7 79 29 97 712 700 276 401 
610 7 651 516 118 239 722 123 721 
611 7 77 595 335 380 153 209 233 
612 7 61 308 583 185 258 248 697 
613 7 539 121 41 232 172 507 132 
614 6 616 205 149 244 497 332 
615 5 356 414 629 274 120 
616 6 614 205 149 213 403 244 
617 7 81 259 38 351 626 620 195 
618 7 579 16 37 207 111 461 270 
619 7 647 277 603 291 305 91 176 
620 5 470 81 589 351 505 
621 7 208 180 255 290 388 333 76 
622 7 341 218 315 112 393 249 203 
623 7 465 150 451 130 438 486 548 
624 3 585 352 110 
625 7 641 540 659 517 131 51 479 
626 7 195 259 617 38 81 291 351 
627 7 684 59 496 287 732 23 572 
628 6 126 288 575 606 281 511 
629 6 414 615 356 120 491 237 
630 4 472 134 43 198 
631 7 103 663 261 36 104 654 54 
632 6 115 9 653 700 410 85 
633 6 719 18 309 582 262 160 
634 7 131 708 350 688 736 158 531 
635 7 114 25 521 571 298 709 215 
636 6 344 382 243 128 354 57 
637 5 295 319 68 388 140 
638 6 467 20 45 199 155 597 
639 6 190 302 257 86 435 145 
640 5 536 273 193 532 72 
641 7 625 659 131 540 517 51 479 
642 7 413 498 124 402 580 680 284 
643 7 425 253 346 660 707 453 88 
644 7 502 112 315 515 449 341 407 
645 7 457 494 82 21 588 217 397 
646 7 53 436 62 180 255 178 76 
647 7 277 619 291 603 176 91 305 
648 4 549 548 150 493 
649 7 662 729 34 60 140 2 119 
650 7 270 306 461 384 154 599 254 
651 7 239 516 610 123 118 174 722 
652 7 33 197 303 474 578 374 361 
653 7 700 165 398 9 712 632 324 
654 6 342 111 631 360 103 261 
655 7 464 678 738 145 639 670 740 
656 6 561 137 682 415 278 546 
657 6 147 476 67 257 145 186 
658 7 386 216 106 93 4 10 744 
659 7 641 131 625 634 688 350 708 
660 7 88 453 425 26 707 49 643 
661 7 424 447 332 12 400 244 75 
662 6 729 649 140 319 34 637 
663 7 103 631 261 104 36 54 693 
664 7 501 224 577 336 438 78 130 
665 7 157 234 320 556 728 264 668 
666 7 497 713 14 72 244 525 193 
667 7 491 73 237 120 318 602 6 
668 7 228 345 339 137 561 322 546 
669 7 359 454 537 481 275 152 671 
670 6 739 464 639 435 543 86 
671 7 442 129 493 537 70 549 67 
672 7 5 263 175 411 154 128 254 
673 7 471 174 362 123 651 239 516 
674 7 705 475 720 571 699 607 132 
675 7 30 181 241 266 358 18 427 
676 7 446 431 136 534 702 737 200 
677 7 173 376 138 233 380 296 13 
678 7 738 63 655 275 740 145 454 
679 6 97 276 324 712 330 592 
680 7 580 124 586 498 642 284 413 
681 5 187 477 99 203 286 
682 7 415 278 561 137 546 656 339 
683 7 711 55 168 243 363 227 529 
684 7 627 59 496 287 701 123 239 
685 5 67 476 186 70 338 
686 7 689 468 240 531 708 27 45 
687 4 482 499 133 24 
688 7 350 736 634 659 131 158 708 
689 6 686 45 468 708 240 638 
690 4 366 17 373 416 
691 5 445 390 412 6 144 
692 7 15 372 251 267 83 66 426 
693 7 54 104 36 533 261 572 103 
694 7 162 352 378 214 110 256 391 
695 7 399 727 42 416 17 373 366 
696 4 510 184 260 47 
697 7 456 538 98 105 214 308 285 
698 7 421 575 126 270 450 461 628 
699 6 607 113 720 674 230 571 
700 7 653 165 398 9 712 609 324 
701 7 287 355 684 27 496 118 123 
702 7 125 139 200 676 446 136 534 
703 4 281 288 575 37 
704 3 109 726 146 
705 7 674 121 172 475 132 232 720 
706 7 463 40 127 449 578 515 265 
707 7 26 88 404 660 425 49 453 
708 7 686 689 634 131 51 531 714 
709 6 215 247 114 571 635 328 
710 7 547 50 526 593 576 294 349 
711 7 168 683 57 243 344 636 55 
712 7 324 97 165 679 398 700 276 
713 7 666 14 72 497 525 193 273 
714 6 196 51 423 479 523 426 
715 7 511 343 211 606 126 628 575 
716 7 741 90 485 119 430 2 34 
717 6 379 719 309 148 160 460 
718 7 202 95 567 584 377 132 466 
719 5 309 633 160 148 18 
720 6 475 571 674 114 699 607 
721 7 118 155 722 610 45 651 239 
722 7 155 118 610 721 516 429 20 
723 7 518 230 113 564 396 559 377 
724 7 365 509 406 337 573 96 229 
725 6 368 206 282 513 605 46 
726 6 146 568 704 109 492 484 
727 7 373 695 399 416 366 17 690 
728 7 234 44 48 665 322 490 556 
729 5 662 649 140 319 34 
730 7 204 237 252 32 73 318 317 
731 5 178 140 76 319 62 
732 7 572 59 443 627 533 693 684 
733 3 480 212 135 
734 7 363 407 286 99 55 477 683 
735 7 86 543 435 514 551 302 452 
736 7 350 688 158 634 229 220 327 
737 7 460 431 221 148 160 379 309 
738 7 63 145 147 657 275 454 257 
739 6 670 639 435 543 86 464 
740 5 678 655 738 63 275 
741 7 716 485 90 2 65 430 34 
742 4 313 48 44 71 
743 5 192 174 471 429 434 
744 7 401 106 592 216 4 386 276 
745 7 519 10 293 429 199 93 20 
DEPOT_SECTION
   1
   -1
EOF
