NAME :  X-n819-kX-w163-c9.cctp
COMMENT : 	Adapted by Maziero, Usberti and Cavellucci from the Uchoa, Pecin, Pessoa, Poggi, Subramanian, and Vidal (2013)
TYPE :  CCTP
DIMENSION :    737
EDGE_WEIGHT_TYPE : 	EUC_2D	
CAPACITY : 	358
VERTICES_WITHIN_COVERAGE :  9
VERTICES_WITH_DEMAND : 	163
NODE_COORD_SECTION
1 500 500
2 174 325
3 49 34
4 543 815
5 42 920
6 545 80
7 681 950
8 664 944
9 61 68
10 609 259
11 116 500
12 482 911
13 708 930
14 93 57
15 642 940
16 487 619
17 511 63
18 330 52
19 529 831
20 586 862
21 503 839
22 713 994
23 28 939
24 9 111
25 203 347
26 31 115
27 414 352
28 521 982
29 121 304
30 600 26
31 506 772
32 624 39
33 205 328
34 218 104
35 22 959
36 657 188
37 72 978
38 434 815
39 487 107
40 22 987
41 599 870
42 201 402
43 726 961
44 51 7
45 35 922
46 182 331
47 577 233
48 672 906
49 485 852
50 543 849
51 574 991
52 120 166
53 592 877
54 422 762
55 26 695
56 52 953
57 673 848
58 66 393
59 165 162
60 824 928
61 462 135
62 520 759
63 25 807
64 483 808
65 600 549
66 196 76
67 420 719
68 348 480
69 531 837
70 157 347
71 273 259
72 526 18
73 373 29
74 39 211
75 398 49
76 451 211
77 693 949
78 518 106
79 451 981
80 629 687
81 731 830
82 599 866
83 202 772
84 217 285
85 102 404
86 481 771
87 601 864
88 123 963
89 467 217
90 62 8
91 532 256
92 57 914
93 640 193
94 502 823
95 197 59
96 4 824
97 110 938
98 439 838
99 543 808
100 51 34
101 94 672
102 55 46
103 420 46
104 666 997
105 186 414
106 398 883
107 103 942
108 482 816
109 62 137
110 11 840
111 37 54
112 537 858
113 745 914
114 183 279
115 703 953
116 762 726
117 485 54
118 64 920
119 74 352
120 560 178
121 283 179
122 496 834
123 660 886
124 589 160
125 650 963
126 565 36
127 241 338
128 446 971
129 638 817
130 193 372
131 752 955
132 511 904
133 411 5
134 780 925
135 536 781
136 53 168
137 495 777
138 42 892
139 488 80
140 793 984
141 201 317
142 531 985
143 181 240
144 530 802
145 576 942
146 654 903
147 634 953
148 612 71
149 334 119
150 155 811
151 35 956
152 593 840
153 588 819
154 771 968
155 273 325
156 561 46
157 113 88
158 23 813
159 49 38
160 162 152
161 611 778
162 297 479
163 627 78
164 559 818
165 79 48
166 711 905
167 612 162
168 509 839
169 301 160
170 693 913
171 527 213
172 144 73
173 347 325
174 95 965
175 29 145
176 674 900
177 418 225
178 532 930
179 501 68
180 24 888
181 310 365
182 572 153
183 546 820
184 683 948
185 561 150
186 571 205
187 513 166
188 523 805
189 193 375
190 553 9
191 131 86
192 154 914
193 528 786
194 672 129
195 908 170
196 654 893
197 514 130
198 547 783
199 33 856
200 563 814
201 459 856
202 467 859
203 494 844
204 106 523
205 726 969
206 155 240
207 497 414
208 294 802
209 85 39
210 649 864
211 52 978
212 521 99
213 529 779
214 317 909
215 32 72
216 704 952
217 197 150
218 307 273
219 602 256
220 169 378
221 111 139
222 258 317
223 657 898
224 438 983
225 179 381
226 510 735
227 586 48
228 663 907
229 189 269
230 210 315
231 82 925
232 503 313
233 541 34
234 44 321
235 415 220
236 83 294
237 25 39
238 67 86
239 771 900
240 500 94
241 69 874
242 176 285
243 267 333
244 561 920
245 490 62
246 521 801
247 181 316
248 179 85
249 17 56
250 95 82
251 411 740
252 533 794
253 474 811
254 325 412
255 626 805
256 480 939
257 777 982
258 7 927
259 611 848
260 115 40
261 185 356
262 585 173
263 21 63
264 707 856
265 45 961
266 165 62
267 435 96
268 72 127
269 68 71
270 590 866
271 607 175
272 732 873
273 678 960
274 105 300
275 488 850
276 524 833
277 179 767
278 688 857
279 559 798
280 556 998
281 474 784
282 599 803
283 639 513
284 535 534
285 552 830
286 193 52
287 509 765
288 41 119
289 170 171
290 79 975
291 131 959
292 139 193
293 630 881
294 14 853
295 553 62
296 65 0
297 822 866
298 342 897
299 669 895
300 204 332
301 163 344
302 493 780
303 687 988
304 723 938
305 133 299
306 838 996
307 747 957
308 685 953
309 124 990
310 565 47
311 34 141
312 69 911
313 173 354
314 237 260
315 689 665
316 624 724
317 564 607
318 221 496
319 585 761
320 72 233
321 238 451
322 451 753
323 10 27
324 539 773
325 240 717
326 540 26
327 48 70
328 58 59
329 78 51
330 76 933
331 429 830
332 304 71
333 702 1000
334 695 79
335 142 327
336 90 319
337 572 857
338 552 866
339 581 134
340 473 856
341 183 84
342 625 834
343 529 922
344 518 746
345 694 842
346 715 979
347 690 911
348 29 16
349 671 971
350 157 358
351 171 949
352 560 81
353 534 40
354 137 848
355 941 947
356 50 965
357 137 291
358 62 100
359 315 146
360 712 752
361 12 29
362 481 82
363 193 265
364 72 4
365 675 981
366 61 941
367 0 670
368 582 798
369 36 58
370 257 667
371 525 819
372 579 919
373 653 935
374 762 807
375 241 306
376 129 408
377 941 800
378 603 95
379 421 948
380 596 837
381 199 342
382 229 317
383 198 350
384 727 827
385 534 892
386 196 105
387 169 341
388 618 853
389 65 415
390 687 953
391 597 972
392 158 345
393 168 332
394 569 28
395 499 805
396 428 894
397 121 992
398 539 750
399 688 899
400 172 491
401 369 479
402 49 891
403 256 770
404 415 937
405 87 86
406 505 783
407 208 462
408 507 272
409 473 946
410 129 174
411 44 120
412 484 88
413 275 224
414 386 351
415 761 965
416 418 252
417 33 233
418 270 216
419 583 939
420 454 75
421 90 999
422 572 51
423 580 870
424 487 213
425 174 502
426 523 792
427 196 806
428 752 26
429 489 858
430 563 88
431 749 944
432 568 369
433 612 959
434 580 142
435 601 848
436 587 132
437 429 931
438 425 906
439 165 918
440 645 972
441 200 307
442 63 913
443 518 183
444 592 757
445 573 812
446 703 818
447 727 924
448 465 800
449 11 954
450 178 743
451 24 106
452 319 914
453 144 326
454 545 810
455 29 49
456 523 798
457 279 346
458 381 237
459 45 58
460 287 764
461 376 828
462 61 589
463 24 440
464 4 968
465 519 601
466 159 419
467 689 943
468 589 806
469 488 64
470 193 365
471 660 952
472 126 365
473 135 1000
474 652 954
475 576 158
476 42 159
477 176 182
478 266 261
479 527 817
480 564 87
481 497 765
482 483 865
483 65 894
484 110 896
485 50 230
486 791 119
487 689 955
488 638 891
489 534 35
490 295 209
491 540 822
492 517 26
493 538 79
494 599 3
495 593 782
496 45 0
497 703 930
498 707 633
499 490 107
500 163 88
501 583 628
502 474 789
503 68 825
504 9 943
505 17 896
506 565 35
507 413 80
508 743 800
509 494 869
510 183 312
511 894 879
512 559 953
513 235 214
514 112 118
515 66 309
516 566 275
517 35 927
518 152 359
519 566 201
520 237 261
521 664 667
522 467 937
523 144 327
524 567 59
525 92 296
526 4 319
527 797 701
528 63 83
529 340 435
530 431 52
531 234 263
532 161 343
533 556 90
534 246 413
535 18 884
536 422 731
537 24 65
538 626 53
539 509 746
540 743 851
541 416 906
542 520 46
543 63 807
544 221 463
545 732 909
546 704 940
547 671 909
548 499 159
549 160 967
550 361 128
551 649 861
552 116 104
553 161 352
554 637 772
555 8 93
556 471 759
557 456 852
558 728 780
559 541 805
560 713 907
561 515 873
562 567 890
563 705 942
564 118 327
565 254 330
566 402 539
567 783 822
568 487 201
569 581 876
570 39 795
571 628 739
572 604 984
573 781 525
574 39 852
575 706 947
576 229 339
577 533 973
578 738 836
579 0 139
580 130 325
581 26 364
582 853 961
583 151 260
584 412 937
585 695 995
586 544 786
587 1 405
588 142 302
589 484 875
590 775 773
591 499 18
592 39 52
593 698 178
594 564 826
595 37 878
596 576 208
597 550 819
598 461 796
599 546 805
600 65 886
601 93 132
602 48 0
603 648 844
604 35 957
605 70 204
606 91 1000
607 741 913
608 659 627
609 529 786
610 197 355
611 643 157
612 297 284
613 7 211
614 635 908
615 533 136
616 548 625
617 715 919
618 102 917
619 491 40
620 452 801
621 165 926
622 460 779
623 963 952
624 694 940
625 823 947
626 462 123
627 53 251
628 481 179
629 506 826
630 531 827
631 258 186
632 722 621
633 537 51
634 188 88
635 655 42
636 124 310
637 573 805
638 44 925
639 381 213
640 65 691
641 82 929
642 540 156
643 219 340
644 638 784
645 742 699
646 611 651
647 522 748
648 236 388
649 605 842
650 28 75
651 671 852
652 637 21
653 255 311
654 486 81
655 577 814
656 630 923
657 147 226
658 560 55
659 168 823
660 145 242
661 547 796
662 506 74
663 581 763
664 840 991
665 553 816
666 902 947
667 680 942
668 94 13
669 183 310
670 16 909
671 745 841
672 601 802
673 307 361
674 174 323
675 480 80
676 792 924
677 642 135
678 251 48
679 509 90
680 574 870
681 750 919
682 86 444
683 780 938
684 564 172
685 599 791
686 594 200
687 222 478
688 102 646
689 278 137
690 543 833
691 316 283
692 40 828
693 676 214
694 38 79
695 236 811
696 546 814
697 607 95
698 300 72
699 63 228
700 46 24
701 145 435
702 733 741
703 692 956
704 748 914
705 107 344
706 570 963
707 207 354
708 794 926
709 542 797
710 692 925
711 601 845
712 726 947
713 36 904
714 0 507
715 577 986
716 529 574
717 545 845
718 525 912
719 795 692
720 663 944
721 82 952
722 589 192
723 506 93
724 126 419
725 31 881
726 525 897
727 525 786
728 649 937
729 794 915
730 402 111
731 433 838
732 261 258
733 248 400
734 51 910
735 96 62
736 635 837
737 666 855
DEMAND_SECTION
2 89
3 59
4 53
5 85
6 95
7 66
8 70
9 84
10 68
11 96
12 87
13 77
14 65
15 88
16 75
17 84
18 92
19 75
20 77
21 55
22 64
23 60
24 71
25 80
26 79
27 61
28 100
29 62
30 92
31 60
32 55
33 52
34 65
35 73
36 81
37 97
38 75
39 76
40 87
41 99
42 78
43 50
44 70
45 89
46 98
47 84
48 59
49 63
50 62
51 88
52 61
53 77
54 70
55 76
56 77
57 59
58 53
59 54
60 74
61 81
62 59
63 79
64 78
65 95
66 51
67 69
68 73
69 78
70 59
71 86
72 63
73 97
74 51
75 77
76 99
77 76
78 68
79 77
80 65
81 87
82 62
83 76
84 86
85 92
86 62
87 96
88 80
89 56
90 86
91 86
92 95
93 73
94 74
95 73
96 87
97 92
98 88
99 81
100 81
101 74
102 62
103 55
104 76
105 98
106 78
107 59
108 74
109 83
110 92
111 75
112 71
113 75
114 81
115 70
116 52
117 94
118 54
119 78
120 58
121 93
122 64
123 89
124 63
125 82
126 98
127 51
128 58
129 63
130 61
131 91
132 56
133 81
134 97
135 91
136 51
137 73
138 95
139 79
140 100
141 55
142 81
143 85
144 52
145 99
146 57
147 54
148 62
149 78
150 60
151 81
152 89
153 87
154 80
155 96
156 83
157 53
158 95
159 70
160 69
161 81
162 62
163 83
164 50
COVERAGE_SECTION
2 9 674 393 46 247 510 387 669 301 532 
3 9 100 159 700 102 592 111 459 237 455 
4 9 696 454 183 99 491 597 559 599 665 
5 9 638 45 517 734 92 713 118 442 23 
6 9 493 352 533 295 430 480 658 524 633 
7 9 184 308 390 667 487 273 467 77 703 
8 9 720 471 373 474 667 728 7 184 273 
9 9 269 328 327 528 238 459 102 329 694 
10 9 219 47 516 596 686 186 722 519 93 
11 9 204 400 425 682 701 724 466 376 85 
12 9 256 132 522 409 589 718 509 726 482 
13 9 497 546 563 617 304 575 624 710 447 
14 9 735 329 165 209 250 260 269 405 9 
15 9 728 373 147 474 656 720 8 471 125 
16 5 465 616 716 317 501 
17 9 179 662 542 245 469 679 117 139 633 
18 9 332 698 73 149 75 678 550 507 103 
19 9 630 276 69 371 479 491 690 183 4 
20 9 270 423 82 680 41 87 337 569 53 
21 9 168 122 203 629 94 275 49 276 429 
22 9 333 346 585 303 205 43 365 115 216 
23 9 517 45 151 504 604 35 638 449 5 
24 9 451 555 26 579 288 411 175 311 650 
25 9 381 383 707 610 300 643 33 261 470 
26 9 288 451 411 24 311 175 555 358 694 
27 8 414 173 232 416 207 181 254 673 
28 9 142 577 280 512 178 706 51 715 256 
29 9 636 305 274 357 588 564 580 525 335 
30 9 494 227 32 394 126 506 538 652 422 
31 8 287 406 481 137 302 62 213 727 
32 9 538 652 30 635 148 163 227 494 422 
33 9 300 141 230 381 643 25 441 46 383 
34 9 386 634 66 341 248 95 217 500 286 
35 9 449 151 604 464 23 504 265 40 356 
36 9 93 693 611 593 167 271 677 194 686 
37 9 290 211 174 356 421 721 606 56 265 
38 9 331 620 731 98 598 448 253 557 622 
39 9 499 240 412 723 362 654 139 675 679 
40 9 464 35 211 604 151 265 449 356 56 
41 9 82 87 53 270 20 423 569 435 259 
42 9 105 189 225 130 470 648 220 466 534 
43 9 205 712 307 346 304 115 216 575 131 
44 9 602 496 90 296 700 364 348 3 100 
45 9 517 5 638 23 713 734 92 670 258 
46 9 2 674 393 247 387 510 381 669 300 
47 9 596 186 219 519 686 10 516 722 91 
48 9 547 176 228 299 223 399 146 347 170 
49 9 275 429 203 340 482 202 509 122 21 
50 9 717 112 690 69 338 285 19 276 630 
51 9 715 280 706 391 572 512 142 577 145 
52 9 410 221 292 601 160 59 514 289 477 
53 9 41 270 569 82 423 20 87 680 337 
54 9 251 322 536 622 67 556 620 598 38 
55 9 367 640 101 688 570 63 462 158 543 
56 9 265 356 366 151 604 211 23 638 721 
57 8 651 737 278 345 603 551 210 264 
58 9 389 85 119 581 682 463 705 376 724 
59 9 160 289 477 217 410 292 52 221 386 
60 9 625 708 676 729 134 582 683 239 297 
61 8 626 39 499 548 267 628 197 412 
62 9 647 287 344 539 31 398 213 324 481 
63 9 158 570 692 96 110 543 294 503 574 
64 9 108 253 395 448 502 94 598 281 122 
65 9 283 284 317 716 501 616 465 608 646 
66 9 634 341 95 248 286 386 266 500 34 
67 7 536 251 54 322 556 622 86 
68 6 401 529 162 254 566 321 
69 9 19 276 630 690 717 50 491 371 479 
70 9 392 532 553 301 350 387 518 313 393 
71 9 478 732 413 612 314 520 218 531 418 
72 9 492 326 489 233 353 591 190 542 633 
73 9 75 133 18 103 530 507 332 698 730 
74 9 485 417 699 605 613 320 627 136 476 
75 9 103 73 530 507 133 267 420 730 18 
76 8 89 177 424 235 568 628 416 639 
77 9 390 467 487 703 308 624 184 115 216 
78 9 212 679 723 240 197 499 39 493 615 
79 9 128 224 409 379 522 256 437 404 584 
80 7 316 521 646 571 315 608 501 
81 9 384 578 671 540 446 508 264 345 374 
82 9 87 41 270 53 20 435 423 569 711 
83 9 277 427 450 695 403 150 659 325 460 
84 9 441 531 230 363 520 229 314 375 382 
85 9 376 724 58 389 682 472 701 119 466 
86 9 137 281 302 556 481 502 622 31 406 
87 9 82 41 270 20 53 435 259 711 388 
88 9 291 309 97 174 107 397 549 473 721 
89 8 76 424 568 628 177 235 171 416 
90 9 296 44 364 602 496 700 100 3 668 
91 9 408 516 171 47 424 186 232 519 596 
92 9 442 734 118 312 5 638 483 45 713 
93 9 36 611 271 167 693 686 722 677 262 
94 9 629 122 21 168 395 108 203 371 64 
95 8 286 66 341 634 248 266 500 386 
96 8 110 158 63 294 692 199 570 574 
97 9 107 618 88 641 291 174 231 721 330 
98 9 731 331 557 38 201 202 340 620 253 
99 9 454 559 599 4 696 709 183 597 661 
100 9 3 159 700 102 592 111 459 237 328 
101 9 688 640 55 462 367 450 277 570 543 
102 9 159 3 100 328 459 592 111 369 9 
103 9 530 75 507 133 420 73 267 117 730 
104 9 365 303 349 585 440 333 125 273 471 
105 9 42 466 225 189 220 130 701 470 407 
106 9 541 396 438 584 404 437 731 298 461 
107 9 97 721 174 618 641 231 330 88 291 
108 9 64 253 395 94 122 448 629 502 598 
109 9 268 411 288 311 476 601 136 175 358 
110 7 294 96 199 158 574 692 63 
111 9 592 369 455 459 537 263 215 237 327 
112 9 50 717 338 69 690 561 19 276 285 
113 9 704 607 681 545 447 239 431 617 304 
114 9 242 229 363 669 441 510 84 247 583 
115 9 216 575 77 563 703 546 487 390 624 
116 9 702 645 527 719 590 360 558 508 374 
117 9 245 469 619 179 139 675 654 17 362 
118 9 442 92 312 734 330 231 641 366 638 
119 9 705 336 58 234 515 581 564 472 85 
120 9 684 519 262 475 182 185 186 642 722 
121 9 169 631 490 418 689 359 413 513 149 
122 9 21 203 94 629 168 275 49 108 429 
123 9 196 223 299 146 176 228 48 488 210 
124 9 475 262 182 434 167 271 339 436 684 
125 9 474 440 471 147 349 720 8 15 728 
126 9 506 394 156 310 422 658 524 227 233 
127 9 576 565 643 382 243 222 653 375 155 
128 9 79 224 379 409 522 437 404 256 584 
129 6 255 736 342 603 644 672 
130 9 189 470 225 610 261 383 707 220 25 
131 9 307 431 415 154 43 712 205 683 304 
132 9 718 726 343 385 12 561 178 509 589 
133 9 103 73 75 530 507 420 619 117 591 
134 9 676 683 708 729 239 681 704 431 113 
135 9 213 193 324 586 609 198 727 252 426 
136 9 476 109 175 311 605 74 268 411 288 
137 8 302 31 406 481 86 287 281 502 
138 9 402 713 595 725 180 734 483 600 505 
139 9 654 362 675 412 469 179 240 245 662 
140 9 257 154 415 306 625 664 683 131 307 
141 9 230 441 33 300 510 669 247 46 381 
142 9 28 577 280 51 512 706 715 178 145 
143 8 206 363 229 583 660 657 114 242 
144 9 188 456 246 252 559 426 709 99 479 
145 6 419 512 706 372 244 391 
146 9 223 196 228 299 48 123 547 176 488 
147 9 15 474 125 440 728 433 373 471 656 
148 7 163 538 697 378 32 227 422 
149 9 550 359 169 332 698 689 18 730 121 
150 6 659 354 427 277 83 450 
151 9 604 265 35 56 356 23 449 211 504 
152 9 380 711 435 649 259 153 20 87 270 
153 9 655 468 445 282 380 637 672 152 368 
154 9 415 257 131 307 140 683 431 134 205 
155 9 243 222 565 457 653 127 375 382 576 
156 9 310 658 126 422 506 524 295 394 233 
157 9 552 191 250 405 514 735 172 14 238 
158 9 63 96 692 570 110 543 294 574 199 
159 9 3 100 102 700 592 111 459 328 455 
160 9 59 289 477 217 410 52 292 221 386 
161 9 495 685 672 554 282 444 644 255 319 
162 9 68 529 321 401 254 687 318 544 534 
163 6 148 538 697 378 32 635 
164 9 200 665 594 597 183 285 696 445 4 
165 8 329 209 14 735 102 328 269 9 
166 9 560 617 170 545 347 399 13 447 497 
167 8 271 124 262 611 475 434 722 436 
168 9 21 629 122 203 276 94 19 69 275 
169 9 359 121 689 490 631 149 418 550 413 
170 9 347 710 399 166 497 560 48 547 13 
171 9 443 424 519 568 91 186 120 187 596 
172 7 191 266 500 157 248 341 552 
173 8 414 691 181 673 612 218 457 27 
174 9 721 290 107 37 88 97 421 606 291 
175 9 311 476 288 411 26 579 136 109 24 
176 9 48 299 547 228 399 223 347 123 146 
177 8 235 416 76 458 639 89 424 568 
178 8 343 718 244 132 726 512 385 577 
179 9 662 17 245 469 139 654 117 679 362 
180 7 535 725 505 595 138 713 670 
181 5 673 457 254 155 173 
182 8 475 185 434 124 339 684 262 436 
183 9 597 4 491 696 665 454 99 285 164 
184 9 7 308 390 667 467 487 77 703 273 
185 7 182 475 434 642 684 339 120 
186 9 519 596 722 686 47 120 684 262 171 
187 8 548 443 642 628 197 615 568 120 
188 9 246 456 144 426 479 371 252 559 727 
189 9 130 470 225 610 261 220 383 707 42 
190 9 326 394 72 233 506 126 489 353 156 
191 9 157 172 552 500 250 514 266 735 405 
192 6 439 621 351 484 97 291 
193 8 609 727 213 426 135 252 456 144 
194 8 677 611 334 593 36 163 167 93 
195 9 486 593 428 334 693 194 36 611 677 
196 9 223 123 146 299 488 228 176 48 547 
197 9 615 78 212 499 548 39 187 642 723 
198 9 586 135 324 661 709 213 252 609 193 
199 6 574 294 595 725 110 692 
200 9 164 445 665 594 637 597 655 279 696 
201 9 557 202 340 49 482 98 275 429 589 
202 9 340 201 557 482 49 429 275 589 509 
203 9 275 21 122 49 429 168 94 629 340 
204 9 11 425 400 462 682 701 724 714 389 
205 9 43 346 712 307 22 115 216 131 575 
206 5 660 657 583 143 229 
207 9 432 232 27 284 414 408 401 516 566 
208 9 460 403 695 461 83 427 325 298 214 
209 8 165 329 14 735 668 260 102 100 
210 7 551 737 603 123 293 651 57 
211 9 356 265 37 56 290 604 151 40 35 
212 9 78 679 723 240 493 662 6 197 499 
213 8 135 193 609 727 324 426 252 586 
214 8 452 298 106 541 584 461 404 438 
215 9 650 694 537 263 369 327 111 459 592 
216 9 115 575 563 77 546 703 487 624 390 
217 9 59 289 160 477 386 34 634 248 341 
218 8 691 612 71 478 732 413 155 653 
219 9 10 47 516 596 686 186 722 519 91 
220 9 225 350 189 313 130 518 261 470 553 
221 9 601 514 52 552 410 268 109 157 160 
222 9 653 565 155 243 375 127 382 457 576 
223 9 146 196 228 123 299 48 176 547 488 
224 9 79 128 379 404 409 437 584 522 256 
225 9 220 189 130 470 261 313 42 350 610 
226 7 539 344 647 62 287 398 481 
227 9 422 310 524 126 156 506 30 394 658 
228 9 547 48 146 223 176 299 196 123 399 
229 9 363 114 242 143 84 583 441 669 510 
230 9 141 441 33 300 382 510 643 669 247 
231 9 641 330 118 312 442 618 366 92 107 
232 9 408 91 516 432 27 207 424 89 171 
233 9 489 326 353 633 72 156 126 506 542 
234 6 515 526 119 336 236 581 
235 8 177 416 639 76 458 89 424 568 
236 6 525 274 515 336 29 636 
237 8 455 361 111 249 323 592 369 348 
238 9 528 269 358 9 405 327 250 328 694 
239 9 134 704 729 681 113 676 607 708 683 
240 9 723 679 499 412 39 139 654 662 78 
241 4 600 483 402 138 
242 9 114 229 363 669 510 247 441 583 588 
243 8 155 565 222 457 653 127 375 576 
244 2 372 145 
245 9 469 117 179 139 654 662 17 675 362 
246 8 188 456 144 426 252 727 193 479 
247 9 510 669 674 2 46 141 393 441 33 
248 9 341 634 500 66 386 266 95 286 172 
249 9 263 537 455 237 369 111 215 592 650 
250 9 405 157 735 14 238 269 552 528 329 
251 8 536 67 54 322 556 622 620 598 
252 9 144 193 609 709 426 456 727 135 246 
253 9 64 108 448 598 502 620 395 281 94 
254 5 529 181 673 68 162 
255 9 129 644 672 282 342 685 161 736 554 
256 9 409 522 12 128 132 79 343 437 718 
257 9 154 140 415 131 307 683 431 205 43 
258 9 504 670 23 449 45 517 505 35 5 
259 7 649 388 435 711 87 380 152 
260 4 14 735 209 668 
261 9 313 470 610 383 130 25 381 189 387 
262 9 124 475 722 684 271 182 120 686 167 
263 9 537 249 215 650 369 455 111 592 694 
264 9 278 345 272 57 81 384 540 651 578 
265 9 356 56 151 604 211 35 366 23 37 
266 7 172 500 248 341 286 95 66 
267 9 507 420 730 626 530 61 362 675 412 
268 9 109 601 358 411 288 311 221 238 514 
269 9 9 528 238 328 327 329 405 165 459 
270 9 20 82 41 53 87 423 569 680 337 
271 9 167 262 124 722 686 475 93 611 182 
272 9 540 264 671 545 578 166 560 607 81 
273 9 7 308 390 487 184 349 703 667 77 
274 9 525 29 636 236 336 305 564 357 580 
275 9 49 203 429 340 482 122 21 509 202 
276 9 19 69 630 371 168 479 491 629 690 
277 9 83 450 427 150 659 695 403 325 354 
278 9 345 57 651 264 737 551 123 210 299 
279 9 661 599 200 637 709 454 99 198 559 
280 9 51 715 142 577 28 706 512 391 572 
281 9 502 86 622 448 598 302 137 556 64 
282 9 672 468 685 368 153 495 655 637 255 
283 9 65 284 608 317 716 501 632 498 646 
284 8 716 65 465 317 616 16 283 501 
285 9 690 597 183 594 164 491 665 4 696 
286 7 95 66 266 341 248 634 500 
287 9 31 481 62 137 406 539 344 647 302 
288 9 411 26 451 311 109 358 175 268 24 
289 9 59 477 160 217 292 410 52 657 221 
290 9 37 174 721 421 211 606 356 56 265 
291 9 88 97 549 309 107 397 174 351 473 
292 9 410 52 657 289 477 59 160 660 206 
293 8 488 210 196 614 551 123 388 223 
294 7 110 199 574 96 535 725 595 
295 9 658 524 156 310 633 6 352 422 493 
296 9 364 90 44 602 496 700 668 100 3 
297 8 729 567 239 60 676 708 134 511 
298 9 214 452 106 541 461 584 404 438 396 
299 9 176 48 223 123 228 547 196 146 399 
300 9 33 381 25 141 643 230 383 46 707 
301 9 532 392 70 387 553 393 313 350 518 
302 9 137 406 31 86 481 281 502 287 395 
303 9 585 365 333 104 349 22 273 346 703 
304 9 712 447 13 563 546 575 617 497 43 
305 8 357 588 29 636 580 274 335 453 
306 9 664 582 140 625 257 60 154 666 683 
307 9 131 431 415 43 712 205 154 304 681 
308 9 390 487 7 184 703 77 273 467 667 
309 9 397 473 88 291 606 421 174 549 290 
310 9 156 422 658 126 506 524 295 394 227 
311 9 175 476 288 411 26 109 136 579 451 
312 9 442 118 92 483 734 231 641 330 600 
313 9 261 553 301 387 350 532 70 392 518 
314 9 520 531 732 478 84 71 363 375 513 
315 8 521 498 608 632 645 80 646 316 
316 5 571 80 444 554 319 
317 7 616 501 465 716 646 65 16 
318 9 687 544 407 425 321 400 162 534 105 
319 7 663 444 495 161 685 368 198 
320 6 699 485 627 605 417 74 
321 9 544 687 407 534 318 733 42 648 105 
322 8 556 622 54 86 536 281 251 502 
323 7 361 237 348 455 249 700 111 
324 9 135 213 198 586 609 193 727 252 398 
325 9 370 403 460 83 450 277 695 427 208 
326 9 233 489 353 72 190 492 633 126 506 
327 9 459 9 694 328 215 369 111 269 528 
328 9 9 102 459 327 269 592 111 329 369 
329 9 165 209 14 735 269 328 9 102 100 
330 9 641 231 366 118 721 312 442 92 107 
331 9 731 98 38 557 620 201 448 598 202 
332 9 698 18 149 678 689 359 73 550 169 
333 9 585 22 303 346 365 104 205 349 703 
334 8 635 194 163 538 677 428 32 652 
335 9 453 523 580 392 564 70 532 588 636 
336 9 525 274 236 515 564 705 29 636 119 
337 9 680 20 423 270 569 338 152 53 82 
338 9 112 50 337 680 717 423 562 569 385 
339 6 436 434 182 475 185 124 
340 9 202 49 482 201 275 429 557 589 203 
341 9 248 634 66 500 386 266 95 286 34 
342 6 736 259 388 129 649 603 
343 7 178 718 132 726 385 244 512 
344 9 647 539 62 226 287 398 481 31 324 
345 9 278 264 57 651 446 737 384 81 578 
346 9 22 205 43 333 585 115 216 303 575 
347 9 170 399 710 48 176 547 166 497 560 
348 7 700 361 323 237 496 44 602 
349 9 365 273 125 471 7 303 308 390 487 
350 9 518 553 70 392 301 313 532 387 220 
351 8 549 621 439 192 291 88 97 309 
352 7 480 430 533 6 295 493 524 
353 9 489 233 633 326 542 492 72 156 295 
354 2 659 150 
355 9 623 666 511 582 664 306 625 60 297 
356 9 265 56 211 151 604 37 366 35 290 
357 7 305 588 29 636 274 583 580 
358 9 238 528 411 288 268 405 269 9 694 
359 9 169 149 689 121 550 490 631 332 698 
360 4 702 558 116 508 
361 7 323 237 348 455 249 700 111 
362 9 675 654 139 412 469 240 245 179 39 
363 9 229 114 242 143 84 531 583 441 314 
364 7 296 90 44 602 668 496 700 
365 9 349 303 104 273 585 308 390 487 703 
366 9 56 330 118 638 641 721 231 265 356 
367 9 55 640 101 462 688 570 63 158 543 
368 9 468 637 445 655 282 685 495 672 153 
369 9 111 592 459 455 537 215 263 327 249 
370 9 325 460 403 450 83 277 208 695 427 
371 9 479 630 19 188 276 491 4 144 246 
372 3 244 419 145 
373 9 728 15 720 8 471 474 147 656 125 
374 9 508 567 590 578 671 81 384 558 540 
375 9 653 382 222 565 84 127 230 576 155 
376 9 724 85 701 466 472 220 518 682 105 
377 8 511 297 355 666 623 567 590 60 
378 3 697 148 163 
379 9 404 584 437 128 224 438 541 79 522 
380 9 152 711 649 435 259 153 20 87 388 
381 9 25 383 300 610 707 33 46 261 643 
382 9 375 230 576 127 643 33 653 141 565 
383 9 610 25 381 707 261 470 300 33 130 
384 9 81 578 671 446 540 508 264 345 374 
385 7 726 718 132 561 343 338 562 
386 9 634 34 341 248 66 500 217 95 266 
387 9 301 532 393 392 70 313 553 46 2 
388 7 259 649 435 711 87 342 82 
389 9 58 682 85 463 724 119 376 581 587 
390 9 308 487 184 703 7 77 467 273 667 
391 9 572 433 715 706 51 419 145 147 512 
392 9 70 532 301 553 387 350 518 393 313 
393 9 2 387 674 301 532 46 392 70 247 
394 9 506 126 310 156 422 190 227 658 233 
395 9 64 94 108 246 629 406 188 456 253 
396 9 438 541 106 437 404 584 201 557 202 
397 9 309 473 88 606 421 291 174 290 549 
398 9 647 62 344 324 539 135 213 226 198 
399 9 347 176 170 48 299 547 166 228 560 
400 9 425 407 318 687 544 11 701 204 466 
401 7 68 529 566 162 254 181 414 
402 9 138 483 600 595 713 734 725 92 180 
403 9 460 695 208 83 325 427 277 450 370 
404 9 584 379 437 541 438 396 128 224 522 
405 9 250 238 269 528 157 735 358 14 9 
406 8 31 137 302 287 426 481 727 193 
407 9 544 687 321 318 400 425 105 42 534 
408 9 91 232 516 171 424 89 568 47 76 
409 9 256 522 12 128 79 437 224 379 132 
410 9 52 292 59 221 160 289 477 601 657 
411 9 288 26 311 451 109 358 175 268 24 
412 9 362 654 139 675 240 39 499 723 469 
413 9 418 490 71 732 478 513 631 121 314 
414 6 27 173 181 673 254 529 
415 9 154 131 307 257 431 683 43 205 140 
416 7 177 235 458 76 639 89 424 
417 7 485 74 627 699 613 320 605 
418 9 413 490 631 513 121 71 732 478 314 
419 6 145 372 706 512 244 433 
420 9 675 267 362 412 530 654 139 469 117 
421 9 606 290 37 397 174 309 211 473 721 
422 9 310 524 156 658 227 126 506 295 394 
423 9 569 680 20 270 53 337 41 82 87 
424 8 568 89 628 76 171 443 187 548 
425 9 400 318 407 687 11 544 204 701 321 
426 8 456 727 193 609 246 252 144 188 
427 8 659 83 695 150 277 450 403 354 
428 9 334 635 486 652 32 538 194 163 148 
429 9 49 275 482 509 203 340 589 202 21 
430 4 480 533 352 6 
431 9 131 307 712 415 681 304 43 113 447 
432 9 207 232 516 408 10 219 91 47 27 
433 9 391 147 572 419 440 15 125 145 474 
434 6 339 436 182 475 124 185 
435 9 711 649 259 152 380 87 82 388 20 
436 5 339 434 182 124 475 
437 9 404 584 379 438 541 396 522 128 409 
438 9 541 396 437 404 584 106 379 522 12 
439 6 621 192 351 549 291 97 
440 9 125 474 147 471 349 365 15 104 720 
441 9 141 230 669 510 247 33 300 84 46 
442 9 92 312 118 734 483 5 231 638 330 
443 8 187 171 548 642 568 628 120 424 
444 7 319 663 495 161 685 571 368 
445 9 655 637 200 164 153 368 468 594 279 
446 9 345 384 81 264 578 57 278 508 558 
447 9 617 304 545 607 13 113 560 704 712 
448 9 598 620 253 502 281 64 622 108 86 
449 9 504 35 464 23 151 604 258 40 265 
450 9 277 83 427 325 150 659 403 695 101 
451 9 26 24 288 555 411 694 650 215 311 
452 8 214 298 106 584 541 404 461 438 
453 9 523 335 580 392 532 588 70 393 301 
454 9 99 696 4 599 559 183 597 665 491 
455 9 111 592 237 369 249 263 537 459 159 
456 8 246 426 188 144 252 727 193 609 
457 7 243 155 565 673 181 222 127 
458 7 639 235 177 416 76 691 218 
459 9 592 111 369 327 328 102 455 9 215 
460 9 403 208 325 695 83 427 370 277 461 
461 9 331 731 38 106 98 298 54 620 396 
462 9 688 204 101 367 640 714 11 55 425 
463 9 587 389 682 58 714 581 85 119 724 
464 9 449 35 504 40 151 604 23 258 265 
465 6 716 16 616 317 284 501 
466 9 701 105 376 724 220 225 42 189 130 
467 9 624 77 184 667 390 7 308 487 703 
468 9 282 368 153 672 655 637 445 685 495 
469 9 245 117 179 139 654 675 362 662 17 
470 9 130 189 610 261 383 707 25 225 313 
471 9 474 8 720 125 373 728 273 7 15 
472 9 518 705 350 70 553 392 564 580 335 
473 9 309 397 88 291 549 606 421 174 290 
474 9 471 125 720 8 15 728 147 373 440 
475 8 182 124 434 185 262 684 339 120 
476 9 136 175 311 109 411 288 268 26 579 
477 9 289 59 160 217 292 410 657 52 143 
478 9 732 71 314 520 531 413 612 218 418 
479 9 371 630 188 19 491 144 4 276 246 
480 4 430 352 533 6 
481 9 31 137 287 302 86 406 539 62 556 
482 9 429 589 509 49 340 275 202 203 201 
483 9 600 402 312 442 241 734 92 138 118 
484 3 618 231 97 
485 7 699 417 627 74 320 605 613 
486 9 428 334 593 194 195 693 677 36 611 
487 9 390 703 308 77 7 184 273 467 115 
488 9 293 196 614 146 223 123 210 228 299 
489 9 353 233 326 633 542 72 492 156 126 
490 9 413 418 121 631 169 71 478 513 732 
491 9 183 4 597 630 696 690 454 19 99 
492 9 72 489 542 591 353 326 233 619 633 
493 9 6 533 352 295 212 430 480 633 17 
494 9 30 394 652 32 190 126 227 506 422 
495 9 685 161 368 282 319 663 672 468 444 
496 9 602 44 90 296 348 700 364 3 100 
497 9 13 546 563 710 624 617 575 467 170 
498 9 632 315 608 521 645 80 646 719 116 
499 9 39 240 412 723 679 654 139 362 78 
500 8 248 341 172 634 266 191 66 386 
501 7 317 616 646 465 80 608 716 
502 9 281 448 598 622 86 64 302 253 137 
503 5 543 692 574 570 63 
504 9 449 258 23 35 464 151 604 517 45 
505 6 180 535 670 713 725 138 
506 9 126 394 156 310 422 658 233 524 227 
507 9 267 530 730 75 103 420 73 626 675 
508 9 374 558 384 81 578 671 590 446 567 
509 9 429 482 589 49 275 561 203 340 202 
510 9 669 247 674 2 441 46 141 393 33 
511 8 666 297 355 60 377 582 625 623 
512 8 706 145 419 244 577 178 715 372 
513 9 418 631 413 314 520 531 732 478 71 
514 9 552 221 601 157 191 250 268 405 52 
515 6 236 234 336 525 274 119 
516 9 91 219 47 10 408 596 186 171 232 
517 9 45 638 5 23 713 734 92 670 258 
518 9 350 553 70 392 532 301 313 220 387 
519 9 186 596 120 722 686 684 47 262 171 
520 9 314 531 732 478 84 71 363 375 513 
521 8 315 80 608 498 646 316 632 571 
522 9 409 256 12 437 128 79 379 404 438 
523 9 453 335 580 392 532 70 301 393 588 
524 8 658 422 310 156 295 227 126 352 
525 6 236 274 336 515 29 636 
526 5 234 581 515 119 236 
527 9 719 116 645 590 702 360 558 632 374 
528 9 238 269 9 358 327 405 328 694 459 
529 6 254 68 401 162 181 673 
530 9 103 75 420 507 267 133 117 675 362 
531 9 314 520 732 84 478 71 363 375 229 
532 9 301 392 70 387 553 393 313 350 518 
533 5 430 480 352 6 493 
534 6 733 648 321 42 544 105 
535 6 180 505 725 595 138 670 
536 7 67 251 54 322 556 622 86 
537 9 263 215 249 650 369 111 455 592 694 
538 9 32 148 163 635 652 30 227 697 378 
539 8 344 226 647 62 287 481 31 398 
540 9 671 578 81 272 384 264 374 567 345 
541 9 438 396 437 106 404 584 379 522 12 
542 9 353 489 633 17 492 233 326 72 179 
543 7 503 570 692 63 158 574 199 
544 9 407 687 321 318 400 534 105 425 42 
545 9 607 113 447 704 560 617 166 681 304 
546 9 563 575 497 624 13 216 115 77 467 
547 9 48 228 176 299 146 223 347 399 170 
548 8 187 628 443 197 615 642 61 568 
549 9 351 291 88 473 621 309 397 439 192 
550 9 149 730 359 169 507 267 332 18 689 
551 7 210 603 737 651 57 123 293 
552 9 514 157 191 250 405 221 601 172 735 
553 9 70 350 301 392 532 518 313 387 393 
554 4 644 161 571 255 
555 9 24 451 650 26 215 537 263 694 249 
556 9 86 322 622 281 481 137 302 502 31 
557 9 201 202 340 98 731 49 482 275 429 
558 8 508 360 702 374 446 384 590 81 
559 9 99 599 454 709 4 696 144 661 252 
560 9 166 617 545 170 447 347 13 497 399 
561 9 509 726 112 385 429 132 589 482 168 
562 4 569 680 423 53 
563 9 546 575 216 115 624 13 497 77 467 
564 9 580 636 705 29 335 453 523 336 274 
565 9 243 222 127 653 155 375 576 382 457 
566 9 401 68 16 162 529 465 716 284 254 
567 9 374 671 508 578 540 590 81 384 297 
568 8 424 628 89 443 76 171 187 548 
569 9 423 680 53 270 20 41 562 82 337 
570 9 63 158 543 692 503 96 110 574 199 
571 4 316 554 444 161 
572 9 391 433 715 51 706 147 440 145 280 
573 9 632 498 283 608 315 719 527 645 65 
574 7 199 692 294 595 110 725 241 
575 9 216 563 115 546 77 624 13 467 497 
576 9 643 127 382 33 300 25 565 707 381 
577 9 142 28 512 280 706 178 51 715 343 
578 9 81 671 384 540 508 264 272 374 446 
579 9 24 175 311 26 451 288 476 555 411 
580 9 335 564 453 523 636 29 305 588 705 
581 8 234 587 58 119 526 389 515 463 
582 9 625 664 306 60 666 140 708 676 729 
583 6 660 206 357 657 242 143 
584 9 404 379 437 541 438 396 128 224 522 
585 9 333 303 22 365 346 104 349 273 703 
586 9 198 135 661 709 252 324 609 193 213 
587 9 463 581 389 58 526 119 234 682 85 
588 8 305 357 636 29 453 335 523 580 
589 9 482 509 429 340 49 202 275 201 561 
590 9 374 508 558 116 567 702 360 81 384 
591 9 492 619 72 542 117 489 353 326 233 
592 9 111 369 459 455 102 159 237 327 328 
593 8 36 693 194 611 93 677 167 271 
594 9 164 200 285 665 597 445 655 183 690 
595 7 725 138 180 402 535 199 574 
596 9 186 519 686 722 47 120 262 684 271 
597 9 183 665 696 4 164 454 491 285 99 
598 9 448 620 502 622 281 253 64 108 86 
599 9 99 454 559 661 696 709 4 665 183 
600 8 483 241 402 138 312 442 734 92 
601 9 221 268 514 109 552 52 358 405 157 
602 9 496 44 90 296 364 700 348 3 100 
603 7 736 551 210 737 651 57 342 
604 9 151 265 35 56 356 23 449 211 504 
605 8 699 320 74 485 136 417 627 476 
606 9 421 290 37 397 309 174 473 211 88 
607 9 113 704 545 681 447 617 560 166 304 
608 9 521 315 498 646 632 80 501 317 65 
609 8 193 727 213 426 135 252 456 586 
610 9 383 25 707 470 261 381 130 189 300 
611 8 677 167 36 93 194 271 124 593 
612 8 218 691 71 478 732 155 653 222 
613 8 74 417 485 699 627 136 476 605 
614 9 656 488 146 196 223 293 228 373 728 
615 7 197 642 185 78 187 212 548 
616 6 317 501 465 716 16 646 
617 9 560 13 447 166 497 545 304 170 546 
618 6 97 231 484 641 107 330 
619 9 117 245 591 469 17 179 492 542 662 
620 9 598 448 38 622 253 502 281 64 108 
621 6 439 192 351 549 291 88 
622 9 281 502 598 86 448 556 620 322 302 
623 9 355 666 511 582 664 306 625 60 377 
624 9 467 77 546 563 497 184 575 667 390 
625 9 60 582 708 676 729 683 664 134 140 
626 9 61 39 499 267 412 362 675 240 654 
627 5 485 699 320 417 74 
628 8 568 548 187 424 443 89 76 61 
629 9 94 21 122 168 276 371 203 395 479 
630 9 19 276 69 371 491 479 690 4 183 
631 9 121 418 513 413 490 169 689 359 217 
632 9 498 315 608 521 645 719 527 116 573 
633 9 353 489 233 542 295 658 156 326 310 
634 9 341 248 66 386 500 95 34 266 286 
635 9 652 32 538 163 148 334 30 494 227 
636 9 29 305 580 564 588 274 357 335 453 
637 9 445 655 368 200 279 468 164 153 594 
638 9 5 45 517 92 734 23 118 442 713 
639 7 458 235 177 416 76 89 490 
640 9 101 55 688 367 462 570 543 63 450 
641 9 231 330 118 312 618 721 366 107 442 
642 7 615 185 187 684 120 182 443 
643 9 576 25 300 33 707 381 127 383 382 
644 4 554 255 161 129 
645 9 116 702 719 527 360 315 498 590 632 
646 7 501 80 608 521 317 616 316 
647 9 344 62 539 398 226 287 31 324 481 
648 7 733 534 42 189 707 130 470 
649 8 711 435 259 380 152 388 87 342 
650 9 215 537 694 263 369 327 249 111 459 
651 8 57 737 278 551 603 210 345 123 
652 9 32 635 538 30 494 148 163 227 394 
653 9 222 375 565 155 243 382 127 576 457 
654 9 139 362 675 412 469 240 245 179 662 
655 9 445 637 153 200 468 368 164 594 279 
656 9 614 15 728 373 147 146 488 223 228 
657 5 206 660 292 583 143 
658 9 524 156 310 295 422 126 506 633 352 
659 6 150 427 354 277 83 695 
660 4 206 657 583 143 
661 9 709 599 586 559 279 99 198 252 454 
662 9 179 17 679 139 723 245 240 469 654 
663 7 319 444 495 685 161 368 198 
664 9 306 582 625 140 257 60 154 666 683 
665 9 597 164 696 183 4 200 454 99 599 
666 9 355 582 623 511 664 625 60 306 708 
667 9 184 7 467 308 390 624 77 8 487 
668 3 364 209 90 
669 9 510 247 674 2 441 141 46 242 230 
670 7 505 258 713 180 45 535 517 
671 9 578 540 81 384 272 374 264 508 567 
672 9 282 685 468 368 153 495 255 161 655 
673 5 181 457 243 155 173 
674 9 2 247 46 393 510 669 387 301 532 
675 9 362 654 139 412 469 245 179 240 117 
676 9 708 729 134 683 60 239 625 681 704 
677 8 611 194 167 271 697 36 436 378 
678 9 95 698 286 332 66 34 634 341 18 
679 9 723 240 212 662 78 139 179 412 499 
680 9 423 569 337 20 270 53 562 338 41 
681 9 704 113 607 545 447 431 239 134 304 
682 9 389 85 724 58 376 701 463 11 466 
683 9 134 676 708 729 154 431 131 415 681 
684 8 120 475 182 262 185 124 519 642 
685 9 495 672 282 161 368 468 153 255 637 
686 9 722 596 186 262 271 519 47 120 124 
687 9 544 318 407 321 400 425 534 105 162 
688 9 101 640 462 55 367 204 450 277 11 
689 9 169 359 121 631 149 34 698 332 490 
690 9 285 491 717 69 183 630 19 50 597 
691 8 218 612 71 173 478 155 732 222 
692 8 158 574 63 503 199 110 543 570 
693 9 36 93 593 611 271 10 167 686 194 
694 9 215 650 327 537 369 459 263 9 111 
695 9 427 403 83 208 460 659 277 150 450 
696 9 4 454 183 597 99 665 599 491 559 
697 3 378 148 163 
698 9 332 18 678 149 689 359 550 73 34 
699 6 320 485 605 627 74 417 
700 9 3 100 159 44 348 90 102 496 602 
701 9 466 724 376 105 85 682 220 400 225 
702 6 360 116 558 645 590 508 
703 9 487 390 77 308 115 184 7 216 467 
704 9 113 681 607 545 447 239 431 617 134 
705 9 564 472 336 580 119 636 335 453 523 
706 9 512 145 715 419 51 391 280 577 572 
707 9 25 383 610 381 470 643 261 300 130 
708 9 676 729 134 683 60 239 625 681 154 
709 9 661 559 252 599 99 586 144 454 198 
710 9 170 497 347 624 13 467 546 563 667 
711 9 435 649 152 380 259 87 388 82 20 
712 9 304 43 575 205 563 216 307 431 447 
713 9 138 734 5 45 402 180 505 670 638 
714 9 463 462 587 204 682 389 11 58 85 
715 9 51 280 391 706 572 512 145 433 142 
716 7 465 284 317 616 16 65 501 
717 9 50 690 112 69 285 19 338 630 276 
718 7 343 726 132 178 385 244 561 
719 9 527 116 645 702 590 360 632 498 315 
720 9 8 471 373 474 728 667 7 184 15 
721 9 174 330 107 290 641 366 231 37 56 
722 9 686 262 596 186 271 519 120 124 684 
723 9 679 240 212 78 662 499 139 412 654 
724 9 376 701 85 466 682 472 220 105 389 
725 7 595 180 535 138 402 505 713 
726 7 385 718 132 343 561 178 112 
727 8 193 609 426 213 252 135 456 246 
728 9 373 15 720 8 474 471 147 656 125 
729 9 676 708 134 239 683 60 625 681 704 
730 9 507 267 550 626 75 420 61 530 103 
731 9 98 331 38 557 201 202 620 340 253 
732 9 478 71 314 520 531 413 418 612 218 
733 5 534 648 42 321 189 
734 9 92 442 5 118 713 638 312 402 45 
735 9 14 250 329 165 209 405 260 269 157 
736 6 342 603 129 388 259 551 
737 8 651 57 551 210 603 278 345 123 
DEPOT_SECTION
   1
   -1
EOF
