NAME :  X-n856-kX-w85-c7.cctp
COMMENT : 	Adapted by Maziero, Usberti and Cavellucci from the Uchoa, Pecin, Pessoa, Poggi, Subramanian, and Vidal (2013)
TYPE :  CCTP
DIMENSION :    372
EDGE_WEIGHT_TYPE : 	EUC_2D	
CAPACITY : 	9
VERTICES_WITHIN_COVERAGE :  7
VERTICES_WITH_DEMAND : 	85
NODE_COORD_SECTION
1 500 500
2 440 732
3 221 348
4 117 545
5 493 645
6 135 12
7 775 997
8 745 444
9 950 311
10 530 150
11 900 508
12 48 519
13 269 217
14 722 349
15 480 733
16 977 422
17 999 220
18 636 332
19 851 162
20 559 567
21 389 69
22 529 835
23 303 427
24 400 638
25 894 904
26 482 109
27 579 800
28 184 82
29 669 753
30 906 424
31 374 692
32 174 613
33 75 37
34 38 563
35 838 157
36 710 709
37 176 67
38 449 326
39 71 389
40 710 115
41 237 547
42 530 27
43 631 223
44 171 342
45 226 65
46 6 998
47 24 635
48 668 165
49 318 608
50 429 82
51 212 237
52 853 126
53 387 47
54 677 144
55 111 790
56 957 32
57 511 647
58 457 561
59 86 687
60 290 456
61 473 563
62 807 725
63 461 468
64 739 235
65 257 340
66 588 545
67 6 311
68 268 976
69 552 414
70 994 946
71 452 534
72 422 545
73 248 611
74 43 366
75 977 96
76 822 580
77 940 650
78 86 263
79 715 99
80 668 981
81 424 638
82 297 607
83 251 282
84 237 413
85 202 573
86 181 385
87 126 528
88 978 846
89 333 357
90 627 268
91 978 59
92 42 595
93 870 933
94 165 679
95 319 417
96 187 376
97 251 482
98 657 219
99 209 397
100 566 559
101 490 156
102 216 547
103 964 677
104 938 222
105 569 59
106 616 306
107 604 995
108 778 101
109 462 74
110 87 682
111 608 430
112 511 313
113 710 300
114 598 824
115 995 622
116 258 981
117 279 169
118 286 268
119 259 659
120 782 132
121 457 603
122 210 438
123 44 44
124 527 818
125 39 282
126 323 340
127 333 488
128 517 137
129 122 280
130 159 655
131 446 283
132 158 374
133 26 353
134 959 76
135 437 138
136 922 499
137 970 664
138 8 561
139 989 908
140 10 960
141 842 190
142 286 965
143 199 373
144 159 67
145 979 25
146 488 479
147 804 620
148 528 160
149 223 342
150 503 159
151 711 681
152 342 509
153 766 953
154 710 172
155 521 451
156 639 155
157 269 241
158 825 761
159 901 124
160 692 19
161 949 178
162 79 795
163 833 852
164 336 444
165 877 0
166 296 597
167 939 827
168 908 120
169 50 741
170 753 744
171 577 351
172 141 616
173 97 625
174 496 160
175 515 598
176 274 510
177 74 609
178 525 743
179 260 385
180 1 346
181 231 504
182 837 572
183 606 473
184 477 169
185 383 59
186 510 410
187 890 101
188 952 635
189 825 722
190 68 598
191 172 367
192 84 19
193 694 916
194 454 412
195 261 233
196 693 375
197 588 854
198 276 538
199 599 569
200 739 325
201 638 182
202 858 93
203 37 599
204 439 570
205 597 608
206 65 330
207 620 129
208 339 681
209 469 749
210 799 594
211 692 130
212 5 946
213 219 305
214 759 951
215 582 18
216 899 286
217 512 358
218 220 951
219 503 801
220 483 402
221 483 722
222 13 301
223 857 739
224 51 422
225 818 797
226 302 646
227 474 101
228 817 66
229 948 686
230 153 503
231 740 970
232 920 879
233 268 373
234 539 352
235 605 457
236 563 524
237 861 875
238 700 810
239 160 753
240 985 455
241 981 276
242 708 646
243 777 725
244 853 773
245 743 430
246 301 574
247 38 983
248 575 209
249 10 683
250 745 333
251 616 311
252 537 110
253 531 647
254 609 356
255 534 11
256 436 279
257 340 578
258 971 282
259 389 628
260 633 578
261 219 471
262 619 737
263 700 50
264 722 223
265 112 450
266 857 66
267 81 295
268 829 981
269 645 700
270 277 268
271 459 81
272 573 211
273 368 81
274 262 451
275 842 703
276 780 254
277 653 177
278 763 432
279 615 183
280 629 543
281 822 574
282 355 86
283 519 683
284 111 12
285 957 366
286 265 184
287 985 701
288 551 214
289 422 750
290 196 122
291 960 334
292 421 756
293 732 438
294 286 3
295 19 558
296 921 499
297 876 405
298 467 684
299 625 441
300 95 48
301 137 252
302 769 375
303 925 421
304 117 30
305 119 18
306 614 521
307 772 461
308 916 509
309 983 447
310 96 17
311 671 926
312 93 287
313 795 581
314 119 223
315 80 58
316 123 266
317 683 363
318 187 62
319 918 677
320 909 427
321 937 395
322 647 389
323 705 454
324 154 38
325 112 263
326 908 625
327 422 744
328 168 96
329 278 215
330 826 582
331 204 336
332 724 356
333 131 31
334 245 352
335 220 93
336 208 26
337 903 248
338 180 59
339 199 69
340 754 759
341 315 718
342 262 65
343 533 687
344 140 44
345 575 779
346 73 13
347 474 772
348 684 471
349 953 616
350 967 425
351 82 60
352 497 721
353 529 867
354 274 236
355 813 702
356 210 304
357 905 380
358 831 580
359 399 106
360 139 43
361 170 77
362 959 379
363 769 970
364 341 453
365 884 435
366 745 448
367 118 13
368 695 341
369 912 446
370 568 430
371 821 687
372 411 722
DEMAND_SECTION
2 1
3 1
4 1
5 1
6 1
7 1
8 1
9 1
10 1
11 1
12 1
13 1
14 1
15 1
16 1
17 1
18 1
19 1
20 1
21 1
22 1
23 1
24 1
25 1
26 1
27 1
28 1
29 1
30 1
31 1
32 1
33 1
34 1
35 1
36 1
37 1
38 1
39 1
40 1
41 1
42 1
43 1
44 1
45 1
46 1
47 1
48 1
49 1
50 1
51 1
52 1
53 1
54 1
55 1
56 1
57 1
58 1
59 1
60 1
61 1
62 1
63 1
64 1
65 1
66 1
67 1
68 1
69 1
70 1
71 1
72 1
73 1
74 1
75 1
76 1
77 1
78 1
79 1
80 1
81 1
82 1
83 1
84 1
85 1
86 1
COVERAGE_SECTION
2 7 327 289 292 372 209 15 221 
3 7 149 331 334 143 65 213 96 
4 7 87 230 190 12 172 177 34 
5 7 57 253 283 298 175 121 343 
6 7 305 367 333 284 304 360 324 
7 7 363 231 153 214 268 80 93 
8 6 366 245 293 278 307 323 
9 5 291 258 241 285 216 
10 7 148 128 150 174 101 252 184 
11 3 308 296 136 
12 7 34 295 138 4 92 87 190 
13 6 329 195 354 157 286 117 
14 7 332 250 368 200 196 317 113 
15 7 221 209 352 347 2 178 298 
16 3 350 309 240 
17 7 241 104 161 258 337 9 216 
18 7 251 106 254 317 322 368 171 
19 7 35 141 52 159 202 168 187 
20 7 100 66 199 236 175 205 306 
21 7 185 53 273 282 359 50 271 
22 3 124 353 219 
23 7 95 60 164 364 274 179 233 
24 7 259 81 31 121 208 204 298 
25 7 232 93 237 163 167 139 268 
26 7 227 271 109 128 101 174 135 
27 5 345 114 124 197 22 
28 7 361 37 318 339 328 338 144 
29 5 262 269 36 238 151 
30 4 320 303 369 365 
31 7 208 372 24 341 259 327 81 
32 7 172 130 85 94 73 102 173 
33 7 192 315 300 346 351 310 123 
34 7 295 138 92 203 12 190 177 
35 7 19 141 52 120 202 159 187 
36 7 151 170 29 242 269 340 243 
37 7 338 318 361 28 144 339 328 
38 6 131 256 112 217 220 194 
39 6 74 224 133 206 265 180 
40 7 79 211 54 154 48 263 108 
41 7 102 198 181 85 176 73 97 
42 7 255 105 215 109 252 271 227 
43 7 98 201 279 90 277 248 272 
44 7 191 331 132 96 143 86 3 
45 7 339 335 342 318 336 28 338 
46 3 247 140 212 
47 7 203 92 249 177 190 34 173 
48 7 277 54 156 201 211 154 98 
49 7 82 166 257 246 226 73 259 
50 7 271 109 359 21 227 185 53 
51 6 195 157 13 83 354 356 
52 7 202 35 19 187 159 168 266 
53 7 185 21 273 282 50 359 109 
54 7 211 48 156 277 154 40 201 
55 2 162 239 
56 6 145 91 134 75 165 187 
57 6 5 253 283 343 175 298 
58 7 61 204 71 72 121 175 81 
59 7 110 173 169 249 94 177 130 
60 7 274 23 97 164 95 364 127 
61 7 58 204 71 121 72 175 5 
62 7 189 355 243 158 371 275 223 
63 7 146 194 155 71 220 186 72 
64 6 264 276 154 113 98 200 
65 7 334 149 233 3 179 213 331 
66 7 100 199 236 306 20 280 260 
67 6 222 180 125 133 206 74 
68 3 116 142 218 
69 7 370 186 155 111 234 171 235 
70 7 139 232 88 25 93 167 237 
71 7 58 72 61 204 146 63 121 
72 7 204 71 58 61 121 63 152 
73 7 82 119 166 85 226 41 246 
74 7 133 39 206 180 224 67 222 
75 7 134 91 56 145 168 159 161 
76 6 330 281 358 182 210 313 
77 7 188 137 319 103 349 229 326 
78 6 312 325 267 316 129 125 
79 7 40 211 263 54 108 154 120 
80 4 311 107 193 231 
81 7 24 259 121 298 5 204 31 
82 7 166 49 246 226 73 257 119 
83 7 270 118 213 157 356 195 354 
84 7 99 179 122 274 233 143 261 
85 7 102 41 32 73 172 181 198 
86 7 96 191 143 132 99 44 3 
87 7 4 230 12 265 85 172 190 
88 5 167 139 232 70 25 
89 5 126 95 233 23 65 
90 4 106 251 43 98 
91 6 134 56 145 75 168 187 
92 7 203 190 34 177 47 295 138 
93 7 25 237 268 232 163 153 363 
94 3 130 32 172 
95 7 23 164 364 60 89 274 179 
96 7 86 143 191 132 99 44 331 
97 7 181 274 261 176 60 122 198 
98 7 43 201 277 48 279 90 264 
99 7 143 86 96 84 122 191 3 
100 7 20 66 199 236 205 306 175 
101 7 174 150 184 128 148 10 26 
102 7 41 85 181 198 176 73 97 
103 4 137 229 287 77 
104 7 337 161 17 258 241 216 9 
105 4 215 42 255 252 
106 4 251 18 90 254 
107 1 80 
108 7 120 228 79 40 52 202 35 
109 7 271 227 50 26 135 359 21 
110 7 59 173 169 177 130 249 94 
111 7 299 235 370 183 322 69 254 
112 6 217 234 38 131 171 256 
113 7 200 368 250 14 332 317 64 
114 5 27 197 345 22 124 
115 4 349 188 137 77 
116 3 68 142 218 
117 3 286 329 13 
118 7 270 157 354 83 195 13 329 
119 5 226 73 82 166 49 
120 7 108 35 52 40 19 79 228 
121 7 204 58 61 81 5 175 24 
122 7 261 84 99 274 86 97 96 
123 1 33 
124 4 22 219 353 27 
125 6 222 67 267 78 312 206 
126 3 89 233 65 
127 7 152 364 164 60 176 23 95 
128 7 10 148 150 174 101 252 26 
129 5 316 325 312 301 78 
130 6 94 172 32 173 110 59 
131 2 256 38 
132 7 191 86 96 44 143 99 331 
133 7 74 180 206 67 222 39 125 
134 6 91 75 56 145 168 187 
135 7 359 184 227 26 101 50 271 
136 3 296 308 11 
137 5 103 229 77 188 287 
138 7 295 34 92 203 12 190 47 
139 7 70 88 232 25 167 93 237 
140 3 212 247 46 
141 7 19 35 52 120 337 159 276 
142 2 68 116 
143 7 96 86 99 191 3 331 149 
144 6 361 37 338 318 28 324 
145 6 56 91 134 75 165 187 
146 7 63 155 71 186 194 220 61 
147 6 210 313 76 330 358 281 
148 7 10 128 150 174 101 252 184 
149 7 3 331 334 65 213 143 356 
150 7 174 101 148 128 10 184 26 
151 3 36 242 269 
152 7 127 364 164 176 257 198 60 
153 6 214 363 231 7 268 193 
154 7 48 54 211 264 40 277 64 
155 7 186 146 69 370 63 220 194 
156 7 277 201 48 207 279 54 211 
157 7 354 195 13 270 329 118 83 
158 7 244 225 189 223 62 243 275 
159 6 168 187 52 202 19 35 
160 4 263 79 40 215 
161 7 104 17 168 159 337 75 187 
162 2 55 169 
163 5 237 225 25 244 93 
164 7 364 95 23 127 60 152 274 
165 5 266 56 228 202 187 
166 7 82 246 49 257 226 73 198 
167 5 88 232 25 237 139 
168 6 159 187 52 202 134 19 
169 5 162 59 110 249 55 
170 7 340 243 36 62 355 158 189 
171 6 254 234 251 106 18 217 
172 7 32 130 173 94 177 4 85 
173 7 177 190 172 110 59 92 203 
174 7 101 150 184 128 148 10 26 
175 7 57 5 253 20 61 121 100 
176 7 198 97 181 41 60 274 127 
177 7 190 173 92 203 47 34 172 
178 3 352 15 221 
179 7 233 84 334 65 99 3 149 
180 7 133 67 74 222 206 125 39 
181 7 97 261 41 176 102 198 274 
182 4 358 281 330 76 
183 7 235 299 111 306 370 236 66 
184 7 101 174 150 128 135 148 10 
185 6 21 53 273 282 359 50 
186 7 220 69 155 217 194 370 234 
187 6 159 168 202 52 266 19 
188 6 77 349 137 103 115 326 
189 7 62 355 275 371 223 158 243 
190 7 177 92 203 173 34 47 295 
191 7 132 96 86 44 143 331 99 
192 7 310 346 33 284 300 304 305 
193 2 311 80 
194 7 220 63 186 146 155 217 38 
195 7 157 354 13 329 270 118 51 
196 7 317 368 332 14 322 250 200 
197 2 114 27 
198 7 176 41 246 181 97 102 166 
199 7 66 100 260 205 20 280 306 
200 6 250 14 332 113 368 302 
201 7 277 279 156 48 43 98 54 
202 6 266 52 187 228 159 168 
203 7 92 190 34 47 177 295 138 
204 7 58 72 61 71 121 81 259 
205 5 199 260 20 100 66 
206 6 267 74 133 312 125 39 
207 7 156 279 201 277 54 48 211 
208 7 31 341 226 259 24 49 119 
209 6 15 347 221 2 352 289 
210 6 313 147 76 281 330 358 
211 7 54 40 79 48 154 156 277 
212 3 140 247 46 
213 7 356 331 149 83 3 65 334 
214 6 153 363 231 7 193 268 
215 4 105 255 42 252 
216 3 337 9 258 
217 7 234 112 186 220 171 69 38 
218 3 116 68 142 
219 3 124 347 22 
220 7 186 194 217 155 63 69 234 
221 6 15 352 209 298 2 178 
222 5 67 125 180 133 206 
223 5 244 189 158 275 62 
224 7 39 74 265 133 180 206 12 
225 7 158 244 163 223 62 340 189 
226 7 82 49 119 166 208 73 246 
227 7 26 271 109 50 135 128 101 
228 5 266 202 108 52 120 
229 5 103 137 319 77 287 
230 7 87 4 265 261 102 181 85 
231 7 214 363 153 7 193 80 311 
232 7 25 167 237 88 93 139 163 
233 7 179 334 65 84 3 149 23 
234 6 217 171 112 69 186 254 
235 7 183 299 111 370 306 69 236 
236 7 66 100 20 306 199 183 280 
237 7 163 25 93 232 225 167 244 
238 2 29 340 
239 1 55 
240 3 309 16 350 
241 7 258 9 17 291 104 216 337 
242 2 151 36 
243 7 62 170 340 355 189 371 158 
244 5 158 223 225 189 62 
245 6 8 293 366 278 307 323 
246 7 166 82 49 257 198 73 41 
247 3 46 140 212 
248 5 272 288 279 43 148 
249 7 47 169 59 110 203 92 177 
250 6 200 14 332 113 302 368 
251 4 106 18 90 254 
252 7 128 10 148 26 105 150 227 
253 5 57 5 283 343 175 
254 7 171 18 251 106 322 234 111 
255 5 42 215 105 109 252 
256 2 131 38 
257 7 49 246 166 82 152 259 198 
258 7 241 9 291 17 104 216 337 
259 7 24 81 31 257 121 208 49 
260 4 199 280 205 66 
261 7 97 122 181 274 84 176 60 
262 4 269 29 345 27 
263 4 160 79 40 211 
264 7 64 154 98 276 113 48 277 
265 7 224 230 39 87 132 12 4 
266 6 202 228 187 52 165 159 
267 6 312 78 206 125 129 325 
268 7 7 363 93 153 214 231 25 
269 4 262 29 36 151 
270 7 118 157 83 354 195 13 329 
271 7 109 227 50 26 135 359 21 
272 5 248 288 279 43 148 
273 5 282 21 185 53 359 
274 7 60 97 84 261 23 122 176 
275 6 189 371 355 223 62 158 
276 4 64 264 200 113 
277 7 201 48 156 279 54 98 43 
278 5 245 8 366 307 293 
279 7 201 156 277 43 248 272 207 
280 4 306 260 199 66 
281 6 76 330 358 182 313 210 
282 5 273 21 185 359 53 
283 5 343 57 253 352 5 
284 7 367 305 310 304 6 192 333 
285 6 362 291 321 357 9 16 
286 5 117 13 329 195 354 
287 4 103 137 229 77 
288 5 272 248 148 10 279 
289 4 292 327 2 372 
290 3 328 335 28 
291 6 9 285 362 258 241 321 
292 4 289 327 2 372 
293 7 8 245 366 323 278 307 348 
294 3 342 336 45 
295 7 138 34 92 203 12 190 177 
296 3 136 308 11 
297 2 365 30 
298 7 221 5 352 15 283 2 57 
299 7 111 235 183 322 370 348 69 
300 6 315 351 33 304 192 310 
301 6 316 325 129 314 78 312 
302 3 250 332 14 
303 4 320 30 369 321 
304 7 305 333 367 284 6 310 360 
305 7 367 284 304 6 333 310 360 
306 7 280 66 183 199 236 260 100 
307 4 278 366 8 245 
308 3 296 136 11 
309 3 240 16 350 
310 7 192 284 367 305 346 304 33 
311 2 193 80 
312 5 267 78 129 325 316 
313 5 210 76 281 330 358 
314 5 301 325 316 78 129 
315 3 351 300 33 
316 6 325 129 301 78 312 314 
317 7 196 368 14 332 322 18 200 
318 7 338 37 339 28 361 144 45 
319 6 229 77 103 326 137 188 
320 4 30 303 369 365 
321 6 362 303 285 357 30 350 
322 7 317 196 254 299 111 18 368 
323 6 348 293 366 8 245 278 
324 6 344 360 333 144 6 338 
325 6 316 129 78 301 312 314 
326 3 77 188 349 
327 5 289 292 2 372 209 
328 4 361 28 37 144 
329 6 13 354 195 157 286 117 
330 6 76 358 281 182 210 313 
331 7 149 3 356 44 213 143 96 
332 7 14 250 368 200 196 317 302 
333 6 304 360 344 305 6 367 
334 7 65 3 149 233 179 331 143 
335 5 45 339 28 290 318 
336 7 318 45 338 339 37 324 28 
337 6 216 104 258 9 241 141 
338 7 318 37 339 361 144 28 324 
339 7 318 28 338 37 45 361 335 
340 7 170 243 62 36 158 225 238 
341 4 208 31 226 119 
342 2 45 335 
343 4 283 253 57 352 
344 6 360 324 333 304 144 6 
345 4 27 114 262 124 
346 7 192 310 33 284 300 123 367 
347 3 209 15 219 
348 5 323 293 366 299 8 
349 5 188 77 115 326 137 
350 3 16 309 240 
351 3 315 300 33 
352 5 221 15 178 209 283 
353 1 22 
354 7 157 195 13 329 270 118 83 
355 7 371 189 62 275 243 223 158 
356 7 213 331 149 3 83 44 65 
357 4 321 297 30 303 
358 6 330 76 182 281 210 313 
359 7 21 50 273 282 135 185 53 
360 6 344 333 324 304 6 144 
361 7 37 28 144 328 338 318 339 
362 6 285 321 291 16 350 303 
363 6 153 214 7 231 268 193 
364 7 164 127 95 23 60 152 274 
365 1 30 
366 6 8 293 245 278 307 323 
367 7 305 284 6 304 310 333 192 
368 7 317 14 332 196 113 200 250 
369 3 320 30 303 
370 7 69 111 235 155 183 299 186 
371 6 355 275 189 62 243 223 
372 5 327 289 2 292 31 
DEPOT_SECTION
   1
   -1
EOF
