NAME :  X-n801-kX-w80-c11.cctp
COMMENT : 	Adapted by Maziero, Usberti and Cavellucci from the Uchoa, Pecin, Pessoa, Poggi, Subramanian, and Vidal (2013)
TYPE :  CCTP
DIMENSION :    575
EDGE_WEIGHT_TYPE : 	EUC_2D	
CAPACITY : 	20
VERTICES_WITHIN_COVERAGE :  11
VERTICES_WITH_DEMAND : 	80
NODE_COORD_SECTION
1 0 0
2 674 825
3 549 534
4 43 315
5 542 420
6 45 580
7 180 450
8 369 618
9 287 721
10 36 426
11 680 338
12 42 81
13 942 119
14 247 68
15 432 549
16 514 857
17 554 976
18 103 728
19 271 73
20 310 859
21 874 538
22 358 642
23 989 42
24 538 271
25 854 443
26 596 563
27 827 228
28 380 40
29 152 224
30 726 258
31 981 544
32 600 381
33 629 799
34 488 12
35 100 542
36 37 272
37 847 980
38 949 124
39 787 917
40 111 958
41 571 968
42 2 409
43 95 2
44 318 447
45 271 856
46 873 697
47 34 274
48 733 17
49 620 125
50 611 334
51 66 848
52 507 711
53 993 152
54 596 683
55 605 980
56 372 833
57 968 699
58 36 620
59 518 566
60 138 457
61 828 421
62 467 39
63 626 645
64 192 923
65 56 363
66 252 349
67 202 896
68 999 331
69 843 462
70 83 975
71 475 135
72 601 55
73 578 43
74 480 854
75 124 825
76 121 228
77 355 326
78 291 944
79 784 563
80 260 251
81 472 918
82 539 592
83 930 315
84 429 292
85 79 779
86 114 765
87 948 685
88 550 915
89 541 935
90 216 85
91 106 843
92 174 744
93 699 379
94 721 10
95 18 53
96 755 58
97 928 666
98 347 805
99 360 600
100 938 556
101 422 848
102 391 807
103 712 230
104 992 823
105 80 246
106 367 837
107 865 661
108 956 582
109 977 663
110 930 343
111 896 542
112 62 636
113 914 195
114 46 591
115 102 825
116 822 527
117 975 128
118 26 941
119 314 34
120 787 474
121 512 291
122 718 832
123 244 931
124 534 425
125 585 799
126 513 990
127 641 633
128 254 283
129 702 44
130 109 823
131 26 270
132 333 949
133 132 174
134 203 842
135 575 723
136 320 523
137 488 947
138 376 858
139 540 797
140 52 401
141 491 459
142 636 652
143 813 892
144 403 311
145 201 878
146 894 2
147 515 142
148 701 895
149 143 590
150 612 652
151 650 986
152 676 219
153 174 236
154 204 25
155 409 434
156 405 549
157 810 191
158 129 755
159 499 596
160 61 519
161 29 34
162 843 640
163 520 251
164 385 685
165 908 111
166 234 353
167 467 896
168 277 981
169 194 265
170 850 444
171 131 847
172 627 401
173 267 788
174 805 211
175 61 985
176 402 812
177 956 593
178 907 977
179 670 71
180 863 184
181 74 25
182 741 581
183 38 919
184 963 467
185 979 558
186 4 676
187 311 756
188 235 42
189 848 461
190 293 234
191 274 248
192 800 608
193 342 852
194 623 95
195 258 221
196 444 16
197 821 540
198 939 766
199 157 549
200 106 921
201 961 583
202 619 540
203 507 97
204 44 843
205 817 913
206 115 221
207 200 58
208 38 628
209 479 404
210 332 129
211 929 145
212 269 260
213 583 421
214 424 47
215 715 796
216 240 26
217 743 62
218 976 456
219 54 828
220 191 890
221 384 316
222 563 779
223 205 892
224 368 18
225 506 481
226 622 691
227 890 793
228 182 900
229 530 981
230 540 313
231 78 213
232 456 978
233 99 363
234 623 878
235 379 61
236 792 953
237 373 793
238 330 512
239 22 7
240 445 147
241 431 90
242 659 423
243 724 233
244 906 970
245 476 43
246 522 237
247 571 317
248 280 476
249 571 424
250 452 500
251 743 544
252 493 777
253 762 39
254 473 60
255 570 414
256 226 169
257 12 159
258 627 681
259 589 346
260 563 637
261 361 119
262 776 929
263 183 433
264 697 48
265 3 800
266 361 10
267 499 410
268 601 34
269 73 124
270 908 439
271 203 835
272 661 144
273 104 892
274 329 906
275 41 229
276 320 770
277 191 805
278 72 237
279 491 176
280 391 682
281 828 526
282 765 225
283 903 78
284 223 461
285 201 270
286 261 879
287 152 937
288 573 385
289 724 568
290 159 283
291 585 768
292 459 705
293 215 862
294 150 407
295 274 443
296 565 501
297 230 119
298 662 102
299 252 72
300 737 554
301 110 348
302 232 480
303 598 686
304 327 371
305 267 682
306 383 829
307 897 166
308 869 417
309 244 30
310 809 255
311 340 996
312 32 602
313 916 104
314 77 731
315 489 744
316 330 707
317 600 540
318 803 954
319 123 430
320 998 17
321 229 468
322 67 511
323 448 185
324 680 762
325 752 263
326 724 44
327 911 15
328 29 685
329 563 589
330 972 125
331 61 393
332 536 881
333 963 57
334 690 225
335 759 430
336 535 47
337 468 19
338 810 233
339 753 13
340 217 331
341 747 415
342 106 630
343 207 218
344 242 335
345 249 118
346 118 982
347 15 459
348 52 684
349 990 159
350 325 995
351 123 903
352 544 369
353 582 67
354 676 344
355 447 520
356 675 775
357 723 323
358 624 108
359 431 317
360 531 961
361 401 76
362 493 604
363 125 188
364 558 463
365 646 587
366 736 62
367 270 234
368 100 418
369 154 568
370 396 895
371 890 116
372 363 882
373 9 260
374 238 33
375 101 723
376 564 169
377 101 247
378 79 258
379 806 598
380 465 7
381 571 33
382 858 934
383 498 115
384 270 966
385 897 98
386 659 168
387 6 579
388 33 841
389 846 736
390 524 301
391 154 997
392 945 365
393 248 354
394 206 831
395 351 798
396 542 321
397 515 23
398 167 912
399 910 515
400 542 619
401 855 937
402 735 333
403 950 557
404 880 441
405 877 400
406 771 528
407 592 578
408 520 681
409 175 953
410 276 21
411 476 514
412 326 299
413 589 781
414 960 350
415 0 291
416 65 496
417 329 24
418 811 359
419 113 342
420 120 573
421 298 609
422 731 893
423 763 273
424 702 61
425 880 426
426 719 232
427 955 689
428 34 817
429 105 22
430 361 870
431 553 819
432 19 838
433 80 424
434 173 767
435 906 426
436 990 111
437 92 895
438 986 670
439 974 197
440 870 188
441 612 890
442 348 284
443 973 109
444 34 437
445 137 997
446 474 63
447 300 335
448 866 249
449 528 91
450 140 964
451 25 937
452 848 367
453 486 786
454 857 918
455 357 860
456 823 709
457 77 809
458 516 380
459 261 767
460 619 645
461 754 57
462 692 838
463 193 932
464 738 941
465 811 360
466 487 965
467 444 940
468 182 954
469 85 539
470 950 549
471 601 86
472 238 877
473 543 987
474 494 134
475 562 925
476 838 282
477 834 210
478 375 833
479 568 225
480 106 594
481 675 986
482 835 632
483 272 373
484 299 740
485 482 600
486 255 448
487 834 470
488 117 696
489 837 469
490 345 585
491 476 565
492 271 417
493 877 492
494 605 578
495 607 721
496 54 581
497 7 37
498 529 997
499 962 671
500 82 75
501 1000 703
502 607 536
503 764 227
504 827 744
505 788 463
506 450 136
507 72 466
508 119 348
509 32 58
510 178 910
511 686 207
512 276 358
513 683 682
514 707 282
515 141 999
516 558 169
517 403 688
518 315 671
519 827 880
520 641 950
521 611 668
522 313 616
523 928 521
524 350 295
525 595 904
526 978 460
527 260 800
528 302 615
529 653 302
530 5 126
531 512 800
532 541 691
533 559 690
534 24 21
535 465 522
536 125 178
537 868 947
538 636 919
539 790 245
540 244 833
541 244 666
542 870 543
543 606 359
544 532 975
545 555 276
546 537 457
547 120 51
548 502 636
549 859 508
550 42 675
551 999 300
552 908 736
553 735 980
554 459 564
555 49 877
556 483 587
557 945 557
558 602 2
559 633 936
560 814 486
561 69 478
562 193 411
563 109 653
564 40 10
565 334 499
566 443 482
567 187 290
568 262 691
569 814 908
570 171 930
571 893 96
572 205 410
573 115 986
574 745 541
575 77 338
DEMAND_SECTION
2 1
3 1
4 1
5 1
6 1
7 1
8 1
9 1
10 1
11 1
12 1
13 1
14 1
15 1
16 1
17 1
18 1
19 1
20 1
21 1
22 1
23 1
24 1
25 1
26 1
27 1
28 1
29 1
30 1
31 1
32 1
33 1
34 1
35 1
36 1
37 1
38 1
39 1
40 1
41 1
42 1
43 1
44 1
45 1
46 1
47 1
48 1
49 1
50 1
51 1
52 1
53 1
54 1
55 1
56 1
57 1
58 1
59 1
60 1
61 1
62 1
63 1
64 1
65 1
66 1
67 1
68 1
69 1
70 1
71 1
72 1
73 1
74 1
75 1
76 1
77 1
78 1
79 1
80 1
81 1
COVERAGE_SECTION
2 8 462 122 215 356 33 324 234 148 
3 9 296 59 317 26 329 502 82 407 225 
4 11 575 47 36 131 415 65 373 378 233 301 419 
5 11 124 249 255 546 213 267 364 288 458 352 141 
6 10 496 114 312 387 58 208 469 112 160 480 
7 10 263 562 60 284 572 294 321 302 319 486 
8 11 99 22 490 522 528 280 164 421 518 156 517 
9 9 484 568 187 305 316 459 518 276 173 
10 10 444 140 42 347 331 433 507 561 368 65 
11 11 354 93 529 357 402 514 50 543 172 242 32 
12 9 509 95 500 161 269 497 530 534 181 
13 11 38 211 313 330 443 117 165 436 385 371 571 
14 11 299 19 188 90 374 309 216 207 345 297 410 
15 11 156 554 355 535 491 250 411 556 566 485 159 
16 10 332 74 431 531 167 139 88 81 453 89 
17 11 473 41 544 229 360 498 89 126 55 475 88 
18 11 375 314 488 158 86 85 348 92 563 434 550 
19 11 299 14 188 345 309 374 410 90 216 119 297 
20 11 193 45 455 274 430 286 372 106 98 138 56 
21 11 542 111 549 399 493 281 116 197 523 100 557 
22 11 8 99 164 280 518 522 490 528 517 421 316 
23 11 320 333 436 443 327 330 117 13 38 283 313 
24 9 545 163 121 390 246 230 396 479 247 
25 11 170 189 69 404 308 425 489 61 487 405 270 
26 9 407 494 317 502 202 329 3 365 82 
27 10 338 477 174 310 157 539 448 476 180 440 
28 11 235 224 266 361 214 417 119 196 241 261 62 
29 10 153 76 206 363 536 133 343 377 169 290 
30 11 243 325 426 103 514 423 334 503 282 152 357 
31 11 185 470 403 557 201 100 108 177 523 399 184 
32 10 543 288 172 259 213 255 50 249 352 5 
33 10 125 413 2 356 291 324 222 462 234 431 
34 11 337 380 397 245 62 196 254 446 336 214 381 
35 10 469 420 160 322 480 199 416 369 496 149 
36 11 47 131 373 415 4 275 378 278 105 377 231 
37 10 537 401 382 318 178 244 236 454 205 569 
38 11 13 330 117 443 211 313 165 436 53 349 385 
39 11 262 569 205 143 236 318 519 464 422 454 401 
40 11 346 573 450 70 200 287 445 515 351 175 391 
41 11 17 473 55 544 360 229 475 89 498 88 126 
42 8 10 444 140 347 331 65 433 507 
43 9 429 181 547 564 161 239 534 500 509 
44 10 295 248 565 492 486 238 136 304 483 321 
45 11 286 540 20 472 293 527 173 134 394 193 271 
46 9 107 389 456 552 97 162 504 482 87 
47 11 36 131 373 415 4 275 378 278 105 377 231 
48 11 94 339 326 253 129 366 461 217 96 264 424 
49 11 358 194 471 272 298 386 353 376 72 179 516 
50 10 259 543 247 32 529 288 354 11 172 396 
51 11 204 219 388 555 91 457 115 428 432 130 437 
52 8 408 315 532 292 533 252 135 548 
53 11 349 117 330 436 443 439 38 13 211 113 313 
54 11 303 521 226 258 150 533 495 460 135 63 142 
55 11 41 151 520 17 559 473 538 475 481 544 229 
56 11 478 106 306 138 455 102 193 176 98 430 237 
57 9 427 87 499 501 438 109 97 552 198 
58 11 208 312 112 114 6 496 387 550 186 328 348 
59 11 82 159 556 491 3 362 485 329 400 554 411 
60 9 319 7 263 294 368 433 507 561 562 
61 11 170 25 308 69 189 487 489 425 405 404 452 
62 11 245 337 254 446 380 196 34 214 397 241 336 
63 11 460 142 150 127 521 258 226 54 303 365 260 
64 11 463 510 570 228 398 67 220 468 223 409 287 
65 11 331 575 140 233 4 301 419 508 10 433 368 
66 10 393 344 166 512 483 340 447 128 492 572 
67 11 223 220 145 228 510 64 293 463 398 472 570 
68 5 551 414 392 110 83 
69 11 189 489 487 170 25 560 404 61 493 549 308 
70 11 175 40 573 346 445 450 200 515 118 451 183 
71 9 474 506 383 240 147 279 203 323 241 
72 11 268 353 73 471 381 194 558 358 336 179 49 
73 11 381 353 268 72 336 558 471 397 194 449 358 
74 10 16 167 101 332 531 81 453 252 431 139 
75 11 130 115 171 91 457 86 51 85 158 219 273 
76 11 206 377 29 363 105 231 278 536 378 153 133 
77 10 221 524 412 442 144 304 447 359 84 512 
78 10 384 168 132 123 274 350 311 286 472 20 
79 9 406 379 197 251 574 182 192 300 116 
80 11 212 191 367 195 128 190 285 343 169 412 567 
81 11 167 137 467 466 232 74 89 360 16 332 88 
82 11 329 400 59 159 362 260 407 556 548 485 3 
83 5 110 414 392 68 551 
84 6 359 144 221 524 77 442 
85 11 457 86 314 115 130 158 219 18 428 375 75 
86 11 158 85 18 375 314 457 130 434 75 115 92 
87 9 427 499 57 97 109 438 501 552 46 
88 11 475 89 332 525 360 41 17 544 441 16 229 
89 11 88 475 360 544 17 41 229 473 137 332 126 
90 9 207 14 297 299 188 345 19 374 154 
91 11 115 130 75 171 51 457 273 219 437 204 351 
92 6 434 158 277 86 18 488 
93 8 354 11 402 242 341 357 172 335 
94 11 48 339 326 129 264 253 366 424 217 461 96 
95 11 509 497 161 534 12 239 564 181 500 530 269 
96 10 461 217 366 253 326 339 48 424 129 94 
97 9 87 499 427 109 57 438 46 107 552 
98 10 395 237 56 106 478 306 102 276 193 176 
99 9 8 490 22 522 528 421 156 518 136 
100 11 557 403 470 108 201 523 177 185 111 31 399 
101 11 176 306 138 478 102 56 370 106 74 430 167 
102 8 176 237 306 478 56 106 395 98 
103 10 426 243 334 30 511 152 325 503 514 282 
104 5 198 227 501 552 57 
105 10 278 378 377 231 206 275 76 36 47 131 
106 11 56 478 306 138 455 193 430 98 102 395 176 
107 5 162 46 482 97 456 
108 9 201 177 403 557 100 185 470 31 523 
109 9 438 499 427 87 57 501 97 177 201 
110 4 392 83 414 68 
111 11 21 542 399 523 100 549 557 493 470 403 281 
112 11 208 58 342 550 312 114 348 563 496 6 328 
113 8 307 440 180 211 439 448 38 13 
114 11 6 496 312 58 208 387 112 480 469 342 35 
115 11 130 91 75 457 171 51 219 85 86 204 273 
116 10 281 197 549 560 406 542 79 21 487 489 
117 11 330 443 436 38 53 13 349 211 313 165 439 
118 11 451 183 175 70 555 437 200 40 273 204 388 
119 11 417 410 266 224 19 28 235 309 299 216 14 
120 7 505 560 487 489 335 406 69 
121 7 390 24 230 163 396 545 246 
122 6 462 215 2 422 148 356 
123 11 384 78 463 64 472 67 223 286 168 468 220 
124 11 5 546 249 255 267 364 458 213 141 288 352 
125 8 413 222 291 431 33 139 531 135 
126 11 498 229 544 473 360 466 17 137 232 41 89 
127 9 63 142 460 150 365 521 258 226 513 
128 11 212 80 191 367 344 285 340 195 169 190 66 
129 10 264 424 326 366 94 48 179 217 461 96 
130 11 115 75 91 171 457 51 85 219 86 204 273 
131 10 47 36 373 415 275 4 378 278 105 231 
132 6 78 274 350 311 168 384 
133 5 536 363 206 29 76 
134 11 271 394 293 145 277 540 220 472 223 67 228 
135 9 495 533 303 54 291 532 222 226 413 
136 7 238 565 248 490 44 99 156 
137 11 466 81 232 360 467 126 544 89 229 167 498 
138 11 430 455 106 56 478 372 306 193 370 101 102 
139 9 431 531 222 125 252 413 291 453 16 
140 11 331 10 433 65 444 42 368 233 507 575 347 
141 9 225 546 267 566 124 209 250 411 5 
142 10 63 460 127 150 258 521 226 54 303 513 
143 10 569 519 205 39 454 262 382 401 318 236 
144 7 221 359 84 77 524 442 412 
145 11 223 220 67 293 228 134 472 510 271 64 394 
146 8 327 283 333 571 385 23 313 320 
147 9 474 383 71 279 203 516 449 376 506 
148 9 422 462 464 122 538 2 559 234 520 
149 6 369 420 480 199 342 35 
150 11 460 63 521 142 258 54 127 303 226 260 533 
151 10 481 520 55 559 538 41 553 17 464 525 
152 10 334 511 103 426 243 386 30 514 272 529 
153 10 29 169 343 285 290 76 567 206 363 377 
154 9 207 188 374 216 309 14 90 299 410 
155 7 566 209 250 141 44 267 355 
156 11 15 355 554 535 99 250 490 491 566 8 411 
157 8 174 477 27 338 180 282 503 539 
158 10 86 18 375 92 434 85 314 488 75 130 
159 11 362 485 556 59 491 82 548 400 554 329 260 
160 6 322 416 469 561 35 507 
161 11 534 95 497 509 564 239 181 12 500 43 429 
162 6 482 107 192 379 46 456 
163 7 246 24 121 545 390 479 230 
164 5 280 517 22 316 8 
165 8 313 385 371 571 283 13 211 38 
166 10 393 66 344 340 512 483 572 447 562 128 
167 11 81 74 467 137 16 101 332 370 466 232 89 
168 10 384 78 350 123 132 311 274 463 468 64 
169 9 285 567 153 290 343 29 128 80 340 
170 11 25 189 69 489 404 487 61 308 425 405 493 
171 11 75 91 130 115 273 351 437 51 457 134 271 
172 9 32 242 543 213 288 255 249 259 50 
173 11 527 459 540 187 276 484 45 9 394 277 271 
174 9 157 338 27 477 539 282 310 503 180 
175 11 70 573 118 40 346 451 183 445 200 515 450 
176 7 102 306 478 237 56 101 106 
177 9 108 201 403 557 100 185 470 31 109 
178 5 244 537 37 382 401 
179 9 298 424 264 129 194 358 326 366 72 
180 8 440 307 477 113 157 27 174 448 
181 11 43 429 564 161 534 500 509 547 239 95 12 
182 6 289 300 251 574 79 406 
183 11 451 118 555 437 200 175 273 70 51 204 388 
184 7 218 526 270 523 435 399 31 
185 9 31 403 470 201 108 557 100 177 523 
186 11 328 550 348 208 58 112 312 314 114 387 6 
187 8 276 484 9 459 316 173 395 98 
188 10 374 309 216 14 299 154 207 410 90 19 
189 11 69 489 170 487 25 404 493 560 61 425 549 
190 9 367 191 212 80 195 128 412 442 524 
191 10 212 80 367 190 195 128 343 412 285 169 
192 4 379 482 79 162 
193 11 455 430 106 20 138 56 372 478 98 306 395 
194 10 358 471 49 298 72 353 179 272 268 73 
195 10 367 80 191 190 212 343 256 128 285 169 
196 11 380 337 62 214 245 34 254 446 28 397 361 
197 10 116 281 79 542 549 406 21 560 379 192 
198 8 552 227 57 104 427 87 501 46 
199 5 369 149 420 35 480 
200 11 351 273 437 40 287 450 70 346 398 570 573 
201 9 108 177 403 185 557 100 470 31 523 
202 6 502 317 26 494 407 365 
203 11 383 449 474 147 446 71 254 336 245 506 62 
204 11 388 219 51 432 428 555 457 265 115 91 130 
205 10 569 143 39 519 454 318 262 401 382 236 
206 10 76 377 363 29 231 105 536 278 133 378 
207 8 90 154 188 374 14 216 309 299 
208 11 58 112 312 114 550 6 496 328 348 186 387 
209 5 267 458 141 124 5 
210 5 261 19 235 345 361 
211 10 13 38 307 165 313 330 117 371 113 385 
212 11 80 191 367 128 190 195 285 412 169 343 344 
213 9 249 255 288 5 32 172 124 364 546 
214 11 196 361 62 241 28 235 254 245 337 446 380 
215 5 122 356 462 324 2 
216 11 309 374 188 154 410 14 299 207 19 90 119 
217 10 366 461 96 326 253 424 129 48 264 339 
218 7 526 184 270 435 523 31 399 
219 11 204 51 428 388 457 432 115 555 91 85 130 
220 11 67 228 223 145 510 64 398 293 463 570 134 
221 8 144 77 524 359 442 84 412 304 
222 8 291 413 139 125 431 531 135 33 
223 11 67 220 145 228 293 510 64 472 463 398 134 
224 11 266 28 417 235 119 214 361 196 410 241 380 
225 11 141 546 411 364 250 535 296 124 566 3 5 
226 11 258 303 521 54 495 150 142 63 460 135 127 
227 5 198 552 389 504 46 
228 11 510 220 398 67 223 64 145 570 463 287 293 
229 11 544 473 498 126 360 17 41 466 89 137 475 
230 7 396 390 247 121 545 24 352 
231 8 278 105 206 275 377 378 76 363 
232 7 466 467 137 126 81 229 498 
233 8 301 419 508 575 65 331 368 140 
234 11 441 525 538 559 2 520 475 33 148 462 88 
235 11 28 361 224 214 266 241 261 417 119 196 210 
236 11 318 262 39 205 569 464 37 553 143 401 382 
237 8 102 395 98 176 306 56 478 106 
238 7 565 136 248 44 490 156 295 
239 11 534 564 161 497 95 509 181 43 12 429 500 
240 7 506 71 323 474 279 241 383 
241 10 361 214 506 446 254 240 235 62 71 245 
242 5 172 93 32 213 354 
243 11 426 103 30 334 503 325 282 511 152 514 423 
244 5 178 537 37 382 401 
245 11 62 254 446 337 34 380 196 397 214 336 203 
246 6 163 24 479 545 121 390 
247 9 396 230 259 50 545 390 543 24 352 
248 9 295 486 44 302 321 284 565 492 136 
249 10 255 213 5 124 288 364 546 32 172 352 
250 10 566 355 535 411 15 141 225 554 156 491 
251 6 574 300 289 406 182 79 
252 7 453 531 315 139 52 222 431 
253 10 96 461 339 217 366 48 326 94 129 424 
254 11 446 245 62 337 34 203 214 241 196 380 397 
255 11 249 213 5 288 124 32 364 352 546 172 458 
256 8 297 343 345 195 367 90 153 80 
257 5 530 269 275 12 231 
258 11 226 521 303 142 54 150 63 460 495 127 513 
259 9 543 50 247 32 288 352 396 230 172 
260 11 400 329 82 150 533 54 460 521 532 303 548 
261 5 210 361 235 241 28 
262 11 39 236 318 464 569 205 143 422 553 519 401 
263 10 7 562 572 294 284 60 321 319 302 486 
264 10 129 424 326 179 366 94 48 217 461 96 
265 11 428 432 388 219 204 457 51 85 555 314 115 
266 11 224 417 28 119 235 214 361 196 410 380 241 
267 5 209 458 124 5 141 
268 11 72 73 381 558 353 471 194 336 358 179 397 
269 2 500 12 
270 7 435 404 425 308 405 25 170 
271 11 394 134 293 277 540 145 472 220 223 67 527 
272 6 386 298 49 358 194 511 
273 11 437 351 200 91 171 555 51 40 287 398 115 
274 10 372 132 430 20 78 455 193 138 370 286 
275 9 278 231 36 105 131 373 47 378 377 
276 7 187 484 395 98 173 237 9 
277 10 394 271 134 434 540 293 92 527 75 171 
278 10 105 378 231 377 275 206 36 76 47 131 
279 6 147 474 71 323 240 506 
280 6 164 517 22 316 8 292 
281 10 116 197 549 560 542 21 487 79 406 489 
282 11 503 539 325 174 243 338 426 423 30 103 310 
283 6 385 571 313 165 371 13 
284 10 321 302 486 7 263 295 572 562 248 492 
285 9 169 567 153 290 343 128 80 340 29 
286 11 472 45 293 540 20 123 223 145 67 134 220 
287 11 570 409 398 450 468 510 463 64 351 40 228 
288 9 32 255 352 213 249 259 543 5 124 
289 5 300 182 251 574 79 
290 9 567 169 285 153 29 76 377 340 419 
291 8 413 222 125 135 495 33 139 431 
292 6 52 315 517 408 280 164 
293 11 145 134 472 271 223 394 67 220 540 286 228 
294 8 319 263 562 60 368 7 572 233 
295 10 486 492 248 44 321 284 302 483 572 565 
296 6 3 364 317 546 502 225 
297 7 345 90 256 299 14 19 207 
298 9 179 358 194 272 49 424 471 264 386 
299 11 14 19 188 90 374 309 345 216 297 207 410 
300 6 251 574 289 182 406 79 
301 7 419 508 233 575 65 331 294 
302 8 321 284 486 248 295 7 263 492 
303 11 54 521 226 258 495 150 533 135 460 63 142 
304 11 447 77 512 483 412 492 44 66 221 524 393 
305 8 568 541 9 518 484 316 528 421 
306 10 478 56 106 102 176 138 237 455 98 101 
307 8 113 440 180 211 371 165 13 313 
308 11 425 405 404 25 170 435 61 270 189 69 452 
309 11 216 374 188 410 14 154 299 19 207 90 119 
310 8 539 338 27 476 174 423 477 282 
311 5 350 132 168 78 384 
312 11 58 114 6 208 496 387 112 480 550 186 342 
313 9 165 385 571 283 371 13 38 211 443 
314 11 375 18 85 86 348 488 158 328 550 457 563 
315 7 252 52 453 292 531 408 139 
316 7 518 9 484 187 164 276 280 
317 7 502 202 26 494 407 3 296 
318 11 236 262 39 205 569 37 401 382 143 454 537 
319 9 368 60 294 433 7 263 507 233 331 
320 10 23 333 327 436 443 146 330 117 283 13 
321 9 284 302 486 295 7 248 263 572 492 
322 6 160 416 469 561 35 507 
323 4 240 279 506 71 
324 6 356 215 2 33 462 122 
325 9 423 30 503 282 243 539 426 514 103 
326 11 129 366 217 264 48 424 461 94 96 253 339 
327 8 146 283 333 23 571 385 320 313 
328 11 550 348 186 208 112 58 314 375 312 18 563 
329 11 82 407 400 26 494 260 59 3 317 159 502 
330 11 117 443 38 436 13 53 349 211 313 165 333 
331 10 140 65 433 10 368 233 444 575 42 301 
332 11 16 88 475 89 74 525 431 167 81 441 360 
333 11 23 320 443 436 283 13 313 327 38 330 117 
334 10 152 511 103 426 243 30 514 386 325 503 
335 6 341 505 120 61 560 93 
336 11 397 381 73 449 353 203 34 245 254 446 72 
337 11 380 62 34 196 245 254 446 397 214 336 241 
338 10 27 310 174 539 477 157 282 503 476 448 
339 11 48 253 94 326 461 96 217 366 129 264 424 
340 10 344 166 66 393 567 128 285 512 483 169 
341 6 335 93 505 120 61 402 
342 9 563 480 112 149 420 488 208 58 496 
343 10 153 169 195 285 256 29 80 367 191 212 
344 10 66 166 393 340 512 483 128 447 567 285 
345 8 297 299 90 14 19 256 188 207 
346 11 573 445 40 450 515 70 391 287 175 200 409 
347 6 444 10 42 507 561 416 
348 11 550 328 112 186 314 208 375 563 58 488 18 
349 11 53 117 330 439 436 443 38 13 211 113 313 
350 5 311 132 168 78 384 
351 11 273 200 437 287 398 510 570 40 171 228 91 
352 6 458 288 396 5 259 255 
353 11 72 73 471 381 268 194 336 358 449 558 49 
354 11 11 93 529 357 402 50 514 543 172 242 32 
355 11 535 250 411 15 566 554 156 491 225 141 556 
356 6 324 215 2 33 462 122 
357 9 402 514 11 354 93 423 30 325 529 
358 10 194 49 471 298 272 72 179 353 386 268 
359 4 84 144 221 77 
360 11 544 229 17 89 473 126 498 41 466 137 475 
361 11 235 241 214 28 261 224 196 254 446 62 266 
362 11 159 485 556 548 491 59 82 400 554 329 260 
363 6 536 133 206 76 29 231 
364 7 546 296 249 124 5 213 255 
365 9 494 127 202 26 407 63 460 502 142 
366 9 217 96 461 326 424 253 129 264 48 
367 10 191 195 80 190 212 128 343 256 285 169 
368 9 433 319 331 140 294 60 233 507 10 
369 5 199 149 420 480 35 
370 9 372 138 430 455 101 106 478 56 467 
371 8 165 385 571 313 283 211 307 13 
372 10 430 455 138 370 193 274 106 56 478 306 
373 10 131 47 36 415 275 4 278 378 105 231 
374 10 216 309 188 154 14 410 299 207 19 90 
375 11 18 314 488 158 86 85 348 563 92 550 328 
376 6 516 147 479 49 279 474 
377 11 105 378 76 206 278 231 29 275 363 290 36 
378 11 105 278 377 36 231 47 275 76 206 131 4 
379 5 192 79 482 162 197 
380 11 337 196 34 62 245 397 254 214 446 336 241 
381 11 73 268 353 72 336 558 397 471 449 194 34 
382 9 401 454 537 205 37 569 318 244 143 
383 11 474 203 71 147 449 506 446 254 279 240 241 
384 11 168 78 123 350 132 311 274 463 286 64 468 
385 7 571 165 371 313 283 13 211 
386 7 272 511 152 49 334 298 358 
387 8 312 6 114 496 58 208 112 160 
388 11 204 432 428 219 51 555 265 457 115 91 85 
389 6 504 456 46 552 227 107 
390 7 121 230 396 24 545 163 247 
391 11 515 445 450 346 573 409 468 40 287 570 70 
392 5 414 110 83 68 435 
393 10 66 166 344 512 483 340 447 492 128 572 
394 11 271 134 277 293 540 145 472 220 223 527 67 
395 8 98 237 56 102 106 276 478 306 
396 7 230 390 247 121 545 352 24 
397 11 34 336 245 337 62 380 254 381 446 73 449 
398 11 510 570 228 64 287 220 463 67 409 223 351 
399 11 523 111 493 21 542 100 549 470 557 403 184 
400 11 82 260 329 548 159 362 59 485 407 408 556 
401 9 382 537 454 37 205 569 318 244 143 
402 8 357 11 93 514 354 423 325 30 
403 11 557 470 100 108 201 185 31 177 523 111 399 
404 10 425 25 308 270 170 435 189 405 69 489 
405 9 308 425 435 404 452 25 270 170 61 
406 5 574 251 79 300 116 
407 11 494 26 329 317 502 202 82 365 3 400 260 
408 11 532 52 533 548 260 292 400 135 315 54 303 
409 11 468 570 287 463 64 450 398 510 391 228 515 
410 11 309 216 119 374 188 19 417 14 299 154 207 
411 11 535 250 355 225 566 491 554 15 141 59 556 
412 11 524 442 77 447 221 212 304 190 191 128 512 
413 8 291 125 222 33 139 431 135 495 
414 5 392 110 68 83 551 
415 11 373 131 47 36 4 275 378 278 575 65 105 
416 6 322 561 160 507 469 35 
417 11 119 266 224 28 410 235 19 309 216 361 299 
418 3 465 452 61 
419 7 301 508 233 575 65 331 4 
420 9 480 149 369 35 199 469 342 496 6 
421 7 528 522 490 99 518 22 8 
422 8 148 464 262 39 122 462 143 569 
423 8 325 539 30 503 282 310 243 514 
424 10 264 129 326 179 366 217 461 96 48 94 
425 10 308 404 405 435 25 270 170 189 61 69 
426 11 243 103 30 334 511 152 325 503 282 514 423 
427 9 87 57 499 109 97 438 501 552 198 
428 11 219 388 432 204 265 457 51 85 555 115 130 
429 6 43 181 547 500 564 161 
430 11 455 372 138 193 106 56 478 370 306 274 20 
431 9 139 125 222 531 413 16 291 332 252 
432 11 388 204 428 219 265 51 555 457 183 85 115 
433 10 368 140 331 319 507 10 444 561 233 65 
434 8 92 277 158 86 394 271 75 18 
435 7 270 425 404 308 405 25 170 
436 11 443 117 330 53 38 349 13 333 23 211 313 
437 11 273 200 351 555 51 91 183 171 40 115 204 
438 9 109 499 57 427 501 87 97 177 201 
439 9 349 53 113 117 211 330 38 307 13 
440 8 180 307 477 113 27 157 448 174 
441 11 234 525 538 559 475 88 520 332 89 41 148 
442 8 524 412 77 221 144 447 190 84 
443 11 330 436 117 38 13 53 333 349 211 313 165 
444 8 10 347 140 42 433 507 331 561 
445 11 515 391 346 573 450 40 70 409 287 468 570 
446 11 254 245 62 337 203 241 214 34 196 380 383 
447 11 512 412 304 483 66 393 77 344 524 166 128 
448 7 476 27 477 310 338 440 180 
449 11 203 383 336 147 474 353 446 254 71 73 397 
450 11 346 40 287 445 573 515 391 409 468 570 200 
451 11 118 183 175 555 70 437 200 40 273 204 388 
452 5 418 465 405 308 61 
453 6 252 531 315 139 74 431 
454 8 382 401 537 205 569 519 143 37 
455 11 430 193 138 372 106 56 478 306 20 370 274 
456 4 389 504 46 107 
457 11 85 115 219 130 51 428 91 204 75 388 86 
458 5 352 267 209 5 124 
459 10 173 527 484 187 9 276 540 568 277 394 
460 11 63 150 142 521 127 258 54 226 303 260 365 
461 10 96 217 366 253 326 339 48 424 129 94 
462 9 2 122 215 148 356 422 33 324 234 
463 11 64 570 468 510 409 398 228 67 287 220 223 
464 10 553 262 422 39 236 148 318 481 569 205 
465 3 418 452 61 
466 11 137 232 126 360 229 544 81 467 498 473 89 
467 6 81 232 137 167 466 370 
468 11 409 463 570 64 287 450 510 398 391 228 67 
469 9 35 160 322 416 420 496 6 480 561 
470 11 403 557 100 185 31 108 201 523 177 399 111 
471 11 194 353 72 358 49 73 268 381 298 179 449 
472 11 286 293 223 145 45 67 540 134 220 123 271 
473 11 229 17 544 498 360 126 41 89 466 55 475 
474 10 71 383 147 203 279 506 240 449 323 516 
475 11 88 89 525 41 360 332 17 544 441 229 473 
476 4 310 448 27 338 
477 9 27 174 157 338 180 440 448 310 539 
478 11 56 106 306 138 102 455 176 193 98 237 430 
479 6 246 545 24 163 376 516 
480 9 420 342 149 35 496 369 469 563 114 
481 10 151 520 553 559 55 464 538 148 41 422 
482 5 162 107 192 379 46 
483 11 512 66 393 166 492 447 344 304 340 295 486 
484 8 187 9 276 316 459 173 568 305 
485 11 362 556 159 491 548 554 59 82 400 15 535 
486 10 295 321 284 492 248 302 44 572 562 263 
487 11 489 69 189 560 170 25 549 120 505 493 61 
488 9 375 18 563 314 158 348 342 86 92 
489 11 487 69 189 170 560 25 549 493 61 505 120 
490 8 99 8 522 528 421 22 136 156 
491 11 554 556 485 159 59 362 535 15 411 355 82 
492 11 295 486 483 44 512 248 284 321 572 393 66 
493 11 549 399 189 69 21 489 487 404 542 111 25 
494 10 407 26 317 202 365 502 329 127 82 460 
495 10 135 226 303 54 258 291 521 533 413 150 
496 11 6 114 312 58 387 208 469 480 112 35 160 
497 11 95 161 534 509 239 564 12 181 500 530 43 
498 11 229 126 473 544 17 360 41 466 89 137 232 
499 9 109 427 87 438 57 97 501 177 552 
500 5 12 547 269 181 509 
501 9 57 438 109 427 499 87 97 198 552 
502 6 317 202 26 494 407 296 
503 11 282 539 325 243 174 426 338 423 30 103 310 
504 4 389 456 46 227 
505 8 120 560 335 487 489 69 61 189 
506 8 240 71 474 323 241 383 279 147 
507 9 561 416 433 322 444 10 160 368 347 
508 6 419 301 233 575 65 294 
509 11 95 161 12 497 534 564 239 181 500 530 269 
510 11 228 398 64 570 220 463 67 223 287 145 409 
511 8 152 334 103 426 243 386 30 272 
512 11 483 66 393 447 344 166 304 492 340 412 128 
513 5 142 258 226 127 63 
514 11 30 357 325 426 103 243 423 402 529 334 11 
515 11 445 391 346 573 450 40 409 468 70 287 570 
516 6 376 147 479 279 474 49 
517 4 280 164 292 22 
518 10 316 305 22 522 9 528 568 421 164 484 
519 7 143 569 205 454 39 382 401 
520 10 559 538 151 55 481 525 441 41 234 148 
521 11 150 54 258 303 460 226 63 142 127 495 533 
522 8 528 421 490 99 22 518 8 305 
523 11 399 100 470 111 557 403 21 31 493 542 185 
524 9 442 412 77 221 144 447 84 304 190 
525 11 441 234 475 538 88 559 89 332 520 41 55 
526 7 218 184 270 523 435 31 399 
527 11 173 459 540 45 394 187 271 276 277 134 484 
528 8 421 522 490 518 99 22 8 305 
529 11 11 354 50 514 357 543 259 247 30 334 152 
530 5 257 12 269 509 95 
531 8 139 252 453 431 222 16 315 74 
532 10 533 408 52 135 54 303 260 548 400 495 
533 10 532 135 54 303 408 260 52 521 495 226 
534 11 161 239 564 497 95 509 181 12 43 500 429 
535 11 411 355 250 554 15 491 566 225 156 556 141 
536 6 133 363 206 76 29 231 
537 7 382 401 454 37 244 178 205 
538 10 559 520 441 234 525 55 151 148 475 481 
539 9 310 338 282 503 174 423 27 325 477 
540 11 45 527 394 271 293 134 472 286 173 277 145 
541 3 305 568 9 
542 11 21 111 549 281 197 399 116 493 523 100 557 
543 10 259 32 50 288 172 247 352 213 255 354 
544 11 229 360 473 17 498 126 41 89 466 137 475 
545 9 24 230 390 163 247 121 396 246 479 
546 10 364 124 5 225 141 249 296 255 213 267 
547 4 429 500 181 43 
548 11 362 159 485 400 408 556 82 260 532 59 52 
549 11 493 21 281 542 116 487 489 189 69 111 197 
550 11 348 328 186 112 208 58 314 563 312 375 342 
551 6 68 414 83 110 392 439 
552 9 198 46 227 389 87 427 57 97 504 
553 10 464 481 236 262 318 39 151 422 148 520 
554 11 491 15 556 535 485 355 159 362 411 156 59 
555 11 51 204 388 183 437 219 432 273 428 451 91 
556 11 485 159 362 491 554 59 548 82 15 400 535 
557 11 403 100 470 108 201 185 31 177 523 111 399 
558 11 268 381 73 72 353 336 471 397 194 179 264 
559 10 520 538 525 441 55 151 234 481 41 475 
560 10 487 489 120 505 69 116 189 281 549 197 
561 8 507 416 322 160 444 433 347 10 
562 10 572 263 7 294 284 321 166 60 486 319 
563 9 342 488 112 480 348 375 550 149 18 
564 11 239 534 161 181 497 95 509 43 429 12 500 
565 7 238 136 44 248 295 156 490 
566 9 250 355 411 535 141 155 225 15 156 
567 9 285 169 290 340 153 128 344 29 343 
568 7 305 541 9 518 484 316 459 
569 10 205 143 39 519 262 454 318 236 401 382 
570 11 398 287 510 64 463 409 468 228 220 67 450 
571 7 385 371 165 283 313 13 211 
572 11 562 263 7 284 294 321 486 166 492 393 302 
573 11 346 445 40 515 450 70 391 175 287 200 409 
574 6 251 300 406 289 182 79 
575 8 65 233 301 419 4 508 331 140 
DEPOT_SECTION
   1
   -1
EOF
