NAME :  X-n801-kX-w160-c9.cctp
COMMENT : 	Adapted by Maziero, Usberti and Cavellucci from the Uchoa, Pecin, Pessoa, Poggi, Subramanian, and Vidal (2013)
TYPE :  CCTP
DIMENSION :    711
EDGE_WEIGHT_TYPE : 	EUC_2D	
CAPACITY : 	20
VERTICES_WITHIN_COVERAGE :  9
VERTICES_WITH_DEMAND : 	160
NODE_COORD_SECTION
1 0 0
2 674 825
3 549 534
4 43 315
5 542 420
6 45 580
7 180 450
8 369 618
9 287 721
10 36 426
11 680 338
12 42 81
13 942 119
14 247 68
15 432 549
16 514 857
17 554 976
18 103 728
19 271 73
20 310 859
21 874 538
22 358 642
23 989 42
24 538 271
25 854 443
26 596 563
27 827 228
28 380 40
29 152 224
30 726 258
31 981 544
32 600 381
33 629 799
34 488 12
35 100 542
36 37 272
37 847 980
38 949 124
39 787 917
40 111 958
41 571 968
42 2 409
43 95 2
44 318 447
45 271 856
46 873 697
47 34 274
48 733 17
49 620 125
50 611 334
51 66 848
52 507 711
53 993 152
54 596 683
55 605 980
56 372 833
57 968 699
58 36 620
59 518 566
60 138 457
61 828 421
62 467 39
63 626 645
64 192 923
65 56 363
66 252 349
67 202 896
68 999 331
69 843 462
70 83 975
71 475 135
72 601 55
73 578 43
74 480 854
75 124 825
76 121 228
77 355 326
78 291 944
79 784 563
80 260 251
81 472 918
82 193 715
83 539 592
84 794 290
85 930 315
86 190 654
87 429 292
88 79 779
89 931 409
90 114 765
91 948 685
92 550 915
93 383 979
94 127 64
95 541 935
96 218 159
97 396 194
98 216 85
99 106 843
100 174 744
101 782 117
102 699 379
103 497 355
104 87 161
105 558 199
106 721 10
107 18 53
108 704 674
109 443 783
110 755 58
111 928 666
112 347 805
113 360 600
114 101 119
115 938 556
116 422 848
117 934 275
118 391 807
119 712 230
120 908 359
121 992 823
122 80 246
123 367 837
124 865 661
125 67 146
126 956 582
127 977 663
128 930 343
129 896 542
130 631 472
131 62 636
132 817 759
133 914 195
134 46 591
135 102 825
136 822 527
137 763 684
138 975 128
139 26 941
140 314 34
141 787 474
142 512 291
143 718 832
144 244 931
145 534 425
146 585 799
147 513 990
148 641 633
149 254 283
150 448 389
151 702 44
152 109 823
153 402 190
154 184 314
155 26 270
156 333 949
157 132 174
158 203 842
159 182 78
160 575 723
161 807 656
162 320 523
163 175 626
164 488 947
165 376 858
166 540 797
167 52 401
168 441 748
169 491 459
170 636 652
171 813 892
172 403 311
173 201 878
174 245 641
175 894 2
176 515 142
177 701 895
178 612 652
179 650 986
180 932 420
181 410 762
182 676 219
183 174 236
184 204 25
185 828 312
186 120 96
187 409 434
188 405 549
189 379 787
190 810 191
191 129 755
192 499 596
193 937 430
194 61 519
195 29 34
196 843 640
197 520 251
198 385 685
199 619 501
200 908 111
201 234 353
202 467 896
203 277 981
204 194 265
205 850 444
206 131 847
207 806 302
208 627 401
209 267 788
210 805 211
211 61 985
212 729 142
213 402 812
214 956 593
215 907 977
216 670 71
217 863 184
218 74 25
219 741 581
220 38 919
221 963 467
222 979 558
223 916 241
224 4 676
225 217 612
226 311 756
227 235 42
228 815 106
229 848 461
230 46 198
231 460 210
232 293 234
233 274 248
234 800 608
235 342 852
236 623 95
237 258 221
238 420 244
239 444 16
240 821 540
241 939 766
242 157 549
243 106 921
244 961 583
245 619 540
246 507 97
247 790 509
248 404 252
249 44 843
250 752 492
251 352 216
252 817 913
253 115 221
254 200 58
255 38 628
256 479 404
257 332 129
258 929 145
259 93 139
260 269 260
261 583 421
262 424 47
263 715 796
264 240 26
265 743 62
266 633 515
267 528 202
268 976 456
269 54 828
270 191 890
271 384 316
272 713 629
273 502 205
274 563 779
275 205 892
276 368 18
277 766 621
278 207 679
279 506 481
280 622 691
281 890 793
282 182 900
283 530 981
284 540 313
285 78 213
286 456 978
287 99 363
288 623 878
289 448 422
290 379 61
291 792 953
292 373 793
293 330 512
294 22 7
295 445 147
296 431 90
297 517 208
298 659 423
299 724 233
300 906 970
301 476 43
302 522 237
303 571 317
304 280 476
305 571 424
306 452 500
307 743 544
308 493 777
309 412 154
310 762 39
311 473 60
312 570 414
313 226 169
314 12 159
315 627 681
316 589 346
317 563 637
318 678 455
319 776 929
320 511 327
321 128 163
322 183 433
323 697 48
324 3 800
325 361 10
326 499 410
327 601 34
328 73 124
329 908 439
330 203 835
331 961 627
332 661 144
333 875 331
334 455 290
335 104 892
336 378 180
337 329 906
338 41 229
339 320 770
340 191 805
341 767 162
342 72 237
343 491 176
344 391 682
345 828 526
346 457 274
347 934 814
348 765 225
349 337 209
350 223 461
351 668 475
352 201 270
353 261 879
354 152 937
355 573 385
356 159 283
357 931 623
358 585 768
359 449 408
360 459 705
361 203 692
362 215 862
363 150 407
364 274 443
365 565 501
366 230 119
367 157 111
368 481 368
369 662 102
370 252 72
371 737 554
372 111 96
373 110 348
374 232 480
375 598 686
376 327 371
377 267 682
378 571 194
379 383 829
380 897 166
381 869 417
382 244 30
383 809 255
384 4 177
385 340 996
386 32 602
387 793 712
388 916 104
389 77 731
390 489 744
391 330 707
392 600 540
393 803 954
394 123 430
395 998 17
396 229 468
397 67 511
398 897 279
399 448 185
400 680 762
401 752 263
402 724 44
403 911 15
404 29 685
405 563 589
406 972 125
407 696 82
408 61 393
409 536 881
410 963 57
411 690 225
412 759 430
413 535 47
414 468 19
415 810 233
416 753 13
417 217 331
418 747 415
419 106 630
420 207 218
421 389 952
422 242 335
423 249 118
424 118 982
425 15 459
426 52 684
427 990 159
428 325 995
429 123 903
430 544 369
431 582 67
432 676 344
433 793 276
434 774 131
435 447 520
436 675 775
437 723 323
438 624 108
439 431 317
440 531 961
441 401 76
442 493 604
443 125 188
444 558 463
445 646 587
446 736 62
447 270 234
448 100 418
449 396 895
450 740 150
451 509 345
452 363 882
453 9 260
454 543 783
455 238 33
456 101 723
457 823 319
458 912 300
459 564 169
460 101 247
461 418 767
462 79 258
463 806 598
464 857 357
465 465 7
466 571 33
467 858 934
468 498 115
469 270 966
470 897 98
471 659 168
472 6 579
473 33 841
474 846 736
475 792 131
476 524 301
477 545 773
478 154 997
479 945 365
480 248 354
481 206 831
482 351 798
483 809 145
484 542 321
485 515 23
486 167 912
487 594 490
488 910 515
489 542 619
490 855 937
491 810 821
492 735 333
493 950 557
494 880 441
495 877 400
496 771 528
497 592 578
498 520 681
499 175 953
500 276 21
501 574 742
502 199 633
503 852 821
504 476 514
505 326 299
506 589 781
507 960 350
508 830 120
509 0 291
510 753 97
511 329 24
512 113 342
513 120 573
514 295 581
515 298 609
516 731 893
517 763 273
518 816 651
519 702 61
520 880 426
521 719 232
522 955 689
523 788 762
524 34 817
525 105 22
526 857 788
527 361 870
528 553 819
529 807 673
530 19 838
531 746 121
532 80 424
533 173 767
534 906 426
535 990 111
536 92 895
537 371 978
538 986 670
539 974 197
540 742 652
541 870 188
542 612 890
543 348 284
544 973 109
545 34 437
546 137 997
547 474 63
548 665 444
549 300 335
550 866 249
551 528 91
552 140 964
553 25 937
554 486 786
555 357 860
556 823 709
557 162 150
558 77 809
559 516 380
560 772 832
561 387 199
562 261 767
563 619 645
564 754 57
565 692 838
566 193 932
567 738 941
568 406 976
569 487 965
570 396 197
571 444 940
572 182 954
573 85 539
574 447 194
575 757 845
576 930 251
577 950 549
578 601 86
579 143 117
580 698 634
581 238 877
582 543 987
583 761 809
584 494 134
585 562 925
586 838 282
587 834 210
588 926 436
589 375 833
590 568 225
591 106 594
592 675 986
593 835 632
594 144 83
595 272 373
596 299 740
597 805 641
598 482 600
599 255 448
600 834 470
601 117 696
602 837 469
603 345 585
604 476 565
605 271 417
606 877 492
607 605 578
608 156 613
609 607 721
610 527 358
611 54 581
612 591 478
613 7 37
614 529 997
615 705 436
616 110 166
617 962 671
618 82 75
619 1000 703
620 607 536
621 764 227
622 827 744
623 788 463
624 450 136
625 72 466
626 119 348
627 32 58
628 178 910
629 381 159
630 686 207
631 276 358
632 683 682
633 707 282
634 141 999
635 558 169
636 403 688
637 315 671
638 827 880
639 601 481
640 641 950
641 98 116
642 611 668
643 313 616
644 928 521
645 595 498
646 350 295
647 397 963
648 595 904
649 798 339
650 978 460
651 260 800
652 302 615
653 653 302
654 5 126
655 512 800
656 541 691
657 559 690
658 24 21
659 465 522
660 125 178
661 868 947
662 204 141
663 636 919
664 703 643
665 385 155
666 790 245
667 244 833
668 244 666
669 870 543
670 606 359
671 532 975
672 555 276
673 165 33
674 537 457
675 120 51
676 815 623
677 502 636
678 859 508
679 42 675
680 999 300
681 908 736
682 735 980
683 459 564
684 49 877
685 483 587
686 945 557
687 602 2
688 633 936
689 379 182
690 814 486
691 178 687
692 466 406
693 186 732
694 381 762
695 193 411
696 109 653
697 40 10
698 142 303
699 90 111
700 334 499
701 443 482
702 187 290
703 262 691
704 814 908
705 171 930
706 446 214
707 205 410
708 137 120
709 115 986
710 368 926
711 77 338
DEMAND_SECTION
2 1
3 1
4 1
5 1
6 1
7 1
8 1
9 1
10 1
11 1
12 1
13 1
14 1
15 1
16 1
17 1
18 1
19 1
20 1
21 1
22 1
23 1
24 1
25 1
26 1
27 1
28 1
29 1
30 1
31 1
32 1
33 1
34 1
35 1
36 1
37 1
38 1
39 1
40 1
41 1
42 1
43 1
44 1
45 1
46 1
47 1
48 1
49 1
50 1
51 1
52 1
53 1
54 1
55 1
56 1
57 1
58 1
59 1
60 1
61 1
62 1
63 1
64 1
65 1
66 1
67 1
68 1
69 1
70 1
71 1
72 1
73 1
74 1
75 1
76 1
77 1
78 1
79 1
80 1
81 1
82 1
83 1
84 1
85 1
86 1
87 1
88 1
89 1
90 1
91 1
92 1
93 1
94 1
95 1
96 1
97 1
98 1
99 1
100 1
101 1
102 1
103 1
104 1
105 1
106 1
107 1
108 1
109 1
110 1
111 1
112 1
113 1
114 1
115 1
116 1
117 1
118 1
119 1
120 1
121 1
122 1
123 1
124 1
125 1
126 1
127 1
128 1
129 1
130 1
131 1
132 1
133 1
134 1
135 1
136 1
137 1
138 1
139 1
140 1
141 1
142 1
143 1
144 1
145 1
146 1
147 1
148 1
149 1
150 1
151 1
152 1
153 1
154 1
155 1
156 1
157 1
158 1
159 1
160 1
161 1
COVERAGE_SECTION
2 8 565 143 263 436 33 400 288 177 
3 9 365 59 392 26 405 620 645 83 497 
4 9 711 47 36 155 509 65 453 462 287 
5 9 145 305 312 674 261 326 444 355 559 
6 9 611 134 386 472 58 255 573 131 194 
7 9 322 695 60 350 707 363 396 374 394 
8 9 113 22 603 643 652 344 198 515 637 
9 8 596 703 226 377 391 562 637 339 
10 7 545 167 42 425 408 532 625 
11 9 432 102 653 437 492 633 50 670 208 
12 9 627 107 618 195 328 613 699 654 658 
13 9 38 258 388 406 544 138 200 535 470 
14 9 370 19 227 98 455 382 264 254 423 
15 9 188 683 435 659 604 306 504 685 701 
16 9 409 74 528 655 202 166 92 81 554 
17 9 582 41 671 283 440 614 95 147 55 
18 9 456 389 601 191 90 88 426 100 696 
19 9 370 14 227 423 382 455 500 98 264 
20 9 235 45 555 337 527 353 452 123 112 
21 9 669 129 678 488 606 345 136 240 644 
22 9 8 113 198 344 637 643 603 652 636 
23 9 395 410 535 544 403 406 138 13 38 
24 9 672 197 142 476 302 284 484 590 303 
25 9 205 229 69 494 381 520 602 61 600 
26 9 497 607 392 620 245 405 3 445 266 
27 9 415 587 210 383 190 666 550 586 217 
28 9 290 276 325 441 262 511 140 239 296 
29 9 183 76 253 443 660 157 420 460 204 
30 9 299 401 521 119 633 517 411 621 348 
31 9 222 577 493 686 244 115 126 214 644 
32 9 670 355 208 316 261 312 50 305 430 
33 9 146 506 2 436 358 400 274 565 288 
34 9 414 465 485 301 62 239 311 547 413 
35 7 573 513 194 397 591 242 611 
36 9 47 155 453 509 4 338 462 342 122 
37 8 661 490 467 393 215 300 291 252 
38 9 13 406 138 544 258 388 200 535 53 
39 9 319 704 252 171 291 393 638 567 516 
40 9 424 709 552 70 243 354 546 634 429 
41 9 17 582 55 671 440 283 585 95 614 
42 7 10 545 167 425 408 65 532 
43 9 525 218 675 697 94 195 294 658 618 
44 8 364 304 700 605 599 293 162 376 
45 9 353 667 20 581 362 651 209 158 481 
46 9 124 474 556 681 111 196 622 529 518 
47 9 36 155 453 509 4 338 462 342 122 
48 9 106 416 402 310 151 446 564 265 110 
49 9 438 236 578 332 369 471 431 459 72 
50 8 316 670 303 32 653 355 432 11 
51 9 249 269 473 684 99 558 135 524 530 
52 9 498 390 656 360 657 308 160 477 501 
53 9 427 138 406 535 544 539 38 13 258 
54 9 375 642 280 315 178 657 609 563 160 
55 9 41 179 640 17 688 582 663 585 592 
56 9 589 123 379 165 555 118 235 213 112 
57 9 522 91 617 619 538 127 111 681 331 
58 9 255 386 131 134 6 611 472 679 224 
59 9 83 192 685 604 3 442 598 405 489 
60 8 394 7 322 363 448 532 625 695 
61 9 205 25 381 69 229 600 602 520 495 
62 9 301 414 311 547 465 239 34 262 485 
63 9 563 170 178 148 642 315 280 54 375 
64 9 566 628 705 282 486 67 270 572 275 
65 9 408 711 167 287 4 373 512 626 10 
66 9 480 422 201 631 595 417 549 149 605 
67 9 275 270 173 282 628 64 362 566 486 
68 9 680 507 479 128 85 117 458 120 89 
69 9 229 602 600 205 25 690 494 61 606 
70 9 211 40 709 424 546 552 243 634 139 
71 9 584 624 468 295 176 343 246 399 296 
72 9 327 431 73 578 466 236 687 438 413 
73 9 466 431 327 72 413 687 578 485 236 
74 9 16 202 116 409 655 81 554 308 109 
75 9 152 135 206 99 558 90 51 88 191 
76 9 253 460 29 443 122 285 342 660 462 
77 9 271 646 505 543 172 376 549 439 87 
78 9 469 203 156 144 337 428 385 353 710 
79 8 496 463 240 307 219 234 371 136 
80 9 260 233 447 237 149 232 352 420 204 
81 9 202 164 571 569 286 74 95 440 16 
82 9 693 361 691 100 278 533 86 668 703 
83 9 405 489 59 192 442 317 497 685 677 
84 9 433 207 517 383 185 457 586 666 649 
85 9 458 128 117 507 120 398 479 333 576 
86 9 502 278 163 691 361 225 608 668 174 
87 9 439 334 172 346 248 238 271 646 706 
88 9 558 90 389 135 152 191 269 18 524 
89 9 180 193 588 534 329 479 520 120 495 
90 9 191 88 18 456 389 558 152 533 75 
91 9 522 617 57 111 127 538 619 331 357 
92 9 585 95 409 648 440 41 17 671 542 
93 9 537 647 568 421 385 710 156 428 571 
94 9 675 594 186 372 618 525 673 579 367 
95 9 92 585 440 671 17 41 283 582 164 
96 9 313 662 366 423 557 420 98 237 367 
97 9 570 153 561 689 336 629 665 309 251 
98 9 254 14 159 366 370 227 423 19 455 
99 9 135 152 75 206 51 558 335 269 536 
100 9 693 533 82 191 691 361 340 90 18 
101 9 434 475 228 510 531 483 341 508 450 
102 9 432 11 615 492 298 418 437 548 208 
103 9 451 368 610 320 559 430 256 326 484 
104 9 259 616 125 328 321 660 114 641 157 
105 9 378 590 267 635 459 297 302 273 197 
106 9 48 416 402 151 323 310 446 519 265 
107 9 627 613 195 658 12 294 697 218 618 
108 7 632 664 580 540 272 137 170 
109 9 461 168 181 554 213 308 118 390 189 
110 9 564 265 446 310 402 510 416 48 519 
111 9 91 617 522 357 127 331 57 538 46 
112 9 482 292 189 56 123 589 379 118 339 
113 9 8 603 22 643 652 515 188 514 637 
114 9 641 699 259 372 328 186 708 579 125 
115 9 686 493 577 126 244 644 214 222 129 
116 9 213 379 165 589 118 56 449 123 74 
117 9 576 458 398 223 85 128 680 550 507 
118 9 213 189 292 379 589 56 123 482 112 
119 9 521 299 411 30 630 182 401 621 633 
120 9 128 479 333 85 464 495 507 89 458 
121 5 347 241 281 619 681 
122 9 342 462 460 285 253 338 76 36 47 
123 9 56 589 379 165 555 235 527 112 118 
124 9 196 46 593 518 161 529 111 597 676 
125 9 328 104 259 699 114 641 616 230 314 
126 9 244 214 493 686 115 222 577 31 331 
127 9 538 617 522 91 57 331 619 111 357 
128 9 120 479 85 507 458 333 89 117 68 
129 9 21 669 488 644 115 678 686 606 577 
130 9 199 639 351 612 487 266 548 645 318 
131 9 255 58 419 679 386 134 426 696 611 
132 7 622 523 474 526 556 387 491 
133 8 380 541 223 217 258 576 539 550 
134 9 6 611 386 58 255 472 131 591 573 
135 9 152 99 75 558 206 51 269 88 90 
136 9 345 240 247 678 690 496 669 79 21 
137 8 540 387 529 161 108 597 518 277 
138 9 406 544 535 38 53 13 427 258 388 
139 9 553 220 211 70 684 536 243 40 335 
140 9 511 500 325 276 19 28 290 382 370 
141 7 623 690 247 250 600 602 412 
142 9 476 24 284 320 197 484 672 451 302 
143 8 565 263 575 2 583 560 516 177 
144 9 469 78 566 64 581 67 275 353 203 
145 9 5 674 305 312 326 444 559 261 169 
146 9 506 274 358 528 33 166 454 477 501 
147 9 614 283 671 582 440 569 17 164 286 
148 9 63 170 563 178 445 642 315 580 280 
149 9 260 80 233 447 422 352 417 237 204 
150 9 359 692 289 256 368 326 103 187 559 
151 9 323 519 402 407 446 106 48 216 265 
152 9 135 75 99 206 558 51 88 269 90 
153 9 97 570 561 689 336 309 629 665 574 
154 8 702 417 356 698 352 204 422 201 
155 9 47 36 453 509 338 4 462 342 122 
156 9 78 710 337 428 385 537 421 93 203 
157 9 660 321 443 616 557 104 253 259 29 
158 9 330 481 362 173 340 667 270 581 275 
159 9 254 98 594 367 673 579 94 184 708 
160 9 501 609 657 375 54 358 656 274 280 
161 9 518 597 529 676 593 196 234 137 277 
162 6 293 700 304 514 603 44 
163 6 608 502 86 225 691 278 
164 9 569 81 286 440 571 147 671 95 283 
165 9 527 555 123 56 589 452 379 235 449 
166 9 454 477 528 655 274 146 308 506 358 
167 9 408 10 532 65 545 42 448 287 625 
168 7 461 181 109 360 390 554 308 
169 9 279 674 326 701 145 256 289 306 504 
170 9 63 563 148 178 315 642 280 54 375 
171 7 704 638 252 39 319 467 490 
172 9 271 439 87 77 646 334 248 543 346 
173 9 275 270 67 362 282 158 581 628 330 
174 8 668 225 377 502 703 278 86 515 
175 4 403 410 470 23 
176 9 584 468 71 343 246 635 551 459 267 
177 8 516 565 567 143 663 2 575 688 
178 9 563 63 642 170 315 54 148 375 280 
179 8 592 640 55 688 663 41 682 17 
180 9 89 193 588 534 329 520 221 494 268 
181 7 461 694 168 109 189 292 118 
182 8 411 630 119 521 299 471 30 633 
183 9 29 204 420 352 356 76 702 253 443 
184 9 254 227 455 264 382 673 159 14 98 
185 6 457 207 586 84 649 433 
186 9 372 594 708 114 641 579 94 699 367 
187 9 289 359 701 150 692 256 306 169 44 
188 9 15 435 683 659 113 306 603 604 701 
189 8 292 118 694 482 213 112 181 379 
190 8 210 587 27 415 483 341 217 348 
191 9 90 18 456 100 533 88 389 601 693 
192 9 442 598 685 59 604 83 677 489 683 
193 9 180 588 89 329 534 221 268 650 520 
194 4 397 573 35 625 
195 9 658 107 613 627 697 294 218 12 618 
196 9 593 518 124 676 597 161 529 234 463 
197 9 302 24 142 297 672 273 267 476 590 
198 4 344 636 22 391 
199 9 266 645 487 639 130 612 620 245 392 
200 4 388 470 13 258 
201 9 480 66 422 417 631 595 154 707 549 
202 9 81 74 571 164 16 116 409 449 569 
203 9 469 78 428 144 156 385 337 537 566 
204 9 352 702 183 356 420 154 29 149 698 
205 9 25 229 69 602 494 600 61 381 520 
206 9 75 99 152 135 335 429 536 51 558 
207 8 84 185 457 433 586 649 383 517 
208 9 32 298 670 261 355 548 312 305 316 
209 9 651 562 667 226 339 596 45 9 481 
210 8 190 415 27 587 666 348 383 621 
211 9 70 709 139 40 424 553 220 546 243 
212 6 450 531 341 434 510 101 
213 9 118 379 189 589 292 56 116 123 461 
214 9 126 244 331 493 686 357 115 222 577 
215 3 300 661 37 
216 8 407 369 519 323 151 236 438 402 
217 7 541 380 587 133 190 27 210 
218 9 43 525 697 195 658 618 627 675 294 
219 4 371 307 79 277 
220 9 553 139 684 536 243 211 335 70 51 
221 9 268 650 193 588 180 329 644 89 534 
222 9 31 493 577 244 126 686 115 214 644 
223 9 576 117 398 133 550 458 541 539 85 
224 9 404 679 426 255 58 131 386 389 134 
225 4 502 174 163 86 
226 6 339 596 9 562 391 209 
227 9 455 382 264 14 370 184 254 500 98 
228 6 508 475 101 483 434 510 
229 9 69 602 205 600 25 494 606 690 61 
230 9 338 285 342 384 314 104 125 122 462 
231 9 706 574 399 273 343 238 297 153 346 
232 9 447 233 260 80 237 349 251 149 505 
233 9 260 80 447 232 237 149 420 505 349 
234 8 463 676 597 277 593 518 79 161 
235 9 555 527 123 20 165 56 452 589 112 
236 9 438 578 49 369 72 431 216 332 327 
237 9 447 80 233 232 260 420 313 149 96 
238 9 248 706 346 87 231 570 97 561 153 
239 9 465 414 62 262 301 34 311 547 28 
240 9 136 345 79 247 669 678 496 21 690 
241 8 681 347 281 57 121 522 91 526 
242 3 513 35 608 
243 9 429 335 536 40 354 552 70 424 486 
244 9 126 214 493 222 686 115 577 31 331 
245 8 620 392 266 26 199 607 497 645 
246 9 468 551 584 176 547 71 311 413 301 
247 8 496 690 141 136 250 345 240 623 
248 9 238 87 561 570 346 706 97 172 153 
249 9 473 269 51 530 524 684 558 324 135 
250 3 141 496 247 
251 9 349 561 689 336 570 97 153 232 248 
252 7 704 171 39 638 393 319 490 
253 9 76 460 443 29 285 122 660 342 157 
254 9 159 98 184 227 673 455 14 264 382 
255 9 58 131 386 134 679 6 611 404 426 
256 9 692 326 359 150 289 368 559 103 169 
257 8 629 665 336 689 349 19 290 309 
258 7 13 38 380 200 388 406 138 
259 9 114 104 641 328 125 699 616 321 372 
260 9 80 233 447 149 232 237 352 505 204 
261 9 305 312 355 5 32 208 145 444 612 
262 9 239 441 62 296 28 290 311 301 414 
263 5 143 436 565 583 400 
264 9 382 455 227 184 500 14 370 254 19 
265 9 446 564 110 402 310 510 519 151 48 
266 8 199 245 620 392 645 130 487 639 
267 9 297 273 105 302 378 343 635 590 459 
268 9 650 221 193 588 180 89 329 534 644 
269 9 249 51 524 473 558 530 135 684 99 
270 9 67 282 275 173 628 64 486 362 566 
271 9 172 77 646 439 543 87 505 248 334 
272 6 580 664 540 108 277 219 
273 9 297 267 343 302 231 197 105 574 706 
274 9 477 454 358 506 166 146 501 528 655 
275 9 67 270 173 282 362 628 64 581 566 
276 9 325 28 511 290 140 262 441 239 500 
277 7 234 540 597 463 219 676 161 
278 9 361 86 691 82 668 502 174 703 693 
279 9 169 674 504 444 306 659 365 145 701 
280 9 315 375 642 54 609 178 170 63 563 
281 8 526 503 347 241 681 474 622 132 
282 9 628 270 486 67 275 64 173 705 566 
283 9 671 582 614 147 440 17 41 569 95 
284 8 484 476 303 320 142 672 24 451 
285 9 342 122 230 253 338 460 462 76 104 
286 9 569 571 164 568 147 647 81 421 93 
287 6 373 512 626 711 65 408 
288 9 542 648 663 688 2 640 585 33 177 
289 9 359 692 150 256 187 326 169 701 368 
290 8 28 441 276 262 325 296 511 140 
291 9 393 319 39 252 704 567 37 682 171 
292 8 189 118 482 112 694 213 379 56 
293 6 700 162 304 44 603 514 
294 9 658 697 195 613 107 627 218 43 12 
295 9 624 71 309 399 574 584 343 296 153 
296 9 441 262 624 547 311 295 290 62 71 
297 9 267 273 302 343 105 197 590 378 231 
298 9 548 318 208 615 351 130 102 32 261 
299 9 521 119 30 411 621 401 348 630 182 
300 4 215 661 37 467 
301 9 62 311 547 414 34 465 239 485 262 
302 9 197 297 267 24 273 590 672 105 142 
303 8 484 284 316 50 672 476 670 24 
304 8 364 599 44 374 396 350 700 605 
305 9 312 261 5 145 355 444 674 32 612 
306 9 701 435 659 504 15 169 279 683 188 
307 4 371 496 219 79 
308 9 554 655 390 109 454 166 477 168 52 
309 9 665 629 295 153 624 97 336 689 570 
310 9 110 564 416 265 446 48 402 106 510 
311 9 547 301 62 414 34 246 262 296 239 
312 9 305 261 5 355 145 32 444 430 674 
313 9 96 662 366 420 423 237 557 447 98 
314 9 384 654 230 125 328 104 338 259 12 
315 9 280 642 375 170 54 178 63 563 609 
316 8 670 50 303 32 355 430 484 284 
317 9 489 405 83 178 657 54 563 642 656 
318 5 548 351 615 298 130 
319 9 39 291 393 567 704 252 171 516 682 
320 8 451 476 103 284 484 610 142 368 
321 9 157 660 616 443 557 104 259 708 579 
322 9 7 695 707 363 350 60 396 394 374 
323 9 151 519 402 407 216 446 106 48 265 
324 9 524 530 473 269 249 558 51 88 684 
325 9 276 511 28 140 290 262 441 239 500 
326 9 256 692 559 145 5 368 169 359 289 
327 9 72 73 466 687 431 578 236 413 438 
328 9 699 125 259 641 114 104 372 618 12 
329 9 534 588 494 193 180 520 89 381 495 
330 9 481 158 362 340 667 173 581 270 275 
331 9 357 214 127 244 617 126 538 111 91 
332 6 471 369 49 438 236 212 
333 6 464 120 458 185 457 128 
334 9 346 87 439 172 142 238 248 320 476 
335 9 536 429 243 99 206 684 51 40 354 
336 9 689 561 629 97 570 153 665 309 251 
337 9 452 156 710 527 20 78 555 235 165 
338 9 230 342 285 36 122 155 453 47 462 
339 6 226 596 482 112 209 292 
340 9 481 330 158 533 667 362 100 651 75 
341 8 450 434 475 212 483 531 101 190 
342 9 122 462 285 460 338 253 230 36 76 
343 9 273 297 176 584 71 399 267 231 574 
344 4 198 636 22 391 
345 9 136 240 678 247 690 669 21 600 79 
346 9 334 87 238 439 248 142 706 231 172 
347 6 241 281 121 526 503 681 
348 9 621 666 401 210 299 415 521 517 30 
349 9 251 336 689 232 561 570 97 629 153 
350 8 396 374 599 7 322 364 707 695 
351 3 318 548 130 
352 9 204 702 183 356 154 420 149 80 417 
353 9 581 45 362 667 20 144 275 173 67 
354 9 705 499 486 552 572 628 566 64 429 
355 8 32 312 430 261 305 316 670 5 
356 9 698 702 204 154 352 183 29 76 460 
357 9 331 214 111 126 244 617 127 91 115 
358 9 506 274 501 146 477 454 160 609 33 
359 9 289 692 150 256 187 326 368 169 103 
360 7 168 52 390 636 498 344 461 
361 9 278 82 691 86 693 668 502 703 100 
362 9 173 158 581 330 275 481 67 270 667 
363 6 394 322 695 60 448 7 
364 9 599 605 304 44 396 350 374 595 707 
365 9 645 487 612 3 444 639 392 674 199 
366 9 423 662 98 96 313 370 14 19 159 
367 9 579 708 594 557 186 159 372 94 662 
368 9 103 256 451 559 150 692 326 610 320 
369 8 216 438 407 236 332 49 519 578 
370 9 14 19 227 98 455 382 423 264 366 
371 4 307 219 496 79 
372 9 186 641 114 699 594 708 94 618 579 
373 6 512 626 287 711 698 65 
374 7 396 350 599 304 364 7 322 
375 9 54 642 280 315 609 178 657 160 563 
376 9 549 77 631 595 505 605 44 66 271 
377 9 703 668 9 174 637 278 361 596 391 
378 9 105 459 635 590 267 297 302 273 176 
379 9 589 56 123 118 213 165 292 555 189 
380 6 133 541 217 258 200 13 
381 9 520 495 494 25 205 534 61 329 229 
382 9 264 455 227 500 14 184 370 19 254 
383 9 666 415 433 27 84 586 210 207 517 
384 9 314 230 654 338 125 285 453 104 328 
385 9 428 537 93 156 203 421 647 568 78 
386 9 58 134 6 255 611 472 131 591 679 
387 9 556 137 529 622 523 132 161 474 518 
388 5 200 470 13 38 258 
389 9 456 18 88 90 426 601 191 404 679 
390 9 308 52 554 168 360 109 655 477 454 
391 6 637 9 596 226 198 339 
392 9 620 245 26 607 497 266 645 199 487 
393 9 291 319 39 252 704 37 490 467 171 
394 8 448 60 363 532 7 322 625 287 
395 8 23 410 403 535 544 175 406 138 
396 7 350 374 599 364 7 304 322 
397 4 194 573 35 625 
398 9 458 117 223 550 576 85 333 586 128 
399 9 574 231 706 295 343 153 309 624 97 
400 5 436 263 2 33 565 
401 9 517 30 621 348 299 666 433 521 633 
402 9 151 446 265 323 48 519 564 106 110 
403 4 175 410 23 470 
404 9 679 426 224 255 131 58 389 456 386 
405 9 83 497 489 26 607 317 59 3 392 
406 9 138 544 38 535 13 53 427 258 388 
407 8 519 216 323 151 369 446 402 265 
408 9 167 65 532 10 448 287 545 711 42 
409 9 16 92 585 95 74 648 528 202 81 
410 8 23 395 544 535 13 388 403 38 
411 8 182 630 119 521 299 30 633 471 
412 6 418 623 141 615 250 61 
413 9 485 466 73 551 431 246 34 301 311 
414 9 465 62 34 239 301 311 547 485 262 
415 9 27 383 210 666 587 190 348 433 621 
416 9 48 310 106 402 564 110 265 446 151 
417 9 422 201 154 66 480 702 149 352 631 
418 8 412 615 102 623 141 250 318 61 
419 8 696 591 131 608 513 601 255 163 
420 9 183 204 237 352 313 29 96 80 447 
421 9 647 93 568 537 710 156 571 449 385 
422 9 66 201 480 417 631 595 149 549 154 
423 9 366 370 98 14 19 96 662 313 227 
424 9 709 546 40 552 634 70 478 354 211 
425 4 545 10 42 625 
426 9 679 404 131 224 389 255 456 696 58 
427 9 53 138 406 539 535 544 38 13 258 
428 9 385 156 537 203 93 78 469 421 647 
429 9 335 243 536 354 486 628 705 40 206 
430 8 610 559 355 451 484 103 5 316 
431 9 72 73 578 466 327 236 413 438 551 
432 9 11 102 653 437 492 50 633 670 208 
433 9 84 383 207 517 666 401 586 415 185 
434 9 101 475 531 341 483 450 510 212 228 
435 9 659 306 504 15 701 683 188 604 279 
436 6 400 263 2 33 565 143 
437 9 492 633 11 432 102 517 30 401 653 
438 9 236 49 578 369 332 72 216 431 471 
439 9 87 172 334 271 346 248 368 150 238 
440 9 671 283 17 95 582 147 614 41 569 
441 8 290 296 262 28 276 239 311 547 
442 9 192 598 685 677 604 59 83 489 683 
443 9 660 157 321 616 253 76 29 104 285 
444 9 674 612 365 305 145 487 5 639 261 
445 8 607 148 245 26 497 63 563 620 
446 9 265 110 564 402 519 310 151 510 323 
447 9 233 237 80 232 260 149 420 349 313 
448 8 532 394 408 167 363 60 287 625 
449 9 452 165 710 527 555 116 421 123 589 
450 6 212 341 531 434 101 475 
451 8 103 320 610 368 559 484 430 284 
452 9 527 555 165 449 235 337 710 123 56 
453 9 155 47 36 509 338 4 342 462 122 
454 9 477 166 274 655 528 146 358 506 308 
455 9 264 382 227 184 14 500 370 254 19 
456 9 18 389 601 191 90 88 426 696 100 
457 5 185 207 649 586 84 
458 9 85 398 117 128 333 576 120 223 507 
459 9 635 378 105 267 176 590 297 49 273 
460 9 122 462 76 253 342 285 29 338 443 
461 7 181 109 168 694 189 118 213 
462 9 122 342 460 36 285 47 338 76 253 
463 8 234 676 79 597 593 277 518 196 
464 4 333 495 120 457 
465 9 414 239 34 62 301 485 311 262 547 
466 9 73 327 431 72 413 687 485 578 551 
467 6 490 661 252 37 704 393 
468 9 584 246 71 176 551 624 547 311 343 
469 9 203 78 144 428 156 385 337 566 353 
470 3 200 388 13 
471 6 332 630 182 49 411 369 
472 8 386 6 134 611 58 255 131 194 
473 9 249 530 524 269 51 684 324 558 135 
474 9 622 556 132 46 526 387 681 523 281 
475 8 101 434 483 228 341 508 531 510 
476 9 142 284 484 320 24 672 451 197 303 
477 9 454 274 166 358 501 655 506 528 146 
478 9 634 546 552 424 709 499 572 40 354 
479 9 507 128 120 89 85 180 68 193 534 
480 9 66 201 422 631 595 417 549 605 149 
481 9 330 158 340 362 667 173 581 270 275 
482 9 112 292 189 56 118 123 339 589 379 
483 7 475 508 434 101 228 341 190 
484 8 284 476 303 320 610 451 142 672 
485 9 34 413 301 414 62 465 311 466 547 
486 9 628 705 282 64 354 270 566 67 499 
487 9 645 639 612 199 365 130 444 266 620 
488 9 644 129 606 21 669 115 678 577 686 
489 9 83 317 405 677 192 442 59 598 497 
490 6 467 661 37 252 704 393 
491 8 560 503 583 526 575 638 132 523 
492 9 437 11 102 633 432 649 517 401 84 
493 9 686 577 115 126 244 222 31 214 644 
494 9 520 25 381 329 205 534 229 495 69 
495 8 381 520 534 494 464 25 329 120 
496 5 247 307 79 250 371 
497 9 607 26 405 392 620 245 83 445 3 
498 9 656 52 657 677 317 360 489 160 390 
499 9 572 705 354 566 64 552 486 628 478 
500 9 382 264 140 455 227 19 511 14 370 
501 9 160 358 274 609 477 506 454 657 146 
502 7 86 163 225 174 278 608 668 
503 7 526 491 281 638 132 171 560 
504 9 659 306 435 279 701 604 683 15 169 
505 9 646 543 77 549 271 260 376 232 233 
506 9 358 146 274 501 33 477 454 166 528 
507 9 479 128 68 85 120 680 89 458 180 
508 5 228 483 475 101 434 
509 9 453 155 47 36 4 338 462 342 711 
510 9 531 101 265 110 446 434 564 212 475 
511 9 140 325 276 28 500 290 19 382 264 
512 6 373 626 287 711 698 65 
513 6 591 35 242 573 608 419 
514 6 515 652 643 603 162 113 
515 8 652 643 514 603 174 113 637 22 
516 8 177 567 575 319 39 143 565 560 
517 9 401 433 84 666 30 621 348 383 207 
518 9 161 597 529 593 676 196 234 124 463 
519 9 323 151 407 402 216 446 265 564 110 
520 9 381 494 495 534 25 329 205 229 588 
521 9 299 119 30 411 630 182 401 621 348 
522 9 91 57 617 127 111 538 619 331 681 
523 5 132 622 387 583 491 
524 9 269 473 530 249 324 558 51 88 684 
525 9 43 218 675 94 618 673 697 594 372 
526 8 281 503 132 474 622 491 681 523 
527 9 555 452 165 235 123 56 589 449 379 
528 9 166 454 146 274 655 477 506 16 358 
529 9 161 518 597 556 387 137 196 593 676 
530 9 473 249 524 269 324 51 684 558 220 
531 7 510 212 434 450 101 341 475 
532 7 448 167 408 394 625 10 545 
533 9 100 693 340 191 82 90 481 330 75 
534 9 329 588 520 180 89 494 193 381 495 
535 9 544 138 406 53 38 427 13 410 23 
536 9 335 243 429 684 51 99 220 206 40 
537 9 93 647 421 568 385 156 428 710 571 
538 9 127 617 57 522 619 91 331 111 357 
539 9 427 53 133 138 258 576 406 223 38 
540 7 272 137 277 664 108 580 597 
541 7 217 380 587 133 27 190 550 
542 9 288 648 663 688 585 92 640 409 95 
543 9 646 505 77 271 172 248 251 549 232 
544 9 406 535 138 38 13 53 410 427 258 
545 7 10 425 167 42 532 625 408 
546 9 634 478 424 709 552 40 70 499 354 
547 9 311 301 62 414 246 296 262 34 239 
548 6 318 298 351 615 130 208 
549 9 631 505 376 595 66 480 77 422 646 
550 9 398 586 27 587 223 383 415 541 576 
551 9 246 468 413 176 584 431 547 311 71 
552 9 424 40 354 546 709 634 478 499 572 
553 9 139 220 211 684 70 536 243 40 335 
554 9 308 655 390 109 166 454 168 477 74 
555 9 527 235 165 452 123 56 589 379 20 
556 9 387 474 622 529 132 46 161 518 124 
557 9 321 157 579 367 708 662 660 443 616 
558 9 88 135 269 152 51 524 99 249 75 
559 9 610 430 103 326 451 368 256 5 145 
560 7 575 583 491 143 263 523 171 
561 9 570 97 153 689 336 251 629 665 309 
562 9 209 651 596 226 9 339 667 703 340 
563 9 63 178 170 642 148 315 54 280 375 
564 9 110 265 446 310 402 510 416 48 519 
565 9 2 143 263 177 436 575 516 33 583 
566 9 64 705 572 628 499 486 282 67 354 
567 8 682 319 516 39 291 177 393 592 
568 9 647 93 421 537 286 571 710 385 156 
569 9 164 286 147 440 283 671 81 571 614 
570 9 97 153 561 689 336 629 665 309 251 
571 9 81 286 164 202 569 568 647 421 449 
572 9 499 566 705 64 354 552 628 486 478 
573 6 35 194 397 513 611 6 
574 9 399 706 231 153 295 343 97 570 309 
575 7 560 583 143 516 491 263 565 
576 9 223 117 398 458 133 85 550 539 680 
577 9 493 686 115 222 31 126 244 644 214 
578 9 236 431 72 438 49 73 327 466 369 
579 9 708 367 186 594 372 557 114 641 321 
580 6 664 272 108 540 632 148 
581 9 353 362 275 173 45 67 667 158 270 
582 9 283 17 671 614 440 147 41 95 569 
583 6 560 575 263 143 491 523 
584 9 71 468 176 246 343 624 295 551 399 
585 9 92 95 648 41 440 409 17 671 542 
586 9 185 207 383 457 550 84 433 27 415 
587 8 27 210 190 415 217 541 550 383 
588 9 193 180 329 534 89 494 520 221 268 
589 9 56 123 379 165 118 555 213 235 112 
590 9 105 378 267 302 672 297 24 197 459 
591 7 513 419 35 608 611 573 696 
592 8 179 640 682 688 55 567 663 177 
593 9 196 676 518 597 161 124 234 463 529 
594 9 94 186 367 579 372 159 708 675 673 
595 9 631 66 480 201 605 549 422 376 417 
596 7 226 9 339 391 562 209 703 
597 9 161 518 676 593 529 234 196 463 277 
598 9 442 685 192 604 677 683 59 83 489 
599 9 364 396 350 605 304 374 44 707 695 
600 9 602 69 229 690 205 25 678 141 623 
601 9 456 18 696 389 191 691 426 419 90 
602 9 600 69 229 205 690 25 678 606 61 
603 8 113 8 643 514 652 515 22 162 
604 9 683 685 598 192 59 442 659 15 504 
605 9 364 599 595 44 631 304 350 396 707 
606 9 678 488 229 69 21 602 600 494 669 
607 9 497 26 392 245 445 620 405 148 83 
608 6 163 502 86 419 591 513 
609 9 160 280 375 501 54 315 358 642 657 
610 8 430 451 559 103 320 484 284 368 
611 9 6 134 386 58 472 255 573 591 131 
612 9 639 487 645 365 199 444 130 266 261 
613 9 107 195 658 627 294 697 12 218 618 
614 9 283 147 582 671 17 440 41 569 95 
615 7 318 548 418 298 351 412 102 
616 9 321 660 157 104 443 259 125 114 641 
617 9 127 522 91 538 57 111 331 619 357 
618 9 372 699 12 186 641 675 94 114 328 
619 9 57 538 127 522 617 91 111 331 241 
620 9 392 245 26 266 199 645 607 497 487 
621 9 348 666 401 299 210 521 415 517 30 
622 8 132 474 556 523 387 526 46 529 
623 9 141 690 412 247 250 600 602 69 61 
624 9 295 71 309 584 399 296 468 343 574 
625 5 532 397 545 10 194 
626 6 512 373 287 711 698 65 
627 9 107 195 12 613 658 697 294 218 618 
628 9 282 486 64 705 270 566 67 275 354 
629 8 665 336 689 309 153 97 561 570 
630 8 182 411 119 521 299 471 30 332 
631 9 595 66 480 549 422 201 376 605 417 
632 9 108 664 580 170 315 272 280 148 540 
633 9 30 437 401 521 119 299 517 492 653 
634 9 546 478 424 709 552 40 499 572 70 
635 9 459 378 105 267 176 297 590 273 343 
636 4 344 198 360 22 
637 8 391 377 22 643 9 652 703 515 
638 6 171 704 252 39 491 467 
639 9 612 487 645 199 130 365 266 444 620 
640 8 688 663 179 55 592 648 542 41 
641 9 114 699 259 372 328 186 708 125 618 
642 9 178 54 315 375 563 280 63 170 148 
643 9 652 515 514 603 113 22 637 8 174 
644 9 488 115 577 129 686 493 21 31 606 
645 9 487 639 612 199 365 620 266 392 130 
646 9 543 505 77 271 172 549 248 87 251 
647 9 421 568 93 537 710 571 286 156 385 
648 9 542 288 585 663 92 688 95 409 640 
649 4 457 207 185 84 
650 9 268 221 193 588 180 89 329 644 534 
651 9 209 562 667 45 481 226 330 339 340 
652 9 515 643 514 603 637 113 22 174 8 
653 9 11 432 50 633 437 670 316 303 30 
654 9 314 384 12 125 328 627 107 230 699 
655 9 166 308 554 454 477 528 274 16 390 
656 9 657 498 52 160 54 375 317 501 677 
657 9 656 160 54 375 498 317 501 52 642 
658 9 195 294 697 613 107 627 218 12 43 
659 9 504 435 306 683 15 604 701 279 188 
660 9 157 443 321 616 104 253 557 76 259 
661 6 467 490 37 300 215 252 
662 9 96 366 313 557 423 367 98 579 159 
663 8 688 640 542 288 648 55 179 177 
664 6 580 272 108 540 632 148 
665 8 629 336 309 689 153 97 570 561 
666 9 383 415 433 348 621 210 517 27 401 
667 9 45 651 481 330 362 158 581 353 209 
668 9 174 377 703 278 361 86 502 225 691 
669 9 21 129 678 345 240 488 136 606 644 
670 8 316 32 50 355 208 303 430 261 
671 9 283 440 582 17 614 147 41 95 569 
672 9 24 284 476 197 303 142 484 302 590 
673 9 184 254 159 675 94 594 525 227 98 
674 9 444 145 5 279 169 305 365 312 261 
675 9 94 525 594 186 618 372 673 218 43 
676 9 234 597 593 463 518 196 161 277 529 
677 9 442 192 598 489 498 685 83 317 656 
678 9 606 21 345 669 136 600 602 229 69 
679 9 426 404 224 131 255 58 389 696 386 
680 9 68 507 117 85 128 479 576 458 223 
681 9 241 46 281 474 91 522 57 111 526 
682 8 567 592 291 319 393 39 179 516 
683 9 604 15 685 659 598 435 192 442 504 
684 9 51 249 473 220 536 269 530 335 524 
685 9 598 192 442 604 683 59 677 83 15 
686 9 493 115 577 126 244 222 31 214 644 
687 9 327 466 73 72 431 413 578 485 236 
688 8 640 663 648 542 55 179 288 592 
689 9 336 561 97 570 629 153 665 251 309 
690 9 600 602 141 247 623 69 136 229 345 
691 9 361 278 82 86 693 100 502 163 601 
692 9 256 359 289 150 326 368 559 169 103 
693 9 100 82 533 361 691 278 191 340 86 
694 5 189 181 292 461 118 
695 8 707 322 7 363 350 396 201 60 
696 9 419 601 131 591 608 426 456 163 679 
697 9 294 658 195 218 613 107 627 43 525 
698 7 356 154 702 512 626 373 204 
699 9 641 114 328 372 259 186 618 125 708 
700 6 293 162 44 304 364 188 
701 9 306 435 504 659 169 187 289 279 15 
702 9 154 352 204 356 698 417 183 149 422 
703 9 377 668 9 174 278 637 361 596 391 
704 7 252 171 39 638 319 393 291 
705 9 486 354 628 64 566 499 572 282 270 
706 9 231 574 399 238 153 570 97 248 273 
707 9 695 322 7 350 363 396 599 201 605 
708 9 579 367 186 372 114 594 557 641 321 
709 9 424 546 40 634 552 70 478 211 354 
710 9 421 156 449 337 452 647 537 93 527 
711 7 65 287 373 512 4 626 408 
DEPOT_SECTION
   1
   -1
EOF
