NAME :  X-n856-kX-w171-c11.cctp
COMMENT : 	Adapted by Maziero, Usberti and Cavellucci from the Uchoa, Pecin, Pessoa, Poggi, Subramanian, and Vidal (2013)
TYPE :  CCTP
DIMENSION :    686
EDGE_WEIGHT_TYPE : 	EUC_2D	
CAPACITY : 	9
VERTICES_WITHIN_COVERAGE :  11
VERTICES_WITH_DEMAND : 	171
NODE_COORD_SECTION
1 500 500
2 440 732
3 221 348
4 117 545
5 493 645
6 135 12
7 775 997
8 745 444
9 950 311
10 530 150
11 900 508
12 48 519
13 269 217
14 722 349
15 480 733
16 977 422
17 999 220
18 636 332
19 851 162
20 559 567
21 389 69
22 529 835
23 303 427
24 400 638
25 894 904
26 482 109
27 579 800
28 184 82
29 669 753
30 906 424
31 374 692
32 174 613
33 75 37
34 38 563
35 838 157
36 710 709
37 176 67
38 449 326
39 71 389
40 710 115
41 237 547
42 530 27
43 631 223
44 171 342
45 226 65
46 6 998
47 24 635
48 668 165
49 318 608
50 429 82
51 212 237
52 853 126
53 387 47
54 677 144
55 111 790
56 957 32
57 511 647
58 457 561
59 86 687
60 290 456
61 473 563
62 807 725
63 461 468
64 739 235
65 257 340
66 588 545
67 6 311
68 268 976
69 552 414
70 994 946
71 452 534
72 422 545
73 248 611
74 43 366
75 977 96
76 822 580
77 940 650
78 86 263
79 715 99
80 668 981
81 424 638
82 297 607
83 251 282
84 237 413
85 202 573
86 181 385
87 126 528
88 386 811
89 978 846
90 70 99
91 333 357
92 49 870
93 157 734
94 627 268
95 818 433
96 738 555
97 350 909
98 337 926
99 978 59
100 42 595
101 870 933
102 19 120
103 165 679
104 131 984
105 232 755
106 319 417
107 187 376
108 251 482
109 657 219
110 209 397
111 800 377
112 228 116
113 566 559
114 490 156
115 216 547
116 964 677
117 85 897
118 292 807
119 600 893
120 938 222
121 543 747
122 572 976
123 569 59
124 712 574
125 971 515
126 616 306
127 695 837
128 421 821
129 604 995
130 537 957
131 1000 653
132 282 817
133 380 874
134 778 101
135 462 74
136 87 682
137 441 228
138 608 430
139 511 313
140 710 300
141 630 24
142 626 650
143 531 719
144 598 824
145 995 622
146 258 981
147 358 281
148 279 169
149 286 268
150 259 659
151 782 132
152 862 518
153 457 603
154 210 438
155 44 44
156 527 818
157 164 156
158 23 86
159 342 930
160 39 282
161 269 848
162 436 886
163 323 340
164 237 891
165 333 488
166 517 137
167 591 972
168 541 888
169 122 280
170 159 655
171 200 158
172 446 283
173 107 315
174 588 270
175 158 374
176 26 353
177 959 76
178 927 736
179 437 138
180 53 938
181 333 192
182 922 499
183 970 664
184 237 738
185 8 561
186 747 852
187 989 908
188 100 860
189 10 960
190 842 190
191 595 716
192 286 965
193 199 373
194 159 67
195 979 25
196 488 479
197 804 620
198 742 853
199 528 160
200 223 342
201 503 159
202 711 681
203 339 340
204 342 509
205 766 953
206 710 172
207 521 451
208 172 159
209 685 836
210 639 155
211 763 656
212 269 241
213 825 761
214 330 177
215 901 124
216 713 860
217 619 926
218 692 19
219 96 876
220 949 178
221 79 795
222 833 852
223 336 444
224 877 0
225 296 597
226 566 735
227 940 377
228 349 269
229 939 827
230 908 120
231 50 741
232 670 569
233 753 744
234 577 351
235 141 616
236 97 625
237 64 875
238 496 160
239 515 598
240 344 803
241 274 510
242 291 170
243 800 300
244 74 609
245 791 396
246 405 191
247 395 290
248 525 743
249 260 385
250 408 837
251 1 346
252 231 504
253 837 572
254 606 473
255 900 729
256 346 868
257 477 169
258 383 59
259 510 410
260 890 101
261 952 635
262 825 722
263 68 598
264 234 841
265 911 720
266 172 367
267 569 289
268 84 19
269 694 916
270 454 412
271 261 233
272 693 375
273 588 854
274 276 538
275 599 569
276 142 158
277 338 805
278 324 194
279 739 325
280 845 639
281 638 182
282 858 93
283 40 923
284 37 599
285 638 39
286 218 714
287 568 674
288 288 840
289 439 570
290 325 801
291 587 278
292 992 674
293 597 608
294 174 865
295 65 330
296 620 129
297 339 681
298 178 811
299 469 749
300 475 791
301 799 594
302 692 130
303 59 223
304 811 2
305 5 946
306 219 305
307 759 951
308 656 889
309 582 18
310 97 885
311 899 286
312 512 358
313 188 776
314 220 951
315 503 801
316 483 402
317 685 904
318 483 722
319 13 301
320 607 709
321 857 739
322 51 422
323 818 797
324 302 646
325 474 101
326 817 66
327 573 973
328 948 686
329 586 899
330 153 503
331 47 817
332 740 970
333 216 852
334 261 776
335 920 879
336 642 623
337 305 71
338 268 373
339 374 176
340 894 60
341 539 352
342 605 457
343 4 240
344 340 303
345 563 524
346 861 875
347 700 810
348 160 753
349 985 455
350 981 276
351 708 646
352 575 249
353 777 725
354 724 888
355 853 773
356 4 27
357 743 430
358 301 574
359 38 983
360 575 209
361 10 683
362 745 333
363 616 311
364 537 110
365 70 839
366 531 647
367 157 736
368 609 356
369 450 852
370 534 11
371 436 279
372 340 578
373 41 809
374 971 282
375 389 628
376 171 951
377 633 578
378 158 858
379 219 471
380 392 784
381 586 937
382 546 923
383 619 737
384 700 50
385 722 223
386 112 450
387 857 66
388 81 295
389 314 964
390 829 981
391 723 590
392 645 700
393 318 800
394 277 268
395 459 81
396 573 211
397 391 259
398 368 81
399 262 451
400 629 44
401 390 264
402 842 703
403 780 254
404 653 177
405 882 625
406 763 432
407 615 183
408 62 855
409 629 543
410 27 83
411 822 574
412 355 86
413 519 683
414 111 12
415 957 366
416 265 184
417 985 701
418 215 888
419 945 515
420 553 988
421 22 32
422 817 463
423 441 911
424 551 214
425 422 750
426 196 122
427 312 75
428 25 46
429 184 140
430 82 88
431 979 491
432 439 811
433 199 182
434 239 151
435 960 334
436 67 99
437 49 100
438 253 120
439 421 756
440 170 166
441 854 544
442 58 109
443 408 787
444 845 522
445 350 875
446 24 154
447 732 438
448 322 797
449 569 889
450 286 3
451 19 558
452 271 127
453 425 909
454 405 777
455 921 499
456 513 901
457 541 920
458 41 240
459 876 405
460 449 871
461 786 558
462 467 684
463 827 446
464 625 441
465 321 913
466 935 443
467 378 902
468 95 48
469 991 561
470 822 451
471 137 252
472 556 988
473 769 375
474 925 421
475 674 544
476 117 30
477 119 18
478 134 297
479 614 521
480 887 325
481 467 903
482 772 461
483 379 846
484 916 509
485 983 447
486 667 885
487 465 911
488 96 17
489 671 926
490 93 287
491 795 581
492 741 514
493 119 223
494 503 964
495 849 388
496 80 58
497 123 266
498 683 363
499 77 114
500 872 520
501 187 62
502 918 677
503 909 427
504 937 395
505 80 88
506 510 919
507 25 87
508 421 825
509 468 802
510 2 112
511 647 389
512 705 454
513 151 897
514 27 44
515 154 38
516 285 921
517 956 449
518 259 863
519 702 637
520 432 847
521 112 263
522 908 625
523 783 344
524 422 744
525 168 96
526 358 850
527 62 117
528 539 970
529 278 215
530 854 616
531 379 769
532 418 899
533 688 555
534 826 582
535 401 805
536 384 826
537 320 775
538 204 336
539 866 515
540 405 865
541 724 356
542 414 830
543 131 31
544 318 200
545 1 157
546 542 729
547 245 352
548 539 905
549 827 317
550 376 836
551 878 519
552 212 724
553 876 516
554 380 841
555 149 149
556 330 999
557 283 883
558 866 497
559 138 48
560 814 455
561 970 535
562 450 898
563 220 93
564 208 26
565 317 96
566 921 488
567 903 248
568 849 498
569 180 59
570 69 98
571 199 69
572 879 525
573 57 102
574 978 705
575 691 634
576 391 789
577 442 872
578 754 759
579 854 615
580 820 450
581 326 986
582 71 69
583 315 718
584 377 938
585 44 74
586 290 921
587 142 147
588 437 837
589 742 549
590 288 844
591 792 425
592 262 65
593 533 687
594 213 160
595 4 153
596 140 44
597 521 878
598 575 779
599 442 900
600 893 487
601 73 13
602 394 886
603 511 949
604 474 772
605 812 425
606 684 471
607 132 137
608 797 351
609 386 268
610 953 616
611 382 794
612 548 895
613 861 525
614 372 780
615 967 425
616 534 912
617 396 888
618 82 60
619 856 523
620 12 90
621 303 67
622 497 721
623 40 111
624 347 868
625 377 932
626 296 934
627 926 500
628 380 921
629 423 888
630 716 514
631 871 532
632 529 867
633 852 522
634 406 859
635 51 110
636 824 407
637 274 236
638 854 533
639 336 959
640 813 702
641 210 304
642 460 867
643 315 915
644 905 380
645 831 580
646 399 106
647 74 112
648 139 43
649 57 100
650 78 81
651 170 77
652 959 379
653 347 913
654 316 803
655 538 906
656 939 530
657 235 819
658 982 463
659 847 370
660 200 145
661 769 970
662 712 624
663 867 531
664 352 966
665 451 831
666 341 453
667 10 127
668 1 25
669 918 775
670 277 884
671 884 435
672 745 448
673 118 13
674 222 755
675 695 341
676 25 18
677 380 843
678 436 877
679 912 446
680 405 857
681 568 430
682 935 513
683 821 687
684 367 814
685 33 97
686 411 722
DEMAND_SECTION
2 1
3 1
4 1
5 1
6 1
7 1
8 1
9 1
10 1
11 1
12 1
13 1
14 1
15 1
16 1
17 1
18 1
19 1
20 1
21 1
22 1
23 1
24 1
25 1
26 1
27 1
28 1
29 1
30 1
31 1
32 1
33 1
34 1
35 1
36 1
37 1
38 1
39 1
40 1
41 1
42 1
43 1
44 1
45 1
46 1
47 1
48 1
49 1
50 1
51 1
52 1
53 1
54 1
55 1
56 1
57 1
58 1
59 1
60 1
61 1
62 1
63 1
64 1
65 1
66 1
67 1
68 1
69 1
70 1
71 1
72 1
73 1
74 1
75 1
76 1
77 1
78 1
79 1
80 1
81 1
82 1
83 1
84 1
85 1
86 1
87 1
88 1
89 1
90 1
91 1
92 1
93 1
94 1
95 1
96 1
97 1
98 1
99 1
100 1
101 1
102 1
103 1
104 1
105 1
106 1
107 1
108 1
109 1
110 1
111 1
112 1
113 1
114 1
115 1
116 1
117 1
118 1
119 1
120 1
121 1
122 1
123 1
124 1
125 1
126 1
127 1
128 1
129 1
130 1
131 1
132 1
133 1
134 1
135 1
136 1
137 1
138 1
139 1
140 1
141 1
142 1
143 1
144 1
145 1
146 1
147 1
148 1
149 1
150 1
151 1
152 1
153 1
154 1
155 1
156 1
157 1
158 1
159 1
160 1
161 1
162 1
163 1
164 1
165 1
166 1
167 1
168 1
169 1
170 1
171 1
172 1
COVERAGE_SECTION
2 11 524 425 439 686 299 15 318 604 462 454 622 
3 11 200 538 547 193 65 306 107 641 44 110 266 
4 11 87 330 263 12 235 244 34 236 32 85 100 
5 11 57 366 413 462 239 153 593 81 622 318 287 
6 11 477 673 543 414 476 648 515 596 559 488 268 
7 11 661 332 205 307 390 80 101 269 354 489 317 
8 10 672 357 447 406 482 512 591 245 606 492 
9 10 435 374 350 415 311 480 227 652 567 644 
10 11 199 166 201 238 114 364 257 26 424 325 360 
11 9 484 600 455 182 551 553 572 627 566 
12 11 34 451 185 4 100 87 263 284 244 386 322 
13 11 529 271 637 212 416 148 242 394 544 149 51 
14 11 541 362 675 279 272 498 140 473 523 608 111 
15 11 318 299 622 604 2 248 462 143 300 524 425 
16 9 615 485 349 517 658 466 652 504 474 
17 11 350 120 220 374 567 9 311 435 75 230 215 
18 11 363 126 368 498 511 675 234 94 272 291 174 
19 11 35 190 52 215 282 230 260 151 134 387 220 
20 11 113 66 275 345 239 293 479 409 377 366 61 
21 11 258 53 398 412 646 50 395 135 427 565 179 
22 7 156 632 315 597 168 27 273 
23 11 106 60 223 666 399 249 338 84 165 91 108 
24 11 375 81 31 153 297 289 462 372 686 49 5 
25 11 335 101 346 222 229 187 390 89 70 323 669 
26 11 325 395 135 166 114 238 179 201 364 50 257 
27 11 598 144 156 273 22 121 226 383 315 248 546 
28 9 651 37 501 571 525 569 194 563 426 
29 11 383 392 36 347 320 191 202 233 209 578 127 
30 6 503 474 679 671 466 459 
31 11 297 686 24 583 375 524 81 425 2 531 439 
32 11 235 170 85 103 73 115 236 4 41 150 87 
33 10 268 496 468 601 618 488 155 582 476 414 
34 11 451 185 100 284 12 263 244 47 4 236 87 
35 11 19 190 52 151 282 215 260 230 134 326 387 
36 11 202 233 29 351 392 578 353 519 211 575 662 
37 11 569 501 651 28 194 571 525 515 559 596 648 
38 11 172 371 139 247 312 316 270 401 609 397 341 
39 11 74 322 176 295 386 173 251 175 388 67 266 
40 11 79 302 54 206 48 384 134 151 210 404 296 
41 11 115 274 252 85 241 73 108 358 225 379 82 
42 11 370 123 309 135 364 395 325 26 141 400 285 
43 11 109 281 407 94 404 360 396 352 174 210 48 
44 11 266 538 175 107 193 86 3 200 641 478 306 
45 11 571 563 592 501 564 28 569 37 112 651 438 
46 11 359 189 305 180 283 104 117 92 237 310 219 
47 11 284 100 361 244 263 34 236 185 451 136 59 
48 11 404 54 210 281 302 206 109 407 296 40 43 
49 11 82 225 372 358 324 73 375 297 150 274 24 
50 11 395 135 646 21 325 258 53 179 26 398 412 
51 11 271 212 433 13 83 637 641 306 529 394 416 
52 11 282 35 19 260 215 230 387 190 326 151 340 
53 11 258 21 398 412 50 646 135 395 427 337 565 
54 11 302 48 210 404 206 40 281 79 296 407 109 
55 11 221 348 365 331 298 188 367 93 373 231 313 
56 11 195 99 177 75 340 224 260 230 387 215 282 
57 11 5 366 413 593 239 462 287 153 143 622 318 
58 11 61 289 71 72 153 239 81 196 5 63 375 
59 11 136 236 231 361 103 244 170 47 93 367 235 
60 11 399 23 108 223 106 666 165 241 84 379 204 
61 11 58 289 71 153 72 239 5 196 20 81 57 
62 11 262 640 353 213 683 402 321 233 578 355 323 
63 11 196 270 207 71 316 259 72 58 61 289 69 
64 10 385 403 206 140 109 243 279 362 48 404 
65 11 547 200 338 3 249 306 538 83 641 163 193 
66 11 113 275 345 479 20 409 377 293 254 232 475 
67 11 319 251 160 176 295 74 343 388 458 490 78 
68 11 146 192 389 626 314 516 581 586 556 639 643 
69 11 681 259 207 138 341 234 342 312 316 464 254 
70 11 187 335 89 25 101 229 346 390 222 669 178 
71 11 58 72 61 289 196 63 153 239 81 207 345 
72 11 289 71 58 61 153 63 204 372 375 81 196 
73 11 82 150 225 85 324 41 358 49 115 32 274 
74 11 176 39 295 251 322 67 319 388 173 160 490 
75 11 177 99 56 195 230 215 220 260 340 282 387 
76 8 534 411 645 253 301 491 461 197 
77 10 261 183 502 116 610 328 522 292 131 145 
78 11 490 521 388 497 169 303 160 458 471 493 173 
79 11 40 302 384 54 134 206 151 48 218 210 285 
80 11 489 129 269 332 217 167 317 308 381 327 122 
81 11 24 375 153 462 5 289 31 58 686 57 61 
82 11 225 49 358 324 73 372 150 274 41 297 375 
83 11 394 149 306 212 641 271 637 65 51 200 13 
84 11 110 249 154 399 338 193 379 107 547 86 3 
85 11 115 41 32 73 235 252 274 330 87 4 170 
86 11 107 266 193 175 110 44 3 538 154 200 84 
87 11 4 330 12 386 85 235 263 115 34 244 32 
88 11 536 535 611 684 576 550 380 554 443 677 250 
89 11 229 187 335 669 70 25 178 346 101 255 574 
90 11 570 436 573 649 647 505 430 442 499 527 650 
91 11 203 163 344 106 338 23 65 249 147 223 547 
92 11 237 408 365 117 219 310 188 331 283 373 180 
93 11 367 348 313 103 552 286 674 55 105 170 184 
94 11 174 126 291 363 43 352 109 267 18 360 396 
95 8 605 463 580 470 560 591 636 422 
96 8 589 124 391 492 630 461 533 491 
97 11 653 98 159 465 467 628 445 625 643 584 256 
98 11 159 653 97 465 643 639 625 584 626 628 664 
99 11 177 56 195 75 340 230 260 215 224 387 220 
100 11 284 263 34 244 47 451 185 236 12 4 361 
101 11 25 346 390 335 222 205 661 307 7 187 70 
102 9 667 510 623 685 620 158 446 507 635 
103 11 170 93 367 286 552 32 235 348 136 59 236 
104 11 376 513 180 359 314 117 310 283 219 189 46 
105 11 674 184 334 552 286 313 657 348 367 93 298 
106 11 23 223 666 60 91 399 249 338 165 163 203 
107 11 86 193 266 175 110 44 538 3 200 84 547 
108 11 252 399 379 241 60 154 274 41 84 115 23 
109 11 43 281 404 48 407 94 385 210 206 54 360 
110 11 193 86 107 84 154 266 3 249 175 200 547 
111 10 245 608 473 523 636 659 591 605 495 95 
112 11 563 438 426 434 660 452 594 171 429 45 571 
113 11 20 66 275 345 293 479 239 409 377 61 254 
114 11 238 201 257 166 199 10 26 179 325 364 395 
115 11 41 85 252 274 241 73 108 379 330 32 358 
116 11 183 328 292 574 417 77 131 261 502 610 145 
117 11 310 219 237 188 92 408 180 283 365 513 378 
118 11 132 654 393 448 288 290 590 537 334 277 161 
119 11 329 449 217 273 381 612 308 168 382 548 655 
120 11 567 220 17 374 350 311 9 190 215 19 230 
121 11 248 546 226 143 598 622 191 593 27 15 318 
122 11 327 167 472 420 528 129 130 381 382 457 603 
123 11 309 42 370 364 400 141 285 296 166 10 26 
124 11 391 533 96 589 232 475 662 630 519 575 492 
125 7 561 431 419 656 682 627 469 
126 11 363 18 94 291 174 267 368 234 352 43 675 
127 11 209 347 216 198 186 486 354 308 317 269 29 
128 10 508 542 250 432 588 535 520 665 88 443 
129 11 167 122 327 472 420 381 80 528 217 130 382 
130 11 528 603 382 420 494 472 457 327 122 616 506 
131 11 292 145 183 116 417 261 574 77 610 328 502 
132 11 118 288 590 161 654 393 448 290 334 657 518 
133 9 602 617 540 467 483 445 634 680 677 
134 11 151 326 79 40 52 282 35 387 302 384 19 
135 11 395 325 50 26 179 646 21 53 258 42 364 
136 11 59 236 231 244 170 361 103 47 235 263 93 
137 10 371 246 172 397 401 609 257 247 339 114 
138 11 464 342 681 254 511 69 368 234 606 207 479 
139 11 312 341 38 267 172 234 371 291 174 352 316 
140 11 279 675 362 14 541 498 64 272 385 18 403 
141 11 285 400 309 218 123 384 370 42 296 79 40 
142 11 336 293 392 320 287 575 377 191 519 351 275 
143 11 546 248 121 593 622 226 413 318 15 287 191 
144 11 27 273 598 119 22 156 449 329 632 168 308 
145 9 131 610 261 183 292 469 77 116 328 
146 11 68 192 314 389 626 516 581 586 556 639 643 
147 10 228 344 609 401 247 397 203 163 149 371 
148 11 242 416 452 434 529 13 544 278 214 438 181 
149 11 394 212 637 83 271 13 529 228 344 147 544 
150 11 324 73 82 286 225 49 552 583 184 297 358 
151 11 134 35 52 40 19 79 326 206 190 282 302 
152 11 539 613 619 500 633 553 663 551 444 631 638 
153 11 289 58 61 81 5 239 24 72 71 57 375 
154 11 379 84 110 399 86 108 107 193 252 249 266 
155 11 514 428 421 585 33 676 582 496 618 601 356 
156 8 22 315 632 27 300 597 509 598 
157 10 208 440 555 276 587 429 171 607 660 433 
158 9 507 410 620 685 585 437 623 510 102 
159 11 98 653 97 465 639 643 625 584 664 628 389 
160 11 319 458 67 388 78 490 295 343 303 176 251 
161 11 518 590 288 132 264 670 557 657 118 333 164 
162 9 678 629 577 599 562 460 532 423 453 
163 11 203 91 344 338 65 147 228 106 249 547 149 
164 11 418 518 670 333 557 264 161 516 586 314 294 
165 11 204 666 223 60 241 23 106 274 399 108 372 
166 11 10 199 201 238 114 364 26 257 325 179 395 
167 11 327 122 129 381 472 420 528 217 130 382 457 
168 11 612 548 655 597 632 616 449 456 457 382 506 
169 11 497 521 478 490 471 173 78 388 493 295 44 
170 11 103 235 32 236 136 93 59 367 286 552 85 
171 11 594 660 429 433 208 440 157 426 434 112 555 
172 11 371 38 247 137 401 397 609 139 147 228 312 
173 11 490 478 388 169 295 497 521 78 44 471 160 
174 11 291 352 267 94 126 363 396 360 43 424 18 
175 11 266 86 107 44 193 110 538 3 200 173 478 
176 11 74 251 295 67 319 39 160 322 388 173 490 
177 11 99 75 56 195 230 340 260 215 220 282 387 
178 11 265 255 669 328 502 574 417 116 321 355 183 
179 10 646 257 325 26 114 50 395 246 238 135 
180 11 283 359 189 305 117 237 92 310 219 46 408 
181 9 278 214 544 339 242 148 529 416 13 
182 8 455 627 566 484 682 11 419 600 
183 11 116 292 328 131 77 261 417 574 145 610 502 
184 11 105 674 552 286 334 313 348 93 367 583 657 
185 11 451 34 100 284 12 263 47 244 4 236 361 
186 11 198 216 354 127 347 209 317 269 222 486 323 
187 11 70 89 335 25 229 101 346 669 222 390 178 
188 11 219 310 365 408 237 117 92 378 513 221 331 
189 11 305 359 46 180 283 92 117 237 310 408 219 
190 10 19 35 52 151 567 215 403 230 282 120 
191 11 320 383 226 287 392 546 121 143 598 593 142 
192 11 68 389 146 626 516 586 581 639 556 643 465 
193 11 107 86 110 266 3 538 200 175 44 547 84 
194 10 651 37 569 501 559 28 515 525 596 648 
195 11 56 99 177 75 340 224 260 230 215 387 282 
196 11 63 207 71 259 270 316 61 345 58 69 72 
197 11 301 491 76 534 280 645 411 530 579 211 253 
198 11 186 216 354 127 209 347 317 269 486 222 308 
199 11 10 166 201 238 114 364 257 424 360 396 26 
200 11 3 538 547 65 306 193 641 107 44 338 110 
201 11 238 114 199 166 10 257 26 364 325 179 424 
202 11 36 351 519 575 662 211 392 233 353 29 578 
203 11 163 91 344 147 228 247 338 106 65 609 149 
204 11 165 666 223 241 372 274 60 358 72 23 106 
205 11 307 661 332 7 390 354 269 317 489 80 186 
206 11 48 54 302 385 40 404 64 109 79 210 281 
207 11 259 196 69 681 63 316 270 342 345 254 138 
208 11 440 157 429 555 171 276 660 587 433 594 426 
209 11 127 347 216 486 198 308 186 354 317 269 29 
210 11 404 281 48 296 407 54 302 109 43 206 40 
211 11 197 351 202 662 519 683 640 353 301 36 575 
212 11 637 271 13 394 529 149 83 51 416 544 278 
213 11 355 323 262 321 62 353 402 640 578 233 683 
214 9 181 278 544 242 339 148 529 416 13 
215 11 230 260 52 282 19 340 35 220 387 177 75 
216 11 127 198 354 186 209 317 347 486 269 308 489 
217 11 381 119 329 308 489 167 449 486 327 122 317 
218 11 384 285 141 400 79 40 309 302 134 304 54 
219 11 310 188 117 237 408 365 92 513 378 283 180 
220 11 120 17 230 215 567 75 260 19 177 350 374 
221 11 55 331 373 365 231 408 188 92 237 219 348 
222 11 346 323 25 355 186 101 198 213 335 229 354 
223 11 666 106 23 165 60 204 399 91 241 108 249 
224 11 340 304 387 56 326 282 260 195 177 99 230 
225 11 82 358 49 372 324 73 274 150 41 241 115 
226 11 546 121 191 143 248 598 320 383 593 287 27 
227 11 504 652 415 644 474 435 615 16 30 503 466 
228 10 147 344 609 401 397 247 149 203 394 163 
229 11 89 335 669 25 178 346 187 355 255 222 265 
230 11 215 260 52 282 340 177 19 220 75 387 35 
231 11 221 59 373 136 361 331 55 365 93 367 47 
232 11 533 475 377 124 409 391 336 575 96 662 275 
233 11 578 353 36 62 640 213 262 202 29 323 347 
234 11 368 341 363 126 18 267 312 69 291 139 511 
235 11 32 170 236 103 244 4 85 263 136 87 59 
236 11 244 263 235 136 59 100 284 170 47 32 4 
237 11 92 408 117 219 310 365 188 283 331 180 373 
238 11 114 201 257 166 199 10 26 179 325 364 424 
239 11 57 5 366 20 61 153 113 58 289 293 413 
240 11 277 290 448 684 393 654 614 537 611 88 536 
241 11 274 108 252 41 60 399 165 379 204 115 358 
242 11 148 416 214 544 278 181 452 529 13 434 438 
243 9 549 523 403 608 362 279 111 473 659 
244 11 263 236 100 284 47 34 235 136 451 4 59 
245 11 111 591 473 636 605 608 95 406 523 357 495 
246 9 339 137 179 397 181 257 401 214 609 
247 11 609 401 397 147 371 172 228 344 38 203 137 
248 11 121 546 143 622 226 15 318 299 593 604 413 
249 11 338 84 547 65 110 3 200 23 193 399 106 
250 11 542 508 680 128 634 520 536 540 554 588 677 
251 11 176 67 74 319 295 160 39 322 388 343 490 
252 11 108 379 41 241 115 274 399 154 85 60 330 
253 8 645 411 534 76 441 491 638 301 
254 11 342 464 138 479 681 345 66 409 606 69 207 
255 11 265 178 321 669 502 328 355 402 262 116 213 
256 11 624 445 526 133 483 97 677 554 550 653 467 
257 11 114 238 201 166 179 199 10 26 325 137 246 
258 11 21 53 398 412 646 50 427 565 337 395 135 
259 11 316 69 207 312 270 681 341 196 63 234 139 
260 11 215 230 282 340 52 387 19 177 35 326 75 
261 10 77 610 183 116 145 522 131 328 502 292 
262 11 62 640 402 683 321 213 353 355 233 255 323 
263 11 244 100 284 236 34 47 451 185 4 235 12 
264 11 333 657 518 161 164 418 132 288 590 670 298 
265 11 255 178 502 328 669 321 116 574 402 77 417 
266 11 175 107 86 44 193 538 110 3 200 641 547 
267 11 291 174 352 126 363 94 139 234 341 424 368 
268 11 488 601 33 414 468 476 477 673 496 618 155 
269 11 317 489 354 486 308 216 80 332 307 217 127 
270 11 316 63 259 196 207 312 38 69 341 139 681 
271 11 212 637 13 529 394 149 51 416 83 148 544 
272 11 498 675 541 14 511 362 279 18 357 447 473 
273 11 144 449 119 329 27 612 168 632 22 156 548 
274 11 241 41 358 252 108 115 225 82 204 372 165 
275 11 66 113 377 293 20 409 479 345 336 232 475 
276 6 555 587 157 607 440 208 
277 11 240 290 448 393 654 684 537 614 611 118 88 
278 9 544 181 214 242 148 529 339 13 416 
279 11 362 14 541 140 675 523 473 608 243 272 498 
280 10 530 579 405 197 683 534 645 76 301 402 
281 11 404 407 210 48 43 109 54 296 360 396 206 
282 11 387 52 260 326 340 215 230 35 19 134 151 
283 11 180 305 189 117 92 237 359 310 408 219 46 
284 11 100 263 34 47 244 451 185 236 12 361 4 
285 11 400 141 218 309 384 123 296 79 40 302 370 
286 11 552 184 674 105 93 103 367 150 313 348 334 
287 11 593 366 191 413 320 143 226 546 57 142 293 
288 11 590 161 132 118 518 557 670 654 393 264 290 
289 11 58 72 61 71 153 81 375 24 239 5 372 
290 11 448 393 654 277 240 537 118 684 132 614 288 
291 11 174 267 352 126 94 363 396 43 360 18 424 
292 11 131 183 116 417 574 328 145 261 77 610 502 
293 11 275 336 377 142 20 113 66 287 409 366 232 
294 11 378 513 333 418 298 264 164 188 657 219 310 
295 11 388 74 173 176 490 160 39 319 67 251 78 
296 11 210 407 281 404 54 48 302 364 400 123 40 
297 11 31 583 324 375 24 49 150 686 82 225 81 
298 11 313 378 294 333 657 348 264 55 674 105 367 
299 11 15 604 318 2 622 300 425 524 439 509 248 
300 9 509 604 315 432 299 665 15 156 588 
301 9 491 197 76 411 534 645 461 253 530 
302 11 54 40 79 48 206 210 404 296 281 384 151 
303 2 458 78 
304 11 326 224 387 340 282 134 218 384 260 52 151 
305 11 189 283 180 359 46 92 237 117 408 310 219 
306 11 641 538 200 83 3 65 547 44 51 394 193 
307 11 205 661 332 7 354 269 390 317 489 80 198 
308 11 486 317 489 269 217 119 209 216 127 354 329 
309 11 123 141 370 42 400 285 364 218 296 384 135 
310 11 219 117 188 237 408 92 365 513 378 180 283 
311 7 567 480 9 374 120 435 549 
312 11 341 139 259 316 234 69 38 270 267 681 207 
313 11 298 348 674 105 367 93 552 184 657 286 334 
314 11 146 376 68 164 418 192 516 586 626 513 670 
315 9 156 300 509 604 22 665 248 299 432 
316 11 259 270 312 207 63 69 341 196 38 681 139 
317 11 269 486 489 308 354 216 127 209 217 198 80 
318 11 15 622 299 462 2 248 143 604 413 546 593 
319 11 67 160 251 176 295 343 458 388 74 490 78 
320 11 191 383 392 226 287 142 546 121 29 143 593 
321 11 355 262 213 402 255 62 265 640 683 178 323 
322 11 39 74 386 176 251 295 12 175 67 173 319 
323 11 213 355 222 321 62 578 262 353 233 346 186 
324 11 82 49 150 225 297 73 358 583 372 31 375 
325 11 26 395 135 50 179 166 114 238 364 201 257 
326 11 387 282 134 304 52 151 340 260 224 35 19 
327 11 122 167 472 420 528 129 381 130 382 457 217 
328 11 116 183 502 574 77 417 292 265 261 178 131 
329 11 119 449 381 612 217 273 168 382 548 655 457 
330 11 87 4 386 379 115 252 85 154 41 108 12 
331 11 373 365 221 408 92 237 188 55 231 219 310 
332 11 307 661 205 7 269 80 489 354 317 390 486 
333 11 264 418 657 164 294 518 161 298 378 670 590 
334 11 105 118 674 184 132 657 537 654 393 448 288 
335 11 25 229 346 89 101 187 222 70 669 355 323 
336 11 142 377 293 575 232 519 275 351 662 392 409 
337 11 621 427 565 592 412 398 452 438 450 45 258 
338 11 249 547 65 84 3 200 23 110 163 91 106 
339 9 246 181 214 278 544 179 646 242 137 
340 11 387 260 282 224 230 215 177 56 326 52 99 
341 11 312 234 139 69 259 267 368 316 681 363 291 
342 11 254 464 138 681 479 69 345 511 606 207 409 
343 4 458 160 303 319 
344 11 147 228 203 163 91 247 609 401 149 397 394 
345 11 66 113 20 479 275 254 409 342 207 196 239 
346 11 222 25 101 335 323 229 355 390 669 186 213 
347 11 127 209 216 198 186 29 578 354 486 233 308 
348 11 367 93 313 552 55 298 674 286 105 103 184 
349 7 485 658 517 16 615 431 466 
350 11 374 9 17 435 120 311 567 415 220 652 480 
351 11 519 575 662 202 211 391 36 336 124 142 392 
352 11 174 291 396 267 360 424 94 43 126 363 407 
353 11 62 233 578 640 262 683 213 36 402 211 202 
354 11 216 198 269 317 186 486 127 209 489 308 307 
355 11 213 321 323 262 255 669 62 402 265 222 640 
356 11 668 421 676 428 514 155 410 158 585 507 620 
357 11 8 447 672 406 482 512 591 245 473 605 606 
358 11 225 82 49 372 274 73 41 241 324 204 115 
359 11 46 189 180 305 283 104 117 237 92 310 219 
360 11 396 424 352 407 43 174 199 281 291 10 94 
361 11 47 231 59 136 284 100 244 263 236 185 34 
362 11 279 14 541 523 140 473 675 608 243 272 498 
363 11 126 18 94 291 368 174 267 234 352 511 498 
364 11 166 10 199 26 123 201 325 238 114 42 135 
365 11 408 331 237 92 188 373 219 221 310 117 55 
366 11 57 5 413 593 287 239 143 462 293 622 546 
367 11 93 348 313 552 103 286 674 55 105 298 184 
368 11 234 18 363 126 511 341 138 498 267 69 291 
369 8 642 460 520 588 665 577 678 162 
370 11 42 309 123 135 141 364 400 395 285 325 26 
371 11 172 247 401 38 397 137 609 147 139 228 246 
372 11 49 358 225 82 204 375 274 324 24 72 165 
373 11 331 221 365 408 92 231 237 55 188 219 310 
374 11 350 9 435 17 120 311 567 415 480 652 227 
375 11 24 81 31 372 153 297 49 289 72 324 82 
376 11 314 104 513 418 294 164 146 378 310 68 117 
377 11 275 409 232 336 293 475 66 479 533 113 142 
378 11 294 513 298 188 333 418 219 310 264 55 117 
379 11 108 154 252 399 84 241 60 330 110 115 41 
380 11 576 611 454 443 531 614 535 88 684 439 536 
381 11 167 217 327 329 122 382 119 457 449 130 528 
382 11 457 616 548 655 612 130 168 506 456 449 381 
383 11 320 191 392 29 226 598 27 121 546 287 142 
384 11 218 79 285 40 400 141 302 134 54 296 151 
385 11 64 206 109 403 140 48 404 43 54 281 302 
386 11 322 330 39 87 175 12 4 86 154 266 107 
387 11 282 340 326 260 52 224 215 230 304 134 35 
388 11 490 78 173 295 160 169 521 497 478 319 458 
389 11 639 581 192 626 556 664 98 159 68 586 643 
390 11 7 661 101 205 307 332 25 346 222 335 354 
391 11 124 662 96 589 533 519 575 232 351 475 461 
392 11 320 383 191 142 29 36 202 336 575 287 351 
393 11 654 448 290 277 537 240 118 132 288 684 590 
394 11 149 212 83 637 271 13 529 306 51 228 344 
395 11 135 325 50 26 179 646 21 258 53 114 166 
396 11 360 424 352 407 43 174 199 291 281 10 267 
397 10 401 609 247 147 228 371 137 172 344 246 
398 10 412 21 258 53 646 565 427 50 337 621 
399 11 60 108 84 379 23 154 241 252 106 249 223 
400 11 285 141 309 123 218 384 296 42 370 79 302 
401 10 397 609 247 147 228 371 172 137 344 246 
402 11 262 683 640 321 62 213 255 280 353 265 355 
403 10 64 243 385 549 279 140 362 190 523 608 
404 11 281 48 210 407 54 109 43 206 296 302 385 
405 5 522 530 579 280 77 
406 11 357 8 672 482 591 447 245 605 95 560 473 
407 11 281 210 404 43 360 396 296 109 48 424 54 
408 11 365 92 237 188 219 331 310 117 373 221 283 
409 11 479 377 275 66 475 232 533 113 345 293 20 
410 9 507 158 685 620 585 437 623 649 573 
411 7 76 534 645 253 491 301 461 
412 10 398 21 258 565 427 646 53 337 621 50 
413 11 593 57 143 366 622 5 287 546 462 318 248 
414 11 673 477 488 476 6 268 543 601 468 648 596 
415 11 652 227 435 504 644 9 16 615 474 30 503 
416 11 148 242 13 529 434 271 637 544 212 452 594 
417 11 574 292 116 183 328 131 77 178 502 261 265 
418 11 164 333 294 264 518 670 314 378 513 161 557 
419 9 682 656 627 125 182 455 484 561 566 
420 11 472 122 528 327 130 167 129 494 603 381 382 
421 11 514 428 676 356 668 155 585 410 33 158 601 
422 5 560 470 580 463 95 
423 7 599 453 562 487 162 532 481 
424 11 396 360 352 199 10 174 407 201 291 238 267 
425 11 439 524 2 686 454 443 380 299 531 576 604 
426 10 429 660 112 171 525 563 28 594 208 157 
427 11 337 621 565 412 592 398 452 258 438 21 450 
428 11 514 421 155 356 676 668 585 410 158 507 620 
429 10 660 208 426 171 157 440 594 555 587 433 
430 7 505 650 90 570 436 582 647 
431 8 125 658 349 419 485 561 517 682 
432 8 128 508 665 588 509 542 520 535 
433 11 171 594 440 208 660 157 429 434 51 426 555 
434 11 594 438 112 660 171 452 416 148 433 426 242 
435 10 9 415 652 227 374 350 504 644 480 311 
436 11 570 90 573 649 442 647 505 437 499 430 527 
437 9 573 649 635 442 623 685 436 570 90 
438 11 452 112 434 563 148 592 426 594 660 45 242 
439 11 425 524 454 2 443 686 380 531 576 299 535 
440 11 208 157 555 276 429 171 433 587 660 594 607 
441 9 638 663 613 619 631 633 444 152 500 
442 9 573 635 527 649 436 437 90 570 647 
443 11 454 380 576 535 611 88 439 531 128 614 432 
444 9 633 619 638 613 152 539 441 568 663 
445 11 256 624 526 133 97 653 467 483 677 554 602 
446 4 595 545 667 102 
447 11 8 357 672 512 406 482 606 591 245 473 272 
448 11 290 393 654 277 537 240 118 132 684 614 288 
449 11 329 612 168 119 548 655 273 382 457 616 632 
450 11 592 621 337 427 564 45 565 412 571 53 258 
451 11 185 34 100 284 12 263 244 47 4 236 87 
452 11 438 434 148 112 242 565 416 563 592 337 427 
453 5 532 423 599 629 162 
454 11 443 380 576 439 531 535 611 425 614 524 88 
455 8 182 627 484 566 682 11 419 600 
456 9 506 597 616 655 548 168 457 612 632 
457 10 382 616 655 548 612 506 168 456 130 449 
458 4 303 343 160 78 
459 5 671 495 30 644 503 
460 8 577 642 678 369 162 562 520 599 
461 6 491 301 411 76 589 534 
462 11 318 5 622 15 413 2 57 81 299 593 686 
463 6 470 580 95 560 422 605 
464 11 138 342 254 511 681 606 69 479 512 368 272 
465 11 643 98 653 159 97 586 626 516 445 557 639 
466 6 517 679 474 503 30 615 
467 7 628 602 617 133 97 625 653 
468 7 496 618 33 476 268 488 582 
469 6 561 125 145 656 419 610 
470 6 580 463 560 422 95 605 
471 10 497 521 169 493 478 78 490 173 388 51 
472 11 420 122 327 528 130 167 129 494 381 603 382 
473 11 245 111 523 608 362 541 14 591 406 279 357 
474 10 503 30 466 679 504 517 615 671 227 644 
475 11 533 232 409 124 630 377 479 96 391 589 492 
476 11 477 543 673 414 6 488 648 596 468 559 268 
477 11 673 414 476 6 543 488 648 596 268 559 468 
478 11 169 173 497 521 490 471 388 44 78 295 493 
479 11 409 66 254 275 345 377 113 475 342 20 232 
480 7 311 644 659 549 9 227 435 
481 8 487 562 599 423 162 460 642 577 
482 8 406 672 8 591 357 560 422 447 
483 11 677 554 550 526 536 133 680 250 634 540 684 
484 9 455 182 627 11 682 566 419 656 600 
485 7 349 658 16 517 615 431 466 
486 11 308 317 269 489 209 216 127 354 217 119 198 
487 8 481 562 423 599 162 453 460 642 
488 11 268 414 673 477 601 476 33 468 543 6 496 
489 11 269 317 308 486 217 80 354 119 216 332 381 
490 11 388 78 169 173 521 497 478 295 160 471 493 
491 8 301 461 76 411 534 645 197 253 
492 5 630 589 96 482 461 
493 7 471 521 497 78 169 303 276 
494 4 603 130 528 506 
495 5 659 636 459 111 605 
496 7 618 582 468 33 650 430 505 
497 10 521 169 471 478 78 490 493 388 173 303 
498 11 272 675 14 541 511 18 279 140 362 368 363 
499 8 647 527 90 436 570 442 573 649 
500 10 551 553 539 572 152 613 631 663 619 633 
501 11 569 37 571 28 651 194 45 525 515 564 563 
502 11 328 77 265 116 522 183 261 255 178 405 574 
503 6 30 474 679 671 466 459 
504 11 227 652 474 415 644 30 615 503 16 466 517 
505 7 430 650 90 570 436 582 647 
506 10 456 616 603 457 655 548 382 597 168 612 
507 9 158 410 620 685 585 437 623 102 510 
508 10 128 542 250 588 432 520 535 665 680 536 
509 7 300 432 604 665 315 588 128 
510 10 667 102 620 158 507 685 410 623 595 545 
511 11 498 272 368 464 138 18 675 234 342 363 541 
512 11 606 447 672 8 357 630 406 482 492 272 464 
513 11 294 378 310 376 219 188 418 117 333 164 314 
514 11 428 421 155 676 356 668 585 410 158 507 620 
515 11 596 648 559 543 194 6 569 37 476 477 501 
516 11 586 626 643 465 557 670 192 98 389 164 68 
517 7 466 615 485 349 658 16 474 
518 11 161 670 557 264 590 164 288 333 657 132 418 
519 11 351 575 662 202 391 336 124 211 36 232 142 
520 8 588 369 508 542 665 250 577 128 
521 10 497 169 78 471 490 478 493 388 173 303 
522 7 405 77 261 610 502 530 579 
523 11 608 473 111 362 243 279 549 245 541 14 659 
524 11 425 439 2 686 454 443 299 380 531 576 15 
525 6 651 28 37 194 426 501 
526 11 483 624 256 550 677 554 445 133 536 684 88 
527 10 442 635 647 499 573 649 436 90 570 437 
528 11 130 420 472 122 327 603 494 382 457 167 381 
529 11 13 637 271 212 416 544 148 242 278 394 149 
530 9 579 280 405 645 534 253 76 197 411 
531 11 614 380 576 611 454 443 535 88 439 425 684 
532 3 453 629 162 
533 11 475 232 124 391 96 630 589 377 409 492 662 
534 9 76 645 411 253 301 491 579 197 530 
535 11 88 443 576 611 380 128 536 454 508 542 250 
536 11 550 88 554 677 483 684 250 535 542 611 526 
537 11 448 393 290 654 277 240 118 614 132 583 334 
538 11 200 3 641 44 306 193 107 547 266 65 86 
539 11 152 500 553 613 551 619 572 633 663 558 631 
540 7 634 680 602 617 133 250 629 
541 11 14 362 675 279 272 498 473 140 523 608 357 
542 11 250 508 128 588 520 535 680 536 634 432 88 
543 11 476 648 596 477 559 6 673 515 414 488 468 
544 10 278 181 214 242 529 148 13 416 637 339 
545 5 595 446 667 102 510 
546 11 143 121 248 226 593 622 413 191 318 598 287 
547 11 65 3 200 338 249 538 193 306 110 641 84 
548 10 655 616 612 457 168 382 456 506 597 449 
549 7 243 608 523 659 480 111 495 
550 11 554 677 483 536 526 684 88 250 680 133 542 
551 10 553 500 572 539 631 152 663 613 619 11 
552 11 286 184 674 105 93 367 313 348 103 334 150 
553 10 551 500 572 539 152 613 631 663 558 619 
554 11 677 483 550 536 526 250 680 684 88 634 133 
555 7 587 276 157 607 208 440 429 
556 6 581 389 639 664 192 68 
557 11 670 518 161 516 586 590 288 643 164 465 626 
558 3 568 539 152 
559 8 596 648 543 515 194 476 6 477 
560 6 580 422 470 463 95 605 
561 6 125 656 419 469 682 431 
562 11 599 423 162 481 487 678 453 460 577 629 532 
563 11 112 45 571 28 426 438 501 592 37 525 569 
564 11 501 45 569 571 37 515 28 194 651 592 563 
565 11 427 337 621 412 398 452 592 438 258 21 242 
566 7 182 455 627 484 600 11 682 
567 8 311 120 374 9 480 350 190 220 
568 2 558 152 
569 11 501 37 571 651 194 28 515 525 559 564 596 
570 11 90 436 649 573 505 647 430 442 499 650 437 
571 11 501 28 569 37 45 651 563 194 525 564 426 
572 9 551 500 553 631 663 539 152 613 619 
573 9 649 442 437 436 635 90 570 527 623 
574 11 417 116 292 328 183 131 178 502 77 265 261 
575 11 519 351 662 336 202 391 124 142 232 211 36 
576 11 380 611 443 454 535 614 88 531 684 536 128 
577 8 460 678 162 642 369 629 520 562 
578 11 233 353 62 36 213 323 347 262 640 29 202 
579 9 530 280 405 645 534 253 76 197 411 
580 6 470 463 560 422 95 605 
581 8 556 389 639 664 192 159 68 626 
582 9 496 618 650 505 430 585 570 90 436 
583 11 297 537 31 324 334 448 150 184 393 531 290 
584 5 625 628 159 467 664 
585 9 410 507 158 685 437 582 649 155 573 
586 11 516 626 643 465 557 670 192 98 389 159 653 
587 6 555 276 607 157 208 440 
588 8 520 665 369 508 128 542 432 250 
589 8 96 492 124 630 391 461 533 491 
590 11 288 161 132 518 118 557 670 654 393 264 290 
591 11 605 95 245 406 560 636 580 470 463 482 422 
592 11 45 621 337 563 427 438 112 452 565 571 450 
593 11 413 143 287 366 546 57 622 248 5 226 121 
594 11 171 660 433 434 429 208 426 440 112 157 416 
595 5 545 446 667 102 510 
596 9 648 559 515 543 476 194 6 477 673 
597 7 632 168 456 548 612 655 616 
598 11 27 121 226 144 546 383 156 248 191 22 143 
599 11 562 423 162 453 629 532 678 481 487 577 460 
600 1 11 
601 11 268 488 33 414 468 155 673 477 496 476 618 
602 4 617 133 467 540 
603 7 494 130 506 528 457 382 616 
604 9 300 299 509 15 315 318 2 432 439 
605 9 95 591 636 463 580 470 560 245 422 
606 11 512 630 447 672 464 8 492 357 475 254 342 
607 4 587 555 276 157 
608 10 523 111 473 245 549 243 659 362 636 279 
609 10 401 397 247 147 228 371 344 172 137 246 
610 7 261 77 145 522 183 131 116 
611 11 576 380 88 614 535 531 684 443 454 536 240 
612 11 168 548 655 449 616 457 382 597 632 456 329 
613 11 619 152 663 633 539 638 500 631 444 553 551 
614 11 531 611 380 576 454 88 684 240 443 535 277 
615 9 16 517 485 349 466 658 474 504 652 
616 10 655 548 457 382 612 456 168 506 597 449 
617 4 602 133 467 532 
618 7 496 582 468 650 33 430 505 
619 11 633 613 152 638 444 539 663 500 631 441 553 
620 9 158 507 410 685 510 102 623 585 667 
621 11 337 427 565 592 412 398 450 452 438 45 258 
622 11 318 15 143 248 299 413 546 462 593 121 604 
623 9 635 437 685 442 573 649 102 527 507 
624 11 256 445 526 133 483 97 677 550 554 653 467 
625 6 584 628 467 97 159 653 
626 11 586 516 643 192 465 389 98 159 639 68 557 
627 8 182 455 484 566 682 419 11 656 
628 5 625 584 467 97 653 
629 5 532 162 678 453 599 
630 10 492 589 96 533 475 606 124 512 232 672 
631 10 663 572 500 613 551 152 553 619 638 539 
632 8 597 168 22 612 456 548 655 616 
633 10 619 444 613 152 638 539 663 500 631 441 
634 8 680 540 250 520 133 483 542 602 
635 9 442 437 573 623 649 527 436 90 570 
636 7 605 95 495 245 591 111 463 
637 11 212 271 13 529 394 149 83 416 544 51 278 
638 10 619 441 613 633 663 444 152 631 500 539 
639 9 664 389 581 159 98 556 584 626 653 
640 11 683 262 62 402 353 321 213 211 280 233 355 
641 11 306 538 200 3 83 44 65 547 51 193 266 
642 5 460 369 577 678 162 
643 11 465 98 586 626 159 516 653 97 557 389 639 
644 8 227 504 459 30 474 503 415 652 
645 9 534 76 253 411 301 491 579 441 530 
646 10 21 50 398 412 179 258 53 395 135 339 
647 10 499 527 90 436 570 442 573 649 635 430 
648 9 596 559 543 515 476 6 194 477 673 
649 9 573 437 442 436 570 635 90 527 623 
650 8 505 430 582 570 90 436 618 496 
651 7 37 28 194 525 569 501 571 
652 11 415 227 504 435 16 615 474 644 466 9 503 
653 11 97 98 159 465 643 467 628 625 445 584 256 
654 11 393 448 290 277 118 240 537 132 288 590 684 
655 10 548 616 457 612 168 382 456 506 597 449 
656 7 419 682 484 561 627 125 182 
657 11 264 333 161 132 334 518 288 118 298 590 105 
658 7 349 485 431 517 16 615 466 
659 5 495 636 459 111 608 
660 11 171 429 594 426 208 433 440 157 434 112 555 
661 11 205 307 7 332 390 269 354 80 317 489 101 
662 11 519 351 575 391 124 202 211 232 336 533 96 
663 11 631 613 500 572 638 152 619 539 551 553 633 
664 6 639 581 159 389 584 556 
665 6 588 369 432 520 508 128 
666 11 223 165 106 23 60 204 399 241 108 91 249 
667 9 102 510 595 446 545 623 620 685 158 
668 11 356 421 676 428 514 155 410 158 585 507 620 
669 11 178 255 265 229 355 321 574 89 213 328 502 
670 11 557 518 161 516 586 164 590 288 643 465 626 
671 3 30 503 679 
672 10 8 447 357 406 482 512 591 606 492 245 
673 11 477 414 6 476 488 543 268 648 596 559 468 
674 11 105 184 552 313 286 334 348 657 93 367 298 
675 11 498 14 541 272 140 279 362 18 511 473 363 
676 11 421 356 668 514 428 155 601 33 268 585 410 
677 11 554 483 550 536 526 250 680 133 634 684 88 
678 8 577 162 460 629 599 562 642 532 
679 5 503 30 466 474 671 
680 8 634 540 250 483 542 520 677 133 
681 11 69 138 342 207 254 464 259 234 341 368 316 
682 9 419 627 656 182 484 455 566 11 125 
683 11 640 402 262 62 280 353 321 211 197 213 530 
684 11 88 536 550 240 611 277 554 677 483 614 535 
685 9 507 158 410 437 623 620 635 649 573 
686 11 524 425 2 439 31 454 531 299 380 443 462 
DEPOT_SECTION
   1
   -1
EOF
