NAME :  X-n801-kX-w160-c7.cctp
COMMENT : 	Adapted by Maziero, Usberti and Cavellucci from the Uchoa, Pecin, Pessoa, Poggi, Subramanian, and Vidal (2013)
TYPE :  CCTP
DIMENSION :    668
EDGE_WEIGHT_TYPE : 	EUC_2D	
CAPACITY : 	20
VERTICES_WITHIN_COVERAGE :  7
VERTICES_WITH_DEMAND : 	160
NODE_COORD_SECTION
1 0 0
2 674 825
3 549 534
4 43 315
5 542 420
6 45 580
7 180 450
8 369 618
9 287 721
10 36 426
11 680 338
12 42 81
13 942 119
14 247 68
15 432 549
16 514 857
17 554 976
18 103 728
19 271 73
20 310 859
21 874 538
22 358 642
23 989 42
24 538 271
25 854 443
26 596 563
27 827 228
28 380 40
29 152 224
30 726 258
31 981 544
32 600 381
33 629 799
34 488 12
35 100 542
36 37 272
37 847 980
38 949 124
39 787 917
40 111 958
41 571 968
42 2 409
43 95 2
44 318 447
45 271 856
46 873 697
47 34 274
48 733 17
49 620 125
50 611 334
51 66 848
52 507 711
53 993 152
54 596 683
55 605 980
56 372 833
57 968 699
58 36 620
59 518 566
60 138 457
61 828 421
62 467 39
63 626 645
64 192 923
65 56 363
66 252 349
67 202 896
68 999 331
69 843 462
70 83 975
71 475 135
72 601 55
73 578 43
74 480 854
75 124 825
76 121 228
77 355 326
78 291 944
79 784 563
80 260 251
81 472 918
82 193 715
83 539 592
84 794 290
85 930 315
86 190 654
87 429 292
88 79 779
89 931 409
90 114 765
91 948 685
92 550 915
93 383 979
94 127 64
95 541 935
96 218 159
97 396 194
98 216 85
99 106 843
100 174 744
101 782 117
102 699 379
103 497 355
104 87 161
105 558 199
106 721 10
107 18 53
108 704 674
109 443 783
110 755 58
111 928 666
112 347 805
113 360 600
114 101 119
115 938 556
116 422 848
117 934 275
118 391 807
119 712 230
120 908 359
121 992 823
122 80 246
123 367 837
124 865 661
125 67 146
126 956 582
127 977 663
128 930 343
129 896 542
130 631 472
131 62 636
132 817 759
133 914 195
134 46 591
135 102 825
136 822 527
137 763 684
138 975 128
139 26 941
140 314 34
141 787 474
142 512 291
143 718 832
144 244 931
145 534 425
146 585 799
147 513 990
148 641 633
149 254 283
150 448 389
151 702 44
152 109 823
153 402 190
154 184 314
155 26 270
156 333 949
157 132 174
158 203 842
159 182 78
160 575 723
161 807 656
162 175 626
163 488 947
164 376 858
165 540 797
166 52 401
167 441 748
168 491 459
169 636 652
170 813 892
171 403 311
172 201 878
173 515 142
174 701 895
175 612 652
176 650 986
177 932 420
178 410 762
179 676 219
180 174 236
181 204 25
182 828 312
183 120 96
184 409 434
185 405 549
186 379 787
187 810 191
188 129 755
189 499 596
190 937 430
191 61 519
192 29 34
193 843 640
194 520 251
195 385 685
196 619 501
197 908 111
198 234 353
199 467 896
200 277 981
201 194 265
202 850 444
203 131 847
204 806 302
205 627 401
206 267 788
207 805 211
208 61 985
209 402 812
210 956 593
211 670 71
212 863 184
213 74 25
214 38 919
215 979 558
216 916 241
217 4 676
218 311 756
219 235 42
220 815 106
221 848 461
222 46 198
223 293 234
224 274 248
225 800 608
226 342 852
227 623 95
228 258 221
229 420 244
230 444 16
231 821 540
232 939 766
233 106 921
234 961 583
235 619 540
236 507 97
237 790 509
238 404 252
239 44 843
240 752 492
241 352 216
242 817 913
243 115 221
244 200 58
245 38 628
246 479 404
247 332 129
248 929 145
249 93 139
250 269 260
251 583 421
252 424 47
253 715 796
254 240 26
255 743 62
256 633 515
257 528 202
258 976 456
259 54 828
260 191 890
261 384 316
262 713 629
263 502 205
264 563 779
265 205 892
266 368 18
267 207 679
268 622 691
269 182 900
270 530 981
271 540 313
272 78 213
273 456 978
274 623 878
275 448 422
276 379 61
277 792 953
278 373 793
279 330 512
280 22 7
281 445 147
282 517 208
283 659 423
284 724 233
285 476 43
286 522 237
287 571 317
288 280 476
289 571 424
290 452 500
291 493 777
292 412 154
293 762 39
294 473 60
295 570 414
296 226 169
297 12 159
298 627 681
299 589 346
300 563 637
301 678 455
302 776 929
303 511 327
304 128 163
305 183 433
306 697 48
307 3 800
308 361 10
309 499 410
310 601 34
311 73 124
312 908 439
313 203 835
314 961 627
315 661 144
316 875 331
317 455 290
318 104 892
319 378 180
320 329 906
321 41 229
322 320 770
323 191 805
324 767 162
325 72 237
326 491 176
327 391 682
328 828 526
329 457 274
330 934 814
331 337 209
332 223 461
333 668 475
334 201 270
335 261 879
336 573 385
337 159 283
338 931 623
339 585 768
340 449 408
341 459 705
342 203 692
343 215 862
344 150 407
345 274 443
346 565 501
347 230 119
348 157 111
349 481 368
350 662 102
351 252 72
352 111 96
353 598 686
354 327 371
355 267 682
356 571 194
357 383 829
358 897 166
359 869 417
360 244 30
361 809 255
362 4 177
363 340 996
364 32 602
365 793 712
366 916 104
367 77 731
368 489 744
369 330 707
370 600 540
371 803 954
372 123 430
373 998 17
374 229 468
375 67 511
376 897 279
377 448 185
378 680 762
379 752 263
380 724 44
381 911 15
382 29 685
383 563 589
384 972 125
385 696 82
386 61 393
387 536 881
388 963 57
389 690 225
390 759 430
391 535 47
392 468 19
393 810 233
394 753 13
395 217 331
396 747 415
397 106 630
398 207 218
399 389 952
400 242 335
401 249 118
402 118 982
403 15 459
404 52 684
405 990 159
406 325 995
407 544 369
408 582 67
409 676 344
410 793 276
411 774 131
412 447 520
413 675 775
414 723 323
415 624 108
416 431 317
417 531 961
418 401 76
419 493 604
420 125 188
421 558 463
422 646 587
423 736 62
424 270 234
425 100 418
426 396 895
427 509 345
428 9 260
429 543 783
430 238 33
431 101 723
432 823 319
433 912 300
434 564 169
435 101 247
436 418 767
437 79 258
438 806 598
439 465 7
440 571 33
441 858 934
442 498 115
443 270 966
444 659 168
445 6 579
446 33 841
447 846 736
448 792 131
449 524 301
450 945 365
451 248 354
452 206 831
453 351 798
454 809 145
455 515 23
456 167 912
457 594 490
458 910 515
459 542 619
460 855 937
461 810 821
462 735 333
463 950 557
464 880 441
465 877 400
466 771 528
467 592 578
468 520 681
469 175 953
470 276 21
471 574 742
472 199 633
473 852 821
474 326 299
475 589 781
476 960 350
477 830 120
478 0 291
479 753 97
480 329 24
481 120 573
482 298 609
483 731 893
484 763 273
485 816 651
486 702 61
487 880 426
488 719 232
489 955 689
490 788 762
491 34 817
492 105 22
493 857 788
494 361 870
495 553 819
496 807 673
497 19 838
498 746 121
499 80 424
500 173 767
501 906 426
502 990 111
503 92 895
504 371 978
505 986 670
506 974 197
507 742 652
508 870 188
509 612 890
510 348 284
511 973 109
512 34 437
513 137 997
514 474 63
515 665 444
516 300 335
517 866 249
518 140 964
519 25 937
520 486 786
521 357 860
522 823 709
523 162 150
524 77 809
525 516 380
526 772 832
527 387 199
528 261 767
529 619 645
530 754 57
531 692 838
532 193 932
533 738 941
534 406 976
535 487 965
536 396 197
537 444 940
538 182 954
539 85 539
540 447 194
541 757 845
542 930 251
543 950 549
544 601 86
545 143 117
546 698 634
547 238 877
548 543 987
549 761 809
550 494 134
551 562 925
552 838 282
553 834 210
554 926 436
555 375 833
556 568 225
557 106 594
558 675 986
559 835 632
560 144 83
561 272 373
562 299 740
563 805 641
564 482 600
565 255 448
566 834 470
567 117 696
568 837 469
569 345 585
570 476 565
571 271 417
572 877 492
573 605 578
574 156 613
575 607 721
576 527 358
577 54 581
578 591 478
579 7 37
580 529 997
581 110 166
582 962 671
583 82 75
584 1000 703
585 607 536
586 827 744
587 788 463
588 450 136
589 32 58
590 178 910
591 381 159
592 686 207
593 276 358
594 683 682
595 707 282
596 141 999
597 558 169
598 403 688
599 315 671
600 827 880
601 601 481
602 641 950
603 98 116
604 611 668
605 313 616
606 928 521
607 350 295
608 397 963
609 595 904
610 798 339
611 978 460
612 260 800
613 302 615
614 653 302
615 5 126
616 541 691
617 559 690
618 24 21
619 465 522
620 125 178
621 868 947
622 204 141
623 636 919
624 703 643
625 385 155
626 244 833
627 244 666
628 870 543
629 606 359
630 532 975
631 555 276
632 165 33
633 537 457
634 120 51
635 815 623
636 502 636
637 859 508
638 42 675
639 999 300
640 908 736
641 735 980
642 459 564
643 49 877
644 483 587
645 945 557
646 602 2
647 633 936
648 379 182
649 814 486
650 178 687
651 466 406
652 186 732
653 193 411
654 109 653
655 40 10
656 142 303
657 90 111
658 334 499
659 187 290
660 262 691
661 814 908
662 171 930
663 446 214
664 205 410
665 137 120
666 115 986
667 368 926
668 77 338
DEMAND_SECTION
2 1
3 1
4 1
5 1
6 1
7 1
8 1
9 1
10 1
11 1
12 1
13 1
14 1
15 1
16 1
17 1
18 1
19 1
20 1
21 1
22 1
23 1
24 1
25 1
26 1
27 1
28 1
29 1
30 1
31 1
32 1
33 1
34 1
35 1
36 1
37 1
38 1
39 1
40 1
41 1
42 1
43 1
44 1
45 1
46 1
47 1
48 1
49 1
50 1
51 1
52 1
53 1
54 1
55 1
56 1
57 1
58 1
59 1
60 1
61 1
62 1
63 1
64 1
65 1
66 1
67 1
68 1
69 1
70 1
71 1
72 1
73 1
74 1
75 1
76 1
77 1
78 1
79 1
80 1
81 1
82 1
83 1
84 1
85 1
86 1
87 1
88 1
89 1
90 1
91 1
92 1
93 1
94 1
95 1
96 1
97 1
98 1
99 1
100 1
101 1
102 1
103 1
104 1
105 1
106 1
107 1
108 1
109 1
110 1
111 1
112 1
113 1
114 1
115 1
116 1
117 1
118 1
119 1
120 1
121 1
122 1
123 1
124 1
125 1
126 1
127 1
128 1
129 1
130 1
131 1
132 1
133 1
134 1
135 1
136 1
137 1
138 1
139 1
140 1
141 1
142 1
143 1
144 1
145 1
146 1
147 1
148 1
149 1
150 1
151 1
152 1
153 1
154 1
155 1
156 1
157 1
158 1
159 1
160 1
161 1
COVERAGE_SECTION
2 7 531 143 253 413 33 378 274 
3 6 346 59 370 26 383 585 
4 7 668 47 36 155 478 65 428 
5 7 145 289 295 633 251 309 421 
6 7 577 134 364 445 58 245 539 
7 7 305 653 60 332 664 344 374 
8 7 113 22 569 605 613 327 195 
9 7 562 660 218 355 369 528 599 
10 6 512 166 42 403 386 499 
11 7 409 102 614 414 462 595 50 
12 7 589 107 583 192 311 579 657 
13 7 38 248 366 384 511 138 197 
14 7 351 19 219 98 430 360 254 
15 6 185 642 412 619 570 290 
16 6 387 74 495 199 165 92 
17 7 548 41 630 270 417 580 95 
18 7 431 367 567 188 90 88 404 
19 7 351 14 219 401 360 430 470 
20 6 226 45 521 320 494 335 
21 7 628 129 637 458 572 328 136 
22 7 8 113 195 327 599 605 569 
23 7 373 388 502 511 381 384 138 
24 6 631 194 142 449 286 271 
25 7 202 221 69 464 359 487 568 
26 7 467 573 370 585 235 383 3 
27 6 393 553 207 361 187 517 
28 7 276 266 308 418 252 480 140 
29 7 180 76 243 420 620 157 398 
30 7 284 379 488 119 595 484 389 
31 7 215 543 463 645 234 115 126 
32 7 629 336 205 299 251 295 50 
33 7 146 475 2 413 339 378 264 
34 7 392 439 455 285 62 230 294 
35 5 539 481 191 375 557 
36 7 47 155 428 478 4 321 437 
37 5 621 460 441 371 277 
38 7 13 384 138 511 248 366 197 
39 7 302 661 242 170 277 371 600 
40 6 402 666 518 70 233 513 
41 7 17 548 55 630 417 270 551 
42 6 10 512 166 403 386 65 
43 7 492 213 634 655 94 192 280 
44 6 345 288 658 571 565 279 
45 7 335 626 20 547 343 612 206 
46 7 124 447 522 640 111 193 586 
47 7 36 155 428 478 4 321 437 
48 7 106 394 380 293 151 423 530 
49 7 415 227 544 315 350 444 408 
50 6 299 629 287 32 614 336 
51 7 239 259 446 643 99 524 135 
52 7 468 368 616 341 617 291 160 
53 7 405 138 384 502 511 506 38 
54 7 353 604 268 298 175 617 575 
55 7 41 176 602 17 647 548 623 
56 7 555 123 357 164 521 118 226 
57 7 489 91 582 584 505 127 111 
58 7 245 364 131 134 6 577 445 
59 7 83 189 644 570 3 419 564 
60 6 372 7 305 344 425 499 
61 7 202 25 359 69 221 566 568 
62 7 285 392 294 514 439 230 34 
63 7 529 169 175 148 604 298 268 
64 7 532 590 662 269 456 67 260 
65 4 386 668 166 4 
66 7 451 400 198 593 561 395 516 
67 7 265 260 172 269 590 64 343 
68 7 639 476 450 128 85 117 433 
69 7 221 568 566 202 25 649 464 
70 7 208 40 666 402 513 518 233 
71 7 550 588 442 281 173 326 236 
72 7 310 408 73 544 440 227 646 
73 7 440 408 310 72 391 646 544 
74 6 16 199 116 387 81 520 
75 7 152 135 203 99 524 90 51 
76 7 243 435 29 420 122 272 325 
77 7 261 607 474 510 171 354 516 
78 7 443 200 156 144 320 406 363 
79 4 466 438 231 225 
80 7 250 224 424 228 149 223 334 
81 7 199 163 537 535 273 74 95 
82 7 652 342 650 100 267 500 86 
83 7 383 459 59 189 419 300 467 
84 7 410 204 484 361 182 432 552 
85 7 433 128 117 476 120 376 450 
86 6 472 267 162 650 342 574 
87 7 416 317 171 329 238 229 261 
88 7 524 90 367 135 152 188 259 
89 7 177 190 554 501 312 450 487 
90 7 188 88 18 431 367 524 152 
91 7 489 582 57 111 127 505 584 
92 7 551 95 387 609 417 41 17 
93 7 504 608 534 399 363 667 156 
94 7 634 560 183 352 583 492 632 
95 7 92 551 417 630 17 41 270 
96 7 296 622 347 401 523 398 98 
97 7 536 153 527 648 319 591 625 
98 7 244 14 159 347 351 219 401 
99 7 135 152 75 203 51 524 318 
100 7 652 500 82 188 650 342 323 
101 7 411 448 220 479 498 454 324 
102 6 409 11 462 283 396 414 
103 7 427 349 576 303 525 407 246 
104 7 249 581 125 311 304 620 114 
105 7 356 556 257 597 434 282 286 
106 7 48 394 380 151 306 293 423 
107 7 589 579 192 618 12 280 655 
108 7 594 624 546 507 262 137 169 
109 7 436 167 178 520 209 291 118 
110 7 530 255 423 293 380 479 394 
111 7 91 582 489 338 127 314 57 
112 7 453 278 186 56 123 555 357 
113 7 8 569 22 605 613 482 185 
114 7 603 657 249 352 311 183 665 
115 7 645 463 543 126 234 606 210 
116 7 209 357 164 555 118 56 426 
117 7 542 433 376 216 85 128 639 
118 7 209 186 278 357 555 56 123 
119 7 488 284 389 30 592 179 379 
120 6 128 450 316 85 465 476 
121 2 330 232 
122 7 325 437 435 272 243 321 76 
123 7 56 555 357 164 521 226 494 
124 7 193 46 559 485 161 496 111 
125 7 311 104 249 657 114 603 581 
126 7 234 210 463 645 115 215 543 
127 7 505 582 489 91 57 314 584 
128 7 120 450 85 476 433 316 89 
129 7 21 628 458 606 115 637 645 
130 7 196 601 333 578 457 256 515 
131 7 245 58 397 638 364 134 404 
132 6 586 490 447 493 522 365 
133 7 358 508 216 212 248 542 506 
134 7 6 577 364 58 245 445 131 
135 7 152 99 75 524 203 51 259 
136 7 328 231 237 637 649 466 628 
137 7 507 365 496 161 108 563 485 
138 7 384 511 502 38 53 13 405 
139 7 519 214 208 70 643 503 233 
140 7 480 470 308 266 19 28 276 
141 6 587 649 237 240 566 568 
142 6 449 24 271 303 194 631 
143 6 531 253 541 2 549 526 
144 7 443 78 532 64 547 67 265 
145 7 5 633 289 295 309 421 525 
146 7 475 264 339 495 33 165 429 
147 7 580 270 630 548 417 535 17 
148 7 63 169 529 175 422 604 298 
149 7 250 80 224 424 400 334 395 
150 7 340 651 275 246 349 309 103 
151 7 306 486 380 385 423 106 48 
152 7 135 75 99 203 524 51 88 
153 7 97 536 527 648 319 292 591 
154 7 659 395 337 656 334 201 400 
155 7 47 36 428 478 321 4 437 
156 7 78 667 320 406 363 504 399 
157 7 620 304 420 581 523 104 243 
158 7 313 452 343 172 323 626 260 
159 7 244 98 560 348 632 545 94 
160 7 471 575 617 353 54 339 616 
161 7 485 563 496 635 559 193 225 
162 3 574 472 86 
163 7 535 81 273 417 537 147 630 
164 6 494 521 123 56 555 357 
165 5 429 495 264 146 291 
166 7 386 10 499 65 512 42 425 
167 5 436 178 109 341 368 
168 5 633 309 145 246 275 
169 7 63 529 148 175 298 604 268 
170 5 661 600 242 39 302 
171 7 261 416 87 77 607 317 238 
172 7 265 260 67 343 269 158 547 
173 6 550 442 71 326 236 597 
174 6 483 531 533 143 623 2 
175 7 529 63 604 169 298 54 148 
176 6 558 602 55 647 623 41 
177 6 89 190 554 501 312 487 
178 4 436 167 109 186 
179 6 389 592 119 488 284 444 
180 7 29 201 398 334 337 76 659 
181 7 244 219 430 254 360 632 159 
182 5 432 204 552 84 610 
183 7 352 560 665 114 603 545 94 
184 6 275 340 150 651 246 290 
185 7 15 412 642 619 113 290 569 
186 5 278 118 453 209 112 
187 6 207 553 27 393 454 324 
188 7 90 18 431 100 500 88 367 
189 7 419 564 644 59 570 83 636 
190 6 177 554 89 312 501 258 
191 3 375 539 35 
192 7 618 107 579 589 655 280 213 
193 7 559 485 124 635 563 161 496 
194 7 286 24 142 282 631 263 257 
195 3 327 598 22 
196 6 256 457 601 130 578 585 
197 2 366 13 
198 7 451 66 400 395 593 561 154 
199 7 81 74 537 163 16 116 387 
200 7 443 78 406 144 156 363 320 
201 7 334 659 180 337 398 154 29 
202 7 25 221 69 568 464 566 61 
203 6 75 99 152 135 318 503 
204 7 84 182 432 410 552 610 361 
205 7 32 283 629 251 336 515 295 
206 7 612 528 626 218 322 562 45 
207 5 187 393 27 553 361 
208 7 70 666 139 40 402 519 214 
209 7 118 357 186 555 278 56 116 
210 7 126 234 314 463 645 338 115 
211 7 385 350 486 306 151 227 415 
212 6 508 358 553 133 187 27 
213 7 43 492 655 192 618 583 589 
214 7 519 139 643 503 233 208 318 
215 7 31 463 543 234 126 645 115 
216 7 542 117 376 133 517 433 508 
217 7 382 638 404 245 58 131 364 
218 5 322 562 9 528 369 
219 7 430 360 254 14 351 181 244 
220 5 477 448 101 454 411 
221 7 69 568 202 566 25 464 572 
222 7 321 272 325 362 297 104 125 
223 7 424 224 250 80 228 331 241 
224 7 250 80 424 223 228 149 398 
225 6 438 635 563 559 485 79 
226 6 521 494 123 20 164 56 
227 7 415 544 49 350 72 408 211 
228 7 424 80 224 223 250 398 296 
229 6 238 663 329 87 536 97 
230 7 439 392 62 252 285 34 294 
231 7 136 328 79 237 628 637 466 
232 5 640 330 57 121 489 
233 5 318 503 40 518 70 
234 7 126 210 463 215 645 115 543 
235 6 585 370 256 26 196 573 
236 6 442 550 173 514 71 294 
237 6 466 649 141 136 240 328 
238 7 229 87 527 536 329 663 97 
239 7 446 259 51 497 491 643 524 
240 1 141 
241 7 331 527 648 319 536 97 153 
242 5 661 170 39 600 371 
243 7 76 435 420 29 272 122 620 
244 7 159 98 181 219 632 430 14 
245 7 58 131 364 134 638 6 577 
246 7 651 309 340 150 275 349 525 
247 6 591 625 319 648 331 19 
248 6 13 38 358 197 366 384 
249 7 114 104 603 311 125 657 581 
250 7 80 224 424 149 223 228 334 
251 7 289 295 336 5 32 205 145 
252 6 230 418 62 28 276 294 
253 4 143 413 531 549 
254 7 360 430 219 181 470 14 351 
255 7 423 530 110 380 293 479 486 
256 5 196 235 585 370 130 
257 7 282 263 105 286 356 326 597 
258 6 611 190 554 177 89 312 
259 7 239 51 491 446 524 497 135 
260 7 67 269 265 172 590 64 456 
261 7 171 77 607 416 510 87 474 
262 4 546 624 507 108 
263 6 282 257 326 286 194 105 
264 6 429 339 475 165 146 471 
265 7 67 260 172 269 343 590 64 
266 7 308 28 480 276 140 252 418 
267 6 342 86 650 82 627 472 
268 7 298 353 604 54 575 175 169 
269 7 590 260 456 67 265 64 172 
270 7 630 548 580 147 417 17 41 
271 5 449 287 303 142 631 
272 7 325 122 222 243 321 435 437 
273 7 535 537 163 534 147 608 81 
274 7 509 609 623 647 2 602 551 
275 7 340 651 150 246 184 309 168 
276 5 28 418 266 252 308 
277 7 371 302 39 242 661 533 37 
278 6 186 118 453 112 209 357 
279 3 658 288 44 
280 7 618 655 192 579 107 589 213 
281 7 588 71 292 377 540 550 326 
282 7 257 263 286 326 105 194 556 
283 6 515 301 205 333 130 102 
284 5 488 119 30 389 379 
285 7 62 294 514 392 34 439 230 
286 7 194 282 257 24 263 556 631 
287 5 271 299 50 631 449 
288 5 345 565 44 374 332 
289 7 295 251 5 145 336 421 633 
290 4 412 619 15 168 
291 5 520 368 109 429 165 
292 7 625 591 281 153 588 97 319 
293 7 110 530 394 255 423 48 380 
294 7 514 285 62 392 34 236 252 
295 7 289 251 5 336 145 32 421 
296 7 96 622 347 398 401 228 523 
297 7 362 615 222 125 311 104 321 
298 7 268 604 353 169 54 175 63 
299 6 629 50 287 32 336 407 
300 7 459 383 83 175 617 54 529 
301 4 515 333 283 130 
302 7 39 277 371 533 661 242 170 
303 6 427 449 103 271 576 142 
304 7 157 620 581 420 523 104 249 
305 7 7 653 664 344 332 60 374 
306 7 151 486 380 385 211 423 106 
307 7 491 497 446 259 239 524 51 
308 7 266 480 28 140 276 252 418 
309 7 246 651 525 145 5 349 168 
310 7 72 73 440 646 408 544 227 
311 7 657 125 249 603 114 104 352 
312 7 501 554 464 190 177 487 89 
313 7 452 158 343 323 626 172 547 
314 7 338 210 127 234 582 126 505 
315 4 444 350 49 415 
316 3 120 433 182 
317 7 329 87 416 171 142 229 238 
318 6 503 233 99 203 643 51 
319 7 648 527 591 97 536 153 625 
320 6 156 667 494 20 78 521 
321 7 222 325 272 36 122 155 428 
322 5 218 562 453 112 206 
323 7 452 313 158 500 626 343 100 
324 5 411 448 454 498 101 
325 7 122 437 272 435 321 243 222 
326 7 263 282 173 550 71 377 257 
327 3 195 598 22 
328 7 136 231 637 237 649 628 21 
329 7 317 87 229 416 238 142 663 
330 5 232 121 493 473 640 
331 7 241 319 648 223 527 536 97 
332 6 374 565 7 305 345 664 
333 3 301 515 130 
334 7 201 659 180 337 154 398 149 
335 7 547 45 343 626 20 144 265 
336 7 32 295 407 251 289 299 629 
337 7 656 659 201 154 334 180 29 
338 7 314 210 111 126 234 582 127 
339 6 475 264 471 146 429 160 
340 7 275 651 150 246 184 309 349 
341 5 167 52 368 598 468 
342 7 267 82 650 86 652 627 472 
343 7 172 158 547 313 265 452 67 
344 5 372 305 653 60 425 
345 6 565 571 288 44 374 332 
346 6 457 578 3 421 601 370 
347 7 401 622 98 96 296 351 14 
348 7 545 665 560 523 183 159 352 
349 7 103 246 427 525 150 651 309 
350 6 211 415 385 227 315 49 
351 7 14 19 219 98 430 360 401 
352 7 183 603 114 657 560 665 94 
353 7 54 604 268 298 575 175 617 
354 7 516 77 593 561 474 571 44 
355 6 660 627 9 599 267 342 
356 7 105 434 597 556 257 282 286 
357 7 555 56 123 118 209 164 278 
358 5 133 508 212 248 197 
359 7 487 465 464 25 202 501 61 
360 7 254 430 219 470 14 181 351 
361 6 393 410 27 84 552 207 
362 7 297 222 615 321 125 272 428 
363 7 406 504 93 156 200 399 608 
364 7 58 134 6 245 577 445 131 
365 7 522 137 496 586 490 132 161 
366 3 197 13 38 
367 7 431 18 88 90 404 567 188 
368 6 291 52 520 167 341 109 
369 4 599 9 562 218 
370 6 585 235 26 573 467 256 
371 7 277 302 39 242 661 37 460 
372 6 425 60 344 499 7 305 
373 5 23 388 381 502 511 
374 5 332 565 345 7 288 
375 3 191 539 35 
376 7 433 117 216 517 542 85 316 
377 6 540 663 281 326 153 292 
378 4 413 253 2 33 
379 4 484 30 284 410 
380 7 151 423 255 306 48 486 530 
381 2 388 23 
382 7 638 404 217 245 131 58 367 
383 7 83 467 459 26 573 300 59 
384 7 138 511 38 502 13 53 405 
385 6 486 211 306 151 350 423 
386 6 166 65 499 10 425 512 
387 7 16 92 551 95 74 609 495 
388 6 23 373 511 502 13 366 
389 6 179 592 119 488 284 30 
390 5 396 587 141 240 61 
391 6 455 440 73 408 236 34 
392 7 439 62 34 230 285 294 514 
393 5 27 361 207 553 187 
394 7 48 293 106 380 530 110 255 
395 7 400 198 154 66 451 659 149 
396 5 390 102 587 141 240 
397 6 654 557 131 574 481 567 
398 7 180 201 228 334 296 29 96 
399 7 608 93 534 504 667 156 537 
400 7 66 198 451 395 593 561 149 
401 7 347 351 98 14 19 96 622 
402 6 666 513 40 518 596 70 
403 3 512 10 42 
404 7 638 382 131 217 367 245 431 
405 7 53 138 384 506 502 511 38 
406 7 363 156 504 200 93 78 443 
407 5 576 525 336 427 103 
408 7 72 73 544 440 310 227 391 
409 7 11 102 614 414 462 50 595 
410 6 84 361 204 484 379 552 
411 6 101 448 498 324 454 479 
412 5 619 290 15 642 185 
413 4 378 253 2 33 
414 7 462 595 11 409 102 484 30 
415 7 227 49 544 350 315 72 211 
416 7 87 171 317 261 329 238 349 
417 7 630 270 17 95 548 147 580 
418 5 276 252 28 266 230 
419 7 189 564 644 636 570 59 83 
420 7 620 157 304 581 243 76 29 
421 7 633 578 346 289 145 457 5 
422 7 573 148 235 26 467 63 529 
423 7 255 110 530 380 486 293 151 
424 7 224 228 80 223 250 149 398 
425 6 499 372 386 166 344 60 
426 6 164 667 494 521 116 399 
427 6 103 303 576 349 525 407 
428 7 155 47 36 478 321 4 325 
429 5 165 264 495 146 339 
430 7 254 360 219 181 14 470 351 
431 7 18 367 567 188 90 88 404 
432 5 182 204 610 552 84 
433 7 85 376 117 128 316 542 120 
434 7 597 356 105 257 173 556 282 
435 7 122 437 76 243 325 272 29 
436 4 178 109 167 186 
437 7 122 325 435 36 272 47 321 
438 6 225 635 79 563 559 485 
439 7 392 230 34 62 285 455 294 
440 7 73 310 408 72 391 646 455 
441 4 460 621 242 37 
442 6 550 236 71 173 588 514 
443 7 200 78 144 406 156 363 320 
444 4 315 592 179 49 
445 6 364 6 134 577 58 245 
446 7 239 497 491 259 51 643 307 
447 7 586 522 132 46 493 365 640 
448 7 101 411 454 220 324 477 498 
449 6 142 271 303 24 631 427 
450 7 476 128 120 89 85 177 68 
451 7 66 198 400 593 561 395 516 
452 7 313 158 323 343 626 172 547 
453 7 112 278 186 56 118 123 322 
454 6 448 477 411 101 220 324 
455 7 34 391 285 392 62 439 294 
456 6 590 662 269 64 260 532 
457 6 601 578 196 346 130 421 
458 7 606 129 572 21 628 115 637 
459 7 83 300 383 636 189 419 59 
460 5 441 621 37 242 661 
461 7 526 473 549 493 541 600 132 
462 7 414 11 102 595 409 610 484 
463 7 645 543 115 126 234 215 31 
464 7 487 25 359 312 202 501 221 
465 5 359 487 501 464 25 
466 2 237 79 
467 7 573 26 383 370 585 235 83 
468 7 616 52 617 636 300 341 459 
469 6 538 662 532 64 518 456 
470 7 360 254 140 430 219 19 480 
471 6 160 339 264 575 475 429 
472 4 86 162 267 574 
473 4 493 461 600 132 
474 7 607 510 77 516 261 250 354 
475 6 339 146 264 471 33 429 
476 7 450 128 68 85 120 639 89 
477 4 220 454 448 101 
478 7 428 155 47 36 4 321 437 
479 7 498 101 255 110 423 411 530 
480 7 140 308 266 28 470 276 19 
481 3 557 35 539 
482 4 613 605 569 113 
483 6 174 533 541 302 39 143 
484 4 379 410 84 30 
485 7 161 563 496 559 635 193 225 
486 7 306 151 385 380 211 423 255 
487 7 359 464 465 501 25 312 202 
488 7 284 119 30 389 592 179 379 
489 7 91 57 582 127 111 505 584 
490 4 132 586 365 549 
491 7 259 446 497 239 307 524 51 
492 7 43 213 634 94 583 632 655 
493 5 473 132 447 586 461 
494 6 521 164 226 123 56 555 
495 5 165 429 146 264 475 
496 7 161 485 563 522 365 137 193 
497 7 446 239 491 259 307 51 643 
498 4 479 411 101 324 
499 6 425 166 386 372 10 512 
500 7 100 652 323 188 82 90 452 
501 7 312 554 487 177 89 464 190 
502 7 511 138 384 53 38 405 13 
503 6 318 233 643 51 99 214 
504 7 93 608 399 534 363 156 406 
505 7 127 582 57 489 584 91 314 
506 7 405 53 133 138 248 542 384 
507 4 262 137 624 108 
508 6 212 358 553 133 27 187 
509 7 274 609 623 647 551 92 602 
510 7 607 474 77 261 171 238 241 
511 7 384 502 138 38 13 53 388 
512 5 10 403 166 42 499 
513 6 596 402 666 518 40 70 
514 6 294 285 62 392 236 252 
515 5 301 283 333 130 205 
516 7 593 474 354 561 66 451 77 
517 7 376 552 27 553 216 361 393 
518 5 402 40 513 666 596 
519 7 139 214 208 643 70 503 233 
520 6 291 368 109 165 429 167 
521 6 494 226 164 123 56 555 
522 7 365 447 586 496 132 46 161 
523 7 304 157 545 348 665 622 620 
524 7 88 135 259 152 51 491 99 
525 7 576 407 103 309 427 349 246 
526 5 541 549 461 143 253 
527 7 536 97 153 648 319 241 591 
528 7 206 612 562 218 9 322 626 
529 7 63 175 169 604 148 298 54 
530 7 110 255 423 293 380 479 394 
531 7 2 143 253 174 413 541 483 
532 7 64 662 538 590 469 456 269 
533 6 641 302 483 39 277 174 
534 7 608 93 399 504 273 537 667 
535 7 163 273 147 417 270 630 81 
536 7 97 153 527 648 319 591 625 
537 7 81 273 163 199 535 534 608 
538 6 469 532 662 64 518 590 
539 5 35 191 375 481 577 
540 6 377 663 153 281 326 97 
541 6 526 549 143 483 461 253 
542 7 216 117 376 433 133 85 517 
543 7 463 645 115 215 31 126 234 
544 7 227 408 72 415 49 73 310 
545 7 665 348 183 560 352 523 114 
546 5 624 262 108 507 594 
547 7 335 343 265 172 45 67 626 
548 7 270 17 630 580 417 147 41 
549 5 526 541 253 143 461 
550 7 71 442 173 236 326 588 281 
551 7 92 95 609 41 417 387 17 
552 7 182 204 361 432 517 84 410 
553 6 27 207 187 393 212 508 
554 7 190 177 312 501 89 464 487 
555 7 56 123 357 164 118 521 209 
556 7 105 356 257 286 631 282 24 
557 5 481 397 35 574 577 
558 6 176 602 641 647 55 533 
559 7 193 635 485 563 161 124 225 
560 7 94 183 348 545 352 159 665 
561 7 593 66 451 198 571 516 400 
562 5 218 9 322 369 528 
563 7 161 485 635 559 496 225 193 
564 7 419 644 189 570 636 642 59 
565 6 345 374 332 571 288 44 
566 7 568 69 221 649 202 25 637 
567 7 431 18 654 367 188 650 404 
568 7 566 69 221 202 649 25 637 
569 6 113 8 605 613 482 22 
570 7 642 644 564 189 59 419 619 
571 7 345 565 561 44 593 288 332 
572 7 637 458 221 69 21 568 566 
573 7 467 26 370 235 422 585 383 
574 4 162 472 86 397 
575 7 160 268 353 471 54 298 339 
576 5 407 427 525 103 303 
577 7 6 134 364 58 445 245 539 
578 6 601 457 346 196 421 130 
579 7 107 192 618 589 280 655 12 
580 7 270 147 548 630 17 417 41 
581 7 304 620 157 104 420 249 125 
582 7 127 489 91 505 57 111 314 
583 7 352 657 12 183 603 634 94 
584 7 57 505 127 489 582 91 111 
585 6 370 235 26 256 196 573 
586 7 132 447 522 490 365 493 46 
587 7 141 649 390 237 240 566 568 
588 6 281 71 292 550 377 442 
589 7 107 192 12 579 618 655 280 
590 7 269 456 64 662 260 532 67 
591 7 625 319 648 292 153 97 527 
592 6 179 389 119 488 284 444 
593 7 561 66 451 516 400 198 354 
594 7 108 624 546 169 298 262 268 
595 7 30 414 379 488 119 284 484 
596 6 513 402 666 518 40 469 
597 7 434 356 105 257 173 282 556 
598 4 327 195 341 22 
599 7 369 355 22 605 9 613 660 
600 4 170 661 242 39 
601 6 578 457 196 130 346 256 
602 6 647 623 176 55 558 609 
603 7 114 657 249 352 311 183 665 
604 7 175 54 298 353 529 268 63 
605 6 613 482 569 113 22 599 
606 7 458 115 543 129 645 463 21 
607 7 510 474 77 261 171 516 238 
608 7 399 534 93 504 667 537 273 
609 7 509 274 551 623 92 647 95 
610 4 432 204 182 84 
611 6 258 190 554 177 89 312 
612 7 206 528 626 45 452 218 313 
613 6 482 605 569 599 113 22 
614 7 11 409 50 595 414 629 299 
615 7 297 362 12 125 311 589 107 
616 7 617 468 52 160 54 353 300 
617 7 616 160 54 353 468 300 471 
618 7 192 280 655 579 107 589 213 
619 5 412 290 642 15 570 
620 7 157 420 304 581 104 243 523 
621 3 441 460 37 
622 7 96 347 296 523 401 348 98 
623 6 647 602 509 274 609 55 
624 5 546 262 108 507 594 
625 6 591 319 292 648 153 97 
626 7 45 612 452 313 343 158 547 
627 6 355 660 267 342 86 472 
628 7 21 129 637 328 231 458 136 
629 6 299 32 50 336 205 287 
630 7 270 417 548 17 580 147 41 
631 6 24 271 449 194 287 142 
632 7 181 244 159 634 94 560 492 
633 6 421 145 5 168 289 346 
634 7 94 492 560 183 583 352 632 
635 7 225 563 559 438 485 193 161 
636 7 419 189 564 459 468 644 83 
637 7 572 21 328 628 136 566 568 
638 7 404 382 217 131 245 58 367 
639 7 68 476 117 85 128 450 542 
640 6 232 46 447 91 489 57 
641 6 533 558 277 302 371 39 
642 7 570 15 644 619 564 412 189 
643 7 51 239 446 214 503 259 497 
644 7 564 189 419 570 642 59 636 
645 7 463 115 543 126 234 215 31 
646 7 310 440 73 72 408 391 544 
647 7 602 623 609 509 55 176 274 
648 7 319 527 97 536 591 153 625 
649 7 566 568 141 237 587 69 136 
650 7 342 267 82 86 652 100 472 
651 7 246 340 275 150 309 349 525 
652 7 100 82 500 342 650 267 188 
653 6 664 305 7 344 332 374 
654 7 397 567 131 557 574 404 431 
655 7 280 618 192 213 579 107 589 
656 3 337 154 659 
657 7 603 114 311 352 249 183 583 
658 3 279 44 288 
659 7 154 334 201 337 656 395 180 
660 6 355 627 9 267 599 342 
661 5 242 170 39 600 302 
662 6 456 590 64 532 469 538 
663 6 540 377 229 153 536 97 
664 7 653 305 7 332 344 374 565 
665 7 545 348 183 352 114 560 523 
666 6 402 513 40 596 518 70 
667 6 399 156 426 320 608 504 
668 3 65 4 386 
DEPOT_SECTION
   1
   -1
EOF
