NAME :  X-n837-kX-w83-c11.cctp
COMMENT : 	Adapted by Maziero, Usberti and Cavellucci from the Uchoa, Pecin, Pessoa, Poggi, Subramanian, and Vidal (2013)
TYPE :  CCTP
DIMENSION :    516
EDGE_WEIGHT_TYPE : 	EUC_2D	
CAPACITY : 	44
VERTICES_WITHIN_COVERAGE :  11
VERTICES_WITH_DEMAND : 	83
NODE_COORD_SECTION
1 940 231
2 721 848
3 618 44
4 993 145
5 636 512
6 274 496
7 245 945
8 449 812
9 29 650
10 399 8
11 548 19
12 769 717
13 221 850
14 980 233
15 477 922
16 498 720
17 136 832
18 351 663
19 58 67
20 889 569
21 28 334
22 804 928
23 900 138
24 393 403
25 982 609
26 79 299
27 684 582
28 169 252
29 405 925
30 875 191
31 674 112
32 576 537
33 539 63
34 338 657
35 210 209
36 676 568
37 949 826
38 572 890
39 210 615
40 737 46
41 30 527
42 131 724
43 671 842
44 727 566
45 507 497
46 524 134
47 167 665
48 819 108
49 929 582
50 713 738
51 352 626
52 887 547
53 176 645
54 611 289
55 457 532
56 11 147
57 958 60
58 587 187
59 790 956
60 974 63
61 306 225
62 961 969
63 238 736
64 758 840
65 88 44
66 507 811
67 768 476
68 51 914
69 494 445
70 953 33
71 922 45
72 748 111
73 544 867
74 477 596
75 322 79
76 439 150
77 586 764
78 214 599
79 168 480
80 925 138
81 797 107
82 751 783
83 738 913
84 703 73
85 681 886
86 627 27
87 834 858
88 657 233
89 477 559
90 542 94
91 370 432
92 520 621
93 666 178
94 631 484
95 820 918
96 687 877
97 752 983
98 157 720
99 709 898
100 728 617
101 66 59
102 991 657
103 717 47
104 463 177
105 438 722
106 43 247
107 71 476
108 69 560
109 471 14
110 115 806
111 104 495
112 36 456
113 500 152
114 277 601
115 962 575
116 588 181
117 108 931
118 209 800
119 129 525
120 31 219
121 97 324
122 495 122
123 759 480
124 780 669
125 786 769
126 759 159
127 282 633
128 361 17
129 957 103
130 711 939
131 544 544
132 27 318
133 665 656
134 539 783
135 824 841
136 833 988
137 16 637
138 41 388
139 623 780
140 660 155
141 700 658
142 946 783
143 607 815
144 658 874
145 527 853
146 459 577
147 937 639
148 833 692
149 421 999
150 469 163
151 509 61
152 488 408
153 510 460
154 342 691
155 787 465
156 700 873
157 659 568
158 478 525
159 988 980
160 28 661
161 724 842
162 2 660
163 210 180
164 840 841
165 843 9
166 265 453
167 209 673
168 20 952
169 673 659
170 138 655
171 769 741
172 325 260
173 831 678
174 401 625
175 192 520
176 449 679
177 579 295
178 333 352
179 837 944
180 377 500
181 797 97
182 65 235
183 440 877
184 407 621
185 550 241
186 253 243
187 76 852
188 642 116
189 598 124
190 997 660
191 14 98
192 774 9
193 791 671
194 575 109
195 895 790
196 25 242
197 761 886
198 501 846
199 731 4
200 337 71
201 106 973
202 623 580
203 978 669
204 884 559
205 10 910
206 390 602
207 451 134
208 324 221
209 569 98
210 672 867
211 584 520
212 193 416
213 954 912
214 761 734
215 192 875
216 88 353
217 777 38
218 98 68
219 824 694
220 238 825
221 137 683
222 357 593
223 541 423
224 537 99
225 137 539
226 68 173
227 939 69
228 566 830
229 371 935
230 840 180
231 979 466
232 970 249
233 975 291
234 298 94
235 192 630
236 560 724
237 310 503
238 506 445
239 720 806
240 259 450
241 81 518
242 388 967
243 399 787
244 11 859
245 721 451
246 3 300
247 983 902
248 184 404
249 984 221
250 514 801
251 887 476
252 552 923
253 803 145
254 974 602
255 316 566
256 73 473
257 448 186
258 653 3
259 239 470
260 434 39
261 420 378
262 805 572
263 769 874
264 38 852
265 105 958
266 504 740
267 840 804
268 62 24
269 360 375
270 199 310
271 661 252
272 484 955
273 481 777
274 277 225
275 504 527
276 242 931
277 801 74
278 538 483
279 510 183
280 377 842
281 244 834
282 115 811
283 37 611
284 30 147
285 658 235
286 109 856
287 34 512
288 937 779
289 840 77
290 470 783
291 890 127
292 672 450
293 875 663
294 719 972
295 119 237
296 199 550
297 221 723
298 613 950
299 357 566
300 582 795
301 815 464
302 329 481
303 144 199
304 778 769
305 960 581
306 869 582
307 762 952
308 891 765
309 279 754
310 152 677
311 262 932
312 128 42
313 322 73
314 392 609
315 598 496
316 433 748
317 240 788
318 258 809
319 519 923
320 117 800
321 323 190
322 44 588
323 326 102
324 446 362
325 469 593
326 764 469
327 595 304
328 511 582
329 552 544
330 267 814
331 82 52
332 505 535
333 348 79
334 382 971
335 532 444
336 451 579
337 380 524
338 64 69
339 483 514
340 497 64
341 286 695
342 248 949
343 375 378
344 665 270
345 366 0
346 573 528
347 120 742
348 91 80
349 538 87
350 902 274
351 654 479
352 195 998
353 115 52
354 274 243
355 213 892
356 556 888
357 324 50
358 430 128
359 207 933
360 468 125
361 175 709
362 162 859
363 51 47
364 442 125
365 616 462
366 444 691
367 40 840
368 464 616
369 127 21
370 285 942
371 79 85
372 164 732
373 340 363
374 414 154
375 77 257
376 410 533
377 461 585
378 410 716
379 181 164
380 150 224
381 241 697
382 395 26
383 136 5
384 507 75
385 398 622
386 352 730
387 305 69
388 751 566
389 249 494
390 209 637
391 413 673
392 246 922
393 245 939
394 534 437
395 139 685
396 780 618
397 22 4
398 436 370
399 171 660
400 764 567
401 594 247
402 255 840
403 495 395
404 86 560
405 378 926
406 723 669
407 289 292
408 136 898
409 213 165
410 455 745
411 642 706
412 515 475
413 186 643
414 443 30
415 634 512
416 144 764
417 460 151
418 327 83
419 345 249
420 530 192
421 213 657
422 597 751
423 518 599
424 324 43
425 102 914
426 603 302
427 561 541
428 424 174
429 542 198
430 276 191
431 263 655
432 59 564
433 516 627
434 300 98
435 503 99
436 512 898
437 375 11
438 318 181
439 482 548
440 137 621
441 155 793
442 205 733
443 554 130
444 599 693
445 365 919
446 473 164
447 34 929
448 150 787
449 178 253
450 55 99
451 112 800
452 519 123
453 346 372
454 55 79
455 470 430
456 109 474
457 121 716
458 46 87
459 388 31
460 627 292
461 105 831
462 196 879
463 70 101
464 182 429
465 461 727
466 611 551
467 250 928
468 116 708
469 593 306
470 335 249
471 251 203
472 349 223
473 549 148
474 99 354
475 65 569
476 599 697
477 546 563
478 197 184
479 240 583
480 142 783
481 684 693
482 269 748
483 646 519
484 268 693
485 61 608
486 658 591
487 312 448
488 539 169
489 18 18
490 248 946
491 565 83
492 198 787
493 518 10
494 64 665
495 219 644
496 637 463
497 415 133
498 747 120
499 591 776
500 657 311
501 375 17
502 496 587
503 332 242
504 236 921
505 439 545
506 656 228
507 526 747
508 202 580
509 238 966
510 163 299
511 141 898
512 264 956
513 95 725
514 60 249
515 667 557
516 266 960
DEMAND_SECTION
2 7
3 9
4 6
5 7
6 6
7 8
8 9
9 5
10 8
11 10
12 7
13 5
14 7
15 10
16 6
17 5
18 5
19 7
20 6
21 10
22 8
23 10
24 9
25 6
26 10
27 10
28 10
29 10
30 5
31 7
32 8
33 9
34 5
35 7
36 10
37 9
38 6
39 7
40 6
41 7
42 7
43 9
44 6
45 8
46 6
47 5
48 7
49 6
50 7
51 6
52 10
53 6
54 7
55 6
56 7
57 5
58 6
59 9
60 7
61 7
62 8
63 9
64 10
65 10
66 8
67 8
68 5
69 9
70 9
71 10
72 9
73 7
74 10
75 5
76 5
77 10
78 8
79 8
80 10
81 6
82 6
83 8
84 8
COVERAGE_SECTION
2 11 161 156 64 239 96 43 99 210 85 197 263 
3 11 86 258 491 209 11 188 194 33 189 31 84 
4 11 129 80 249 60 14 57 23 227 291 232 70 
5 10 415 483 94 351 315 466 496 211 365 515 
6 11 389 237 166 259 240 302 487 255 175 296 479 
7 11 490 342 393 276 467 311 509 512 392 504 516 
8 11 290 273 243 66 198 183 250 316 410 280 465 
9 7 160 137 162 494 283 485 322 
10 8 382 437 459 501 345 128 260 414 
11 11 493 33 151 491 340 349 384 3 90 109 86 
12 11 214 171 124 193 304 125 50 219 406 82 148 
13 6 281 220 402 215 462 355 
14 7 249 232 233 350 4 80 30 
15 11 272 319 436 183 29 252 198 145 356 73 149 
16 11 266 465 507 410 273 105 366 236 176 290 316 
17 11 282 461 110 286 320 362 451 441 448 480 187 
18 11 34 154 51 385 174 391 386 314 184 222 206 
19 11 338 101 454 363 458 331 371 450 348 463 65 
20 11 204 52 306 49 305 115 262 147 254 251 293 
21 9 132 246 138 26 216 121 474 106 375 
22 11 95 59 179 307 197 263 136 83 87 97 135 
23 11 291 80 30 129 230 227 48 289 4 71 57 
24 10 343 91 261 269 398 453 373 324 178 455 
25 11 254 305 115 102 190 147 49 203 20 204 52 
26 11 121 375 514 132 216 474 21 106 182 295 246 
27 11 36 486 157 515 44 100 202 388 483 133 141 
28 9 449 380 510 295 35 303 270 478 163 
29 7 405 229 445 242 334 183 15 
30 10 230 23 291 80 253 350 48 232 14 249 
31 11 188 140 84 93 498 72 189 103 3 40 86 
32 8 346 427 211 329 131 466 477 315 
33 11 349 151 90 491 384 224 340 11 209 435 493 
34 11 18 51 154 127 341 222 385 174 314 386 431 
35 10 478 163 471 409 379 449 186 28 380 303 
36 11 515 27 157 486 44 202 483 466 5 415 100 
37 8 142 288 195 247 308 213 164 267 
38 11 356 73 252 145 228 436 319 298 143 198 144 
39 11 78 390 235 495 508 413 421 479 53 167 399 
40 11 103 217 199 84 192 72 277 498 181 81 31 
41 11 287 432 108 241 475 322 107 404 256 112 111 
42 8 457 347 468 98 372 513 395 221 
43 11 210 144 96 156 85 2 161 239 99 143 139 
44 11 388 400 27 36 100 515 157 486 396 262 123 
45 8 412 339 275 278 153 332 158 238 
46 10 452 473 113 443 122 224 488 435 90 349 
47 9 399 310 53 413 170 395 221 167 235 
48 11 81 181 289 277 253 72 291 498 230 126 217 
49 11 305 115 20 254 204 52 147 25 306 102 293 
50 11 214 481 171 82 12 239 406 304 411 125 141 
51 11 222 34 18 314 206 385 174 184 299 154 127 
52 10 204 20 306 49 251 115 305 262 254 147 
53 11 413 399 47 235 390 170 421 310 167 495 39 
54 9 426 460 327 469 177 401 500 344 271 
55 11 158 505 439 339 89 146 275 336 376 332 377 
56 10 284 191 226 450 458 120 463 454 371 19 
57 11 60 227 70 71 129 80 4 291 23 289 165 
58 11 116 429 488 473 420 401 189 185 443 279 194 
59 11 307 22 97 95 179 136 83 294 197 130 263 
60 11 57 227 70 129 71 4 80 23 291 289 165 
61 10 208 274 503 354 470 321 172 472 430 419 
62 11 159 213 247 179 136 37 95 22 87 59 164 
63 11 297 442 482 381 309 317 484 341 492 167 361 
64 11 161 263 2 197 239 82 135 156 304 83 99 
65 11 331 218 101 353 268 338 348 363 19 312 371 
66 11 250 198 134 273 290 145 8 228 73 507 266 
67 7 326 123 155 301 245 400 388 
68 10 447 205 168 425 117 264 187 244 265 367 
69 10 238 153 455 152 412 335 394 403 223 45 
70 11 57 71 60 227 129 80 165 291 23 4 289 
71 11 227 70 57 60 129 165 289 291 80 23 48 
72 11 498 81 126 181 84 253 277 40 48 103 31 
73 11 145 356 38 228 436 198 252 319 66 250 300 
74 10 325 377 502 368 146 336 89 328 423 439 
75 9 313 418 200 387 323 333 234 357 434 
76 10 207 417 358 364 374 428 497 150 104 257 
77 11 499 422 300 139 236 134 143 507 476 228 444 
78 11 39 508 479 235 390 495 296 413 421 53 114 
79 8 175 464 456 119 111 225 212 259 
80 11 23 291 129 4 227 30 57 60 71 230 249 
81 11 181 48 277 253 72 289 498 126 217 230 40 
82 11 304 125 239 171 214 64 50 161 12 2 267 
83 11 99 197 130 307 263 156 96 294 85 2 59 
84 11 103 40 31 72 498 199 188 217 258 86 3 
85 11 96 210 156 144 99 43 2 130 161 83 197 
86 11 3 258 11 491 84 188 103 209 33 31 194 
87 9 164 135 267 95 263 22 64 197 179 
88 9 285 506 271 344 93 401 460 54 140 
89 10 439 146 377 336 55 158 502 325 74 332 
90 11 224 349 491 209 33 194 452 443 435 384 46 
91 11 24 343 269 487 302 453 180 261 373 178 398 
92 5 433 423 328 502 74 
93 10 140 506 88 285 31 188 271 116 58 189 
94 9 496 351 365 5 415 315 483 292 211 
95 11 22 179 59 87 197 263 307 136 135 164 83 
96 11 85 156 210 144 99 43 2 161 83 130 197 
97 11 307 294 59 130 83 22 136 95 179 99 197 
98 9 372 361 42 457 395 221 310 347 468 
99 11 156 85 96 83 130 210 2 197 144 161 263 
100 11 141 44 396 406 27 388 400 169 36 124 133 
101 11 338 19 331 363 454 65 371 218 348 458 268 
102 9 190 203 25 147 254 305 115 49 293 
103 11 40 84 199 217 192 72 31 258 498 277 86 
104 7 150 446 257 417 76 428 113 
105 11 465 316 378 410 366 176 391 16 266 290 273 
106 8 514 196 182 120 375 26 246 132 
107 7 256 111 456 112 241 287 41 
108 9 475 432 404 322 241 485 41 287 283 
109 8 414 260 493 340 151 384 10 11 
110 8 282 320 451 461 17 480 448 441 
111 8 456 241 107 256 119 225 79 404 
112 7 107 256 287 138 41 456 241 
113 8 46 122 446 150 279 452 417 360 
114 11 127 479 255 431 78 39 495 390 508 51 222 
115 11 305 254 49 25 147 20 52 204 102 190 306 
116 11 58 429 488 473 189 420 443 401 185 194 140 
117 9 425 265 201 408 511 68 447 286 187 
118 10 492 317 220 281 318 13 441 330 448 402 
119 9 225 111 241 404 456 79 175 108 296 
120 8 196 106 182 514 226 375 284 56 
121 9 216 474 26 21 132 375 510 514 138 
122 9 435 452 360 113 46 417 207 446 224 
123 9 67 326 155 245 301 388 400 44 292 
124 11 193 12 219 396 173 406 148 214 171 100 141 
125 9 304 171 82 214 12 267 64 239 50 
126 9 498 253 72 81 181 48 230 93 277 
127 11 431 114 34 341 484 495 479 51 390 421 39 
128 7 501 437 345 459 382 10 424 
129 11 227 57 60 80 4 23 71 70 291 30 289 
130 11 294 83 99 307 97 85 96 156 197 59 210 
131 7 329 427 477 32 346 332 275 
132 11 21 246 26 121 216 138 106 196 514 375 474 
133 9 169 141 481 411 406 486 100 27 444 
134 11 250 507 66 300 77 499 228 266 273 236 422 
135 9 164 87 267 263 64 95 197 125 304 
136 11 179 59 22 95 307 97 294 83 197 62 87 
137 8 9 160 162 283 485 322 494 475 
138 6 21 216 474 112 132 121 
139 11 499 143 422 77 300 228 411 43 134 236 476 
140 10 93 188 31 189 506 116 88 58 285 84 
141 10 406 169 133 481 100 411 27 486 50 124 
142 5 288 37 195 308 267 
143 11 300 139 499 228 77 422 43 134 144 73 38 
144 11 210 85 96 43 156 99 2 161 143 130 38 
145 11 73 198 228 356 66 436 250 38 319 134 252 
146 11 336 377 325 89 74 439 502 505 368 55 328 
147 9 203 254 25 102 49 305 190 293 115 
148 7 219 173 193 293 124 12 171 
149 8 242 334 29 272 229 405 15 445 
150 8 446 104 417 257 76 113 207 360 
151 10 340 384 33 435 349 90 224 493 11 109 
152 9 403 455 69 238 394 223 153 335 324 
153 9 238 412 69 335 394 278 45 223 455 
154 8 18 34 386 341 51 378 391 484 
155 5 67 326 301 123 245 
156 11 96 85 99 210 2 161 43 144 83 197 64 
157 9 515 36 486 27 202 466 483 5 415 
158 9 339 55 439 275 332 89 45 505 146 
159 11 62 213 247 136 179 37 95 22 87 59 142 
160 6 9 162 137 494 283 485 
161 11 2 64 239 156 96 43 263 197 99 210 85 
162 7 160 137 9 283 494 485 322 
163 6 478 409 35 379 471 430 
164 9 135 87 267 195 263 95 64 125 197 
165 11 289 192 217 277 71 181 48 81 40 199 70 
166 9 240 259 6 389 487 237 302 212 464 
167 11 421 495 390 413 381 399 47 53 235 361 297 
168 11 447 205 68 265 201 117 425 244 264 367 187 
169 9 133 141 481 406 411 100 486 27 444 
170 5 310 221 395 47 399 
171 11 214 12 304 125 82 50 219 124 193 148 239 
172 7 470 503 419 208 61 472 407 
173 8 148 219 193 293 124 12 396 171 
174 10 385 184 314 206 51 391 222 18 368 336 
175 10 296 79 225 508 119 389 259 479 78 6 
176 11 366 391 105 465 378 16 368 410 316 174 184 
177 5 327 469 426 54 460 
178 6 373 453 269 343 407 24 
179 11 95 22 136 59 307 87 97 197 263 164 83 
180 10 337 376 302 237 91 299 505 487 55 255 
181 11 81 277 48 289 253 72 498 217 126 40 192 
182 8 514 106 375 120 196 295 226 26 
183 10 15 29 8 198 280 436 405 445 145 229 
184 10 174 385 314 206 391 51 222 368 336 377 
185 8 401 429 420 177 58 279 116 488 
186 11 354 274 471 35 61 430 407 172 208 163 449 
187 9 286 461 264 367 282 110 17 451 244 
188 11 31 140 189 93 194 84 209 3 491 116 443 
189 11 194 209 443 188 491 473 116 58 90 224 140 
190 9 102 203 25 254 147 305 115 49 293 
191 11 458 450 454 56 284 19 463 338 363 101 371 
192 11 217 199 40 103 165 277 181 289 84 81 72 
193 10 124 219 173 148 12 396 406 214 171 100 
194 11 209 189 491 443 90 224 349 473 46 33 452 
195 7 308 288 142 267 37 164 135 
196 9 106 120 514 182 375 246 132 26 226 
197 11 263 83 64 99 2 161 22 156 307 95 130 
198 11 145 66 250 73 436 8 228 183 356 290 273 
199 11 40 192 103 217 84 258 277 86 72 165 181 
200 6 333 313 418 75 357 424 
201 9 265 117 425 68 408 511 447 168 352 
202 5 466 486 157 515 36 
203 8 102 190 147 25 254 305 115 49 
204 11 20 52 306 49 305 115 262 251 147 254 293 
205 10 447 68 168 244 264 367 187 425 117 265 
206 10 314 385 174 184 222 51 299 336 18 376 
207 8 364 360 417 76 358 150 497 446 
208 8 61 503 472 470 321 419 172 438 
209 11 194 491 90 224 349 443 189 33 473 452 46 
210 11 144 96 85 43 156 99 2 161 239 83 130 
211 8 346 32 315 427 329 466 131 415 
212 5 248 464 79 259 240 
213 11 247 62 159 37 179 142 87 95 164 288 195 
214 11 171 12 304 125 50 82 124 193 219 406 148 
215 7 462 355 362 13 511 359 408 
216 6 474 121 26 138 21 132 
217 11 192 40 277 199 103 181 81 165 289 72 48 
218 7 348 331 353 371 65 101 338 
219 8 148 173 193 124 12 293 171 214 
220 8 281 402 318 13 330 317 118 492 
221 5 395 310 170 468 47 
222 10 299 51 206 314 255 385 174 184 34 18 
223 5 394 335 238 153 69 
224 11 90 349 452 209 491 435 443 33 46 384 194 
225 10 119 111 404 175 241 296 79 108 456 508 
226 4 284 120 182 56 
227 11 57 71 60 129 70 80 291 23 4 289 165 
228 11 300 73 143 145 134 356 38 250 499 66 198 
229 5 405 445 29 242 334 
230 11 30 253 23 291 48 126 81 181 80 289 498 
231 5 251 115 305 52 49 
232 5 14 249 233 350 4 
233 4 232 14 249 350 
234 3 434 387 75 
235 11 413 390 53 39 495 421 399 78 47 167 508 
236 10 507 422 476 77 444 266 499 16 134 300 
237 11 302 6 487 389 255 166 180 337 240 259 299 
238 9 69 153 335 394 412 455 152 223 278 
239 11 161 82 2 64 43 50 304 156 125 96 210 
240 9 166 259 389 6 487 212 237 302 464 
241 10 111 404 107 108 256 287 119 432 41 456 
242 6 334 229 405 29 149 445 
243 8 316 8 280 410 290 378 386 105 
244 8 264 367 205 187 68 447 168 286 
245 7 326 123 292 67 155 351 496 
246 10 132 21 196 106 26 514 120 375 182 138 
247 11 213 62 159 37 142 288 195 179 87 164 95 
248 3 212 464 79 
249 9 14 232 233 4 350 80 30 23 129 
250 11 66 134 273 198 290 145 507 228 266 8 300 
251 6 52 301 204 20 231 155 
252 11 319 356 38 436 73 298 145 15 272 198 228 
253 11 81 48 126 181 230 498 72 277 289 30 291 
254 11 25 305 115 49 147 102 190 203 20 204 52 
255 10 299 222 114 237 51 127 337 479 6 206 
256 7 107 456 111 112 241 287 41 
257 6 104 428 150 446 76 417 
258 11 86 3 103 199 84 40 11 31 188 491 192 
259 10 389 240 166 6 175 464 212 79 487 237 
260 5 414 382 109 10 459 
261 6 398 324 24 343 269 455 
262 11 400 396 388 306 44 204 20 52 100 124 193 
263 11 197 64 83 2 161 22 135 99 87 95 156 
264 8 367 244 187 68 205 461 286 447 
265 9 201 117 425 408 68 511 447 168 352 
266 11 16 507 273 465 410 134 290 236 250 105 66 
267 8 164 135 87 195 125 308 304 64 
268 11 363 65 331 101 19 489 338 397 454 218 353 
269 10 453 343 373 178 24 91 261 398 324 487 
270 4 510 449 28 186 
271 8 285 344 88 506 460 500 54 401 
272 11 15 319 436 252 149 29 183 242 356 334 73 
273 11 290 250 410 66 266 8 465 507 316 134 16 
274 10 354 61 186 430 471 208 321 503 172 438 
275 9 332 339 158 45 439 89 131 55 329 
276 10 393 467 392 504 7 490 342 311 512 359 
277 11 181 81 48 289 217 72 40 192 253 498 165 
278 5 412 45 153 335 394 
279 9 420 488 113 429 446 150 104 46 473 
280 4 243 183 8 445 
281 7 220 402 13 318 330 317 118 
282 8 110 320 451 461 17 480 448 441 
283 10 322 485 137 9 475 160 432 108 162 494 
284 9 56 226 191 450 463 458 120 454 371 
285 9 88 506 271 344 93 401 460 54 500 
286 11 461 187 17 282 110 408 362 511 451 320 425 
287 10 41 241 107 256 112 432 108 475 404 111 
288 5 142 195 308 37 267 
289 11 48 277 181 81 165 291 217 253 23 71 192 
290 11 273 8 410 66 250 316 266 465 507 16 105 
291 11 23 80 30 129 289 48 230 227 71 253 57 
292 7 351 496 245 94 365 5 415 
293 7 173 148 219 147 306 193 20 
294 11 130 97 307 83 59 99 85 22 197 96 156 
295 8 380 303 375 28 182 514 449 26 
296 10 508 175 78 479 225 39 119 389 79 235 
297 11 442 63 381 361 167 482 484 372 98 309 421 
298 11 252 38 356 144 85 319 130 210 96 73 294 
299 10 222 255 337 206 314 51 376 180 385 174 
300 11 499 77 143 228 139 134 422 250 236 507 66 
301 5 155 67 326 123 251 
302 11 237 487 180 6 91 337 166 240 389 255 299 
303 6 380 295 379 478 28 449 
304 9 125 171 82 214 12 239 267 50 64 
305 11 115 254 49 25 147 20 204 52 102 190 203 
306 10 20 204 52 49 262 293 147 305 115 396 
307 11 59 97 83 294 22 130 197 95 179 99 263 
308 5 195 288 142 267 37 
309 4 482 63 317 318 
310 7 395 221 47 399 170 361 53 
311 10 467 393 392 276 490 7 342 512 370 504 
312 5 353 369 383 65 218 
313 10 75 418 200 387 357 333 323 424 234 434 
314 10 206 385 174 184 222 51 299 336 391 18 
315 6 211 94 365 415 5 346 
316 11 410 105 465 378 290 243 273 366 8 16 176 
317 10 318 118 220 330 492 281 482 63 309 402 
318 7 330 220 317 281 402 118 13 
319 11 436 252 15 272 356 73 38 145 198 183 298 
320 8 451 110 282 480 461 448 17 441 
321 4 438 208 61 472 
322 10 283 485 432 475 108 404 137 41 9 160 
323 5 418 75 434 234 313 
324 6 398 261 403 152 24 455 
325 10 74 377 146 336 368 502 89 328 439 423 
326 6 67 123 155 245 301 292 
327 6 469 426 177 54 460 401 
328 5 502 423 74 92 477 
329 7 131 427 477 32 346 211 332 
330 6 318 402 281 220 317 13 
331 11 65 101 218 338 19 348 363 353 371 268 454 
332 9 275 439 158 339 89 45 131 328 55 
333 4 200 418 75 313 
334 6 242 229 405 149 29 445 
335 7 394 223 238 153 412 69 278 
336 11 146 377 325 74 89 505 368 439 502 55 158 
337 10 180 376 299 505 302 222 237 55 255 206 
338 11 19 101 454 371 331 458 363 348 450 463 218 
339 9 158 275 45 332 55 439 89 412 505 
340 9 151 384 435 33 349 224 90 109 122 
341 8 484 381 431 154 482 309 127 63 
342 11 490 7 393 512 276 509 467 516 311 392 504 
343 9 269 453 24 373 261 178 91 398 324 
344 7 271 285 88 500 506 460 54 
345 7 437 128 501 10 459 382 424 
346 8 32 211 427 329 131 315 466 477 
347 6 42 457 513 416 468 98 
348 8 371 218 331 338 463 101 19 65 
349 11 90 224 33 491 209 384 435 151 452 194 443 
350 3 232 233 30 
351 9 496 94 292 5 415 483 365 315 245 
352 10 509 359 342 7 490 393 512 516 276 504 
353 6 312 218 65 331 369 348 
354 10 274 186 61 471 407 430 172 208 503 470 
355 6 462 215 504 359 13 392 
356 11 38 73 252 145 436 319 228 198 298 15 143 
357 6 424 313 200 387 75 418 
358 7 364 497 207 76 374 360 417 
359 9 504 276 393 7 355 392 467 490 342 
360 9 207 364 122 417 76 150 358 446 113 
361 10 98 372 442 310 395 47 42 221 297 399 
362 10 215 17 462 511 408 286 13 355 461 441 
363 11 101 19 268 338 331 454 65 458 489 371 218 
364 6 358 207 76 360 497 417 
365 7 496 94 315 351 415 5 292 
366 11 176 105 391 465 378 410 316 16 266 368 174 
367 7 264 244 187 461 286 68 205 
368 11 74 325 377 146 336 502 433 92 184 423 89 
369 6 383 312 353 65 218 331 
370 8 311 512 516 490 342 467 7 393 
371 10 348 463 338 218 454 19 450 101 331 458 
372 9 98 361 42 416 442 347 457 395 468 
373 8 453 178 269 343 24 91 261 407 
374 5 497 428 76 358 364 
375 8 514 182 106 26 295 196 120 121 
376 10 337 505 55 180 299 336 146 158 89 206 
377 11 146 325 336 74 89 368 502 439 505 328 55 
378 11 105 316 366 391 465 176 410 386 154 243 18 
379 5 478 409 163 303 35 
380 8 303 28 295 449 35 478 379 163 
381 11 484 297 63 167 341 431 421 442 495 482 361 
382 8 459 10 501 437 128 345 260 414 
383 5 369 312 353 65 331 
384 9 151 340 435 349 33 224 90 122 452 
385 10 174 184 314 206 51 222 391 18 368 336 
386 5 154 378 18 34 243 
387 6 313 75 234 418 357 434 
388 11 400 44 262 100 396 27 36 515 123 67 157 
389 11 6 259 166 240 237 175 296 487 302 79 479 
390 11 495 235 421 39 413 53 167 78 399 47 431 
391 11 176 366 378 174 184 385 105 18 314 465 154 
392 8 467 276 504 393 311 7 490 342 
393 11 7 490 276 342 467 392 311 504 512 509 516 
394 7 335 223 238 153 69 412 278 
395 5 221 310 170 468 47 
396 11 124 100 262 400 193 388 44 406 173 219 141 
397 11 489 268 363 101 19 65 331 338 454 458 191 
398 6 324 261 24 343 152 403 
399 10 47 53 413 310 170 235 167 221 395 421 
400 11 388 44 262 396 100 27 123 36 67 326 515 
401 11 185 54 177 426 460 327 469 58 88 285 506 
402 5 281 220 330 318 13 
403 8 152 455 69 238 223 394 324 335 
404 9 108 475 432 241 322 485 119 225 41 
405 5 229 445 29 242 334 
406 11 141 481 169 100 124 133 12 193 50 214 396 
407 8 172 354 186 470 503 274 61 419 
408 9 511 425 117 362 286 215 462 17 265 
409 5 163 478 379 35 471 
410 11 465 316 105 273 290 266 16 378 366 176 8 
411 9 476 481 444 133 169 422 141 139 50 
412 8 153 45 278 238 335 69 394 339 
413 11 53 235 399 390 47 421 495 39 167 310 170 
414 5 260 109 382 10 459 
415 10 5 483 94 315 351 466 496 211 365 515 
416 9 480 448 441 347 372 42 320 98 451 
417 9 150 446 207 76 104 360 364 257 358 
418 8 75 313 200 323 333 387 234 434 
419 6 470 503 172 472 208 61 
420 9 429 279 488 473 113 185 58 46 116 
421 11 495 167 390 413 235 53 39 399 47 381 431 
422 11 77 499 139 236 300 476 444 411 143 134 507 
423 5 328 92 502 433 74 
424 5 357 313 200 387 75 
425 10 117 408 511 265 68 286 201 187 447 362 
426 7 327 469 54 177 460 500 401 
427 7 329 32 131 346 477 211 466 
428 6 374 257 76 104 497 417 
429 8 420 488 279 185 58 116 473 113 
430 7 471 274 438 61 321 354 186 
431 11 127 484 495 341 381 421 114 167 390 39 78 
432 9 475 108 404 322 485 41 241 283 287 
433 6 92 423 328 502 74 368 
434 3 234 323 75 
435 10 122 384 452 224 340 349 151 90 46 360 
436 11 319 15 73 356 145 252 198 38 272 183 66 
437 6 501 345 128 10 459 382 
438 4 321 208 430 61 
439 9 89 158 332 55 275 339 146 502 377 
440 7 170 53 399 47 413 235 310 
441 9 448 480 416 320 110 17 492 282 451 
442 11 297 63 361 372 98 381 492 167 317 482 118 
443 11 473 46 194 209 224 452 90 488 189 349 491 
444 8 476 411 236 422 77 133 169 499 
445 4 405 229 29 242 
446 8 150 104 417 113 257 76 207 360 
447 11 68 168 205 425 117 244 264 265 201 187 367 
448 9 441 480 416 320 110 451 282 17 492 
449 10 28 380 510 35 270 295 303 478 186 163 
450 10 458 463 454 371 338 19 101 191 348 363 
451 7 320 110 282 461 480 17 448 
452 10 46 122 435 224 113 443 90 473 349 384 
453 8 373 269 178 343 24 91 261 487 
454 11 19 458 338 450 101 371 463 363 348 331 218 
455 10 69 152 238 403 153 335 394 412 398 223 
456 7 111 256 107 241 119 79 225 
457 7 468 42 347 513 98 395 221 
458 11 454 450 19 338 463 371 101 191 363 348 331 
459 7 382 501 437 10 128 345 260 
460 9 54 426 327 500 469 344 177 271 401 
461 7 282 286 110 17 451 320 187 
462 7 215 355 13 362 359 504 511 
463 9 450 371 454 458 348 338 19 101 218 
464 6 212 248 79 259 240 166 
465 11 410 105 316 16 366 266 176 378 273 290 507 
466 9 202 32 211 346 415 5 483 157 427 
467 9 392 276 393 311 504 7 490 342 512 
468 6 457 42 513 221 395 347 
469 5 327 426 177 54 460 
470 6 503 419 172 208 472 61 
471 9 430 274 186 35 354 163 409 478 61 
472 7 208 503 419 470 321 61 172 
473 11 443 488 46 452 194 420 113 224 429 116 279 
474 6 216 121 26 138 21 132 
475 9 432 108 404 322 485 283 241 41 287 
476 9 444 411 236 422 77 133 499 169 481 
477 4 131 329 427 32 
478 7 163 409 379 35 303 471 380 
479 11 78 508 114 39 296 390 127 495 235 431 255 
480 9 448 441 416 320 451 110 282 347 17 
481 9 169 141 133 411 406 50 444 476 214 
482 7 309 63 317 297 484 341 381 
483 11 5 415 94 351 515 466 157 315 36 496 211 
484 10 341 381 431 63 482 297 127 167 309 421 
485 10 283 322 475 432 108 9 137 404 494 160 
486 7 157 27 36 515 202 466 133 
487 11 302 166 240 237 91 6 259 389 180 453 269 
488 10 473 420 429 279 46 443 113 116 452 58 
489 11 397 268 363 19 101 338 454 331 458 65 191 
490 11 7 342 393 276 467 512 311 509 516 392 504 
491 11 209 90 349 194 224 33 443 189 384 151 452 
492 11 118 317 441 448 442 220 480 416 318 63 372 
493 9 11 109 151 33 340 384 414 349 90 
494 2 160 9 
495 11 390 421 39 235 167 413 53 78 431 399 47 
496 8 365 94 351 292 5 415 315 483 
497 5 358 374 364 76 207 
498 11 72 126 81 181 253 84 277 31 48 40 103 
499 11 77 300 422 139 143 134 228 236 507 476 250 
500 4 460 344 54 426 
501 6 437 128 345 459 382 10 
502 8 328 74 423 325 89 377 146 439 
503 7 470 419 172 208 472 61 321 
504 9 392 276 467 393 7 311 490 342 359 
505 10 55 376 336 146 89 439 158 377 339 325 
506 9 88 285 271 344 93 401 460 140 54 
507 11 266 134 16 236 273 250 77 66 290 465 410 
508 11 78 296 39 479 235 390 175 413 495 53 225 
509 11 342 7 490 393 512 516 276 467 311 359 392 
510 8 270 28 449 121 295 380 26 474 
511 9 408 425 362 117 286 215 462 17 265 
512 11 516 342 490 7 311 370 393 509 467 276 392 
513 4 468 457 347 42 
514 8 182 106 375 196 120 26 295 132 
515 10 36 157 27 486 483 202 5 415 466 44 
516 10 512 342 490 7 370 311 509 393 467 276 
DEPOT_SECTION
   1
   -1
EOF
