NAME :  X-n856-kX-w171-c7.cctp
COMMENT : 	Adapted by Maziero, Usberti and Cavellucci from the Uchoa, Pecin, Pessoa, Poggi, Subramanian, and Vidal (2013)
TYPE :  CCTP
DIMENSION :    611
EDGE_WEIGHT_TYPE : 	EUC_2D	
CAPACITY : 	9
VERTICES_WITHIN_COVERAGE :  7
VERTICES_WITH_DEMAND : 	171
NODE_COORD_SECTION
1 500 500
2 440 732
3 221 348
4 117 545
5 493 645
6 135 12
7 775 997
8 745 444
9 950 311
10 530 150
11 900 508
12 48 519
13 269 217
14 722 349
15 480 733
16 977 422
17 999 220
18 636 332
19 851 162
20 559 567
21 389 69
22 529 835
23 303 427
24 400 638
25 894 904
26 482 109
27 579 800
28 184 82
29 669 753
30 906 424
31 374 692
32 174 613
33 75 37
34 38 563
35 838 157
36 710 709
37 176 67
38 449 326
39 71 389
40 710 115
41 237 547
42 530 27
43 631 223
44 171 342
45 226 65
46 6 998
47 24 635
48 668 165
49 318 608
50 429 82
51 212 237
52 853 126
53 387 47
54 677 144
55 111 790
56 957 32
57 511 647
58 457 561
59 86 687
60 290 456
61 473 563
62 807 725
63 461 468
64 739 235
65 257 340
66 588 545
67 6 311
68 268 976
69 552 414
70 994 946
71 452 534
72 422 545
73 248 611
74 43 366
75 977 96
76 822 580
77 940 650
78 86 263
79 715 99
80 668 981
81 424 638
82 297 607
83 251 282
84 237 413
85 202 573
86 181 385
87 126 528
88 386 811
89 978 846
90 70 99
91 333 357
92 49 870
93 157 734
94 627 268
95 818 433
96 738 555
97 350 909
98 337 926
99 978 59
100 42 595
101 870 933
102 19 120
103 165 679
104 131 984
105 232 755
106 319 417
107 187 376
108 251 482
109 657 219
110 209 397
111 800 377
112 228 116
113 566 559
114 490 156
115 216 547
116 964 677
117 85 897
118 292 807
119 600 893
120 938 222
121 543 747
122 572 976
123 569 59
124 712 574
125 971 515
126 616 306
127 695 837
128 421 821
129 604 995
130 537 957
131 1000 653
132 282 817
133 380 874
134 778 101
135 462 74
136 87 682
137 441 228
138 608 430
139 511 313
140 710 300
141 630 24
142 626 650
143 531 719
144 598 824
145 995 622
146 258 981
147 358 281
148 279 169
149 286 268
150 259 659
151 782 132
152 862 518
153 457 603
154 210 438
155 44 44
156 527 818
157 164 156
158 23 86
159 342 930
160 39 282
161 269 848
162 436 886
163 323 340
164 237 891
165 333 488
166 517 137
167 591 972
168 541 888
169 122 280
170 159 655
171 200 158
172 446 283
173 107 315
174 588 270
175 158 374
176 26 353
177 959 76
178 437 138
179 53 938
180 922 499
181 970 664
182 237 738
183 8 561
184 747 852
185 989 908
186 100 860
187 10 960
188 842 190
189 595 716
190 286 965
191 199 373
192 159 67
193 979 25
194 488 479
195 804 620
196 742 853
197 528 160
198 223 342
199 503 159
200 711 681
201 339 340
202 342 509
203 766 953
204 710 172
205 521 451
206 172 159
207 685 836
208 639 155
209 269 241
210 825 761
211 901 124
212 713 860
213 619 926
214 692 19
215 96 876
216 949 178
217 79 795
218 833 852
219 336 444
220 877 0
221 296 597
222 566 735
223 349 269
224 939 827
225 908 120
226 50 741
227 670 569
228 753 744
229 577 351
230 141 616
231 97 625
232 64 875
233 496 160
234 515 598
235 274 510
236 291 170
237 74 609
238 791 396
239 405 191
240 395 290
241 525 743
242 260 385
243 408 837
244 1 346
245 231 504
246 837 572
247 606 473
248 346 868
249 477 169
250 383 59
251 510 410
252 890 101
253 952 635
254 825 722
255 68 598
256 234 841
257 911 720
258 172 367
259 569 289
260 84 19
261 694 916
262 454 412
263 261 233
264 693 375
265 588 854
266 276 538
267 599 569
268 142 158
269 324 194
270 739 325
271 638 182
272 858 93
273 40 923
274 37 599
275 638 39
276 218 714
277 568 674
278 288 840
279 439 570
280 325 801
281 587 278
282 992 674
283 597 608
284 174 865
285 65 330
286 620 129
287 339 681
288 469 749
289 799 594
290 692 130
291 811 2
292 5 946
293 219 305
294 759 951
295 656 889
296 582 18
297 97 885
298 899 286
299 512 358
300 188 776
301 220 951
302 503 801
303 483 402
304 685 904
305 483 722
306 13 301
307 607 709
308 857 739
309 51 422
310 818 797
311 302 646
312 474 101
313 817 66
314 573 973
315 948 686
316 586 899
317 153 503
318 47 817
319 740 970
320 216 852
321 261 776
322 920 879
323 642 623
324 268 373
325 539 352
326 605 457
327 4 240
328 340 303
329 563 524
330 861 875
331 700 810
332 160 753
333 985 455
334 981 276
335 708 646
336 575 249
337 777 725
338 724 888
339 853 773
340 4 27
341 743 430
342 301 574
343 38 983
344 575 209
345 10 683
346 745 333
347 616 311
348 537 110
349 70 839
350 531 647
351 157 736
352 609 356
353 534 11
354 436 279
355 340 578
356 41 809
357 971 282
358 389 628
359 171 951
360 633 578
361 219 471
362 586 937
363 546 923
364 619 737
365 700 50
366 722 223
367 112 450
368 857 66
369 81 295
370 314 964
371 829 981
372 723 590
373 645 700
374 318 800
375 277 268
376 459 81
377 573 211
378 391 259
379 368 81
380 262 451
381 629 44
382 390 264
383 842 703
384 780 254
385 653 177
386 763 432
387 615 183
388 62 855
389 629 543
390 27 83
391 822 574
392 355 86
393 519 683
394 111 12
395 957 366
396 265 184
397 985 701
398 215 888
399 945 515
400 553 988
401 22 32
402 441 911
403 551 214
404 422 750
405 196 122
406 25 46
407 184 140
408 82 88
409 979 491
410 439 811
411 199 182
412 239 151
413 960 334
414 67 99
415 253 120
416 421 756
417 170 166
418 408 787
419 845 522
420 350 875
421 732 438
422 322 797
423 569 889
424 286 3
425 19 558
426 271 127
427 921 499
428 513 901
429 541 920
430 41 240
431 876 405
432 449 871
433 467 684
434 827 446
435 625 441
436 321 913
437 378 902
438 95 48
439 991 561
440 822 451
441 137 252
442 556 988
443 769 375
444 925 421
445 674 544
446 117 30
447 119 18
448 134 297
449 614 521
450 467 903
451 772 461
452 379 846
453 916 509
454 983 447
455 667 885
456 465 911
457 96 17
458 671 926
459 93 287
460 795 581
461 741 514
462 119 223
463 503 964
464 80 58
465 123 266
466 683 363
467 77 114
468 872 520
469 187 62
470 918 677
471 909 427
472 937 395
473 80 88
474 25 87
475 421 825
476 2 112
477 647 389
478 705 454
479 27 44
480 154 38
481 259 863
482 702 637
483 112 263
484 908 625
485 783 344
486 422 744
487 168 96
488 539 970
489 278 215
490 688 555
491 826 582
492 401 805
493 384 826
494 320 775
495 204 336
496 866 515
497 724 356
498 414 830
499 131 31
500 318 200
501 1 157
502 542 729
503 245 352
504 539 905
505 376 836
506 878 519
507 212 724
508 876 516
509 149 149
510 283 883
511 814 455
512 970 535
513 450 898
514 220 93
515 208 26
516 903 248
517 180 59
518 69 98
519 199 69
520 879 525
521 57 102
522 978 705
523 691 634
524 391 789
525 442 872
526 754 759
527 820 450
528 315 718
529 377 938
530 44 74
531 142 147
532 437 837
533 742 549
534 288 844
535 792 425
536 262 65
537 533 687
538 213 160
539 4 153
540 140 44
541 521 878
542 575 779
543 442 900
544 73 13
545 394 886
546 511 949
547 474 772
548 812 425
549 684 471
550 797 351
551 386 268
552 953 616
553 382 794
554 548 895
555 861 525
556 372 780
557 967 425
558 534 912
559 82 60
560 856 523
561 12 90
562 497 721
563 347 868
564 296 934
565 380 921
566 423 888
567 716 514
568 871 532
569 529 867
570 852 522
571 824 407
572 274 236
573 854 533
574 336 959
575 813 702
576 210 304
577 315 915
578 905 380
579 831 580
580 399 106
581 74 112
582 139 43
583 78 81
584 170 77
585 959 379
586 347 913
587 316 803
588 538 906
589 235 819
590 200 145
591 769 970
592 712 624
593 867 531
594 352 966
595 341 453
596 10 127
597 1 25
598 277 884
599 884 435
600 745 448
601 118 13
602 222 755
603 695 341
604 25 18
605 436 877
606 912 446
607 568 430
608 821 687
609 367 814
610 33 97
611 411 722
DEMAND_SECTION
2 1
3 1
4 1
5 1
6 1
7 1
8 1
9 1
10 1
11 1
12 1
13 1
14 1
15 1
16 1
17 1
18 1
19 1
20 1
21 1
22 1
23 1
24 1
25 1
26 1
27 1
28 1
29 1
30 1
31 1
32 1
33 1
34 1
35 1
36 1
37 1
38 1
39 1
40 1
41 1
42 1
43 1
44 1
45 1
46 1
47 1
48 1
49 1
50 1
51 1
52 1
53 1
54 1
55 1
56 1
57 1
58 1
59 1
60 1
61 1
62 1
63 1
64 1
65 1
66 1
67 1
68 1
69 1
70 1
71 1
72 1
73 1
74 1
75 1
76 1
77 1
78 1
79 1
80 1
81 1
82 1
83 1
84 1
85 1
86 1
87 1
88 1
89 1
90 1
91 1
92 1
93 1
94 1
95 1
96 1
97 1
98 1
99 1
100 1
101 1
102 1
103 1
104 1
105 1
106 1
107 1
108 1
109 1
110 1
111 1
112 1
113 1
114 1
115 1
116 1
117 1
118 1
119 1
120 1
121 1
122 1
123 1
124 1
125 1
126 1
127 1
128 1
129 1
130 1
131 1
132 1
133 1
134 1
135 1
136 1
137 1
138 1
139 1
140 1
141 1
142 1
143 1
144 1
145 1
146 1
147 1
148 1
149 1
150 1
151 1
152 1
153 1
154 1
155 1
156 1
157 1
158 1
159 1
160 1
161 1
162 1
163 1
164 1
165 1
166 1
167 1
168 1
169 1
170 1
171 1
172 1
COVERAGE_SECTION
2 7 486 404 416 611 288 15 305 
3 7 198 495 503 191 65 293 107 
4 7 87 317 255 12 230 237 34 
5 7 57 350 393 433 234 153 537 
6 7 447 601 499 394 446 582 480 
7 7 591 319 203 294 371 80 101 
8 7 600 341 421 386 451 478 535 
9 5 413 357 334 395 298 
10 7 197 166 199 233 114 348 249 
11 5 453 427 180 506 508 
12 7 34 425 183 4 100 87 255 
13 7 489 263 572 209 396 148 236 
14 7 497 346 603 270 264 466 140 
15 7 305 288 562 547 2 241 433 
16 3 557 454 333 
17 7 334 120 216 357 516 9 298 
18 7 347 126 352 466 477 603 229 
19 7 35 188 52 211 272 225 252 
20 7 113 66 267 329 234 283 449 
21 7 250 53 379 392 580 50 376 
22 4 156 569 302 541 
23 7 106 60 219 595 380 242 324 
24 7 358 81 31 153 287 279 433 
25 7 322 101 330 218 224 185 371 
26 7 312 376 135 166 114 233 178 
27 7 542 144 156 265 22 121 222 
28 7 584 37 469 519 487 517 192 
29 7 364 373 36 331 307 189 200 
30 4 471 444 606 599 
31 7 287 611 24 528 358 486 81 
32 7 230 170 85 103 73 115 231 
33 7 260 464 438 544 559 457 155 
34 7 425 183 100 274 12 255 237 
35 7 19 188 52 151 272 211 252 
36 7 200 228 29 335 373 526 337 
37 7 517 469 584 28 192 519 487 
38 7 172 354 139 240 299 303 262 
39 7 74 309 176 285 367 173 244 
40 7 79 290 54 204 48 365 134 
41 7 115 266 245 85 235 73 108 
42 7 353 123 296 135 348 376 312 
43 7 109 271 387 94 385 344 377 
44 7 258 495 175 107 191 86 3 
45 7 519 514 536 469 515 28 517 
46 7 343 187 292 179 273 104 117 
47 7 274 100 345 237 255 34 231 
48 7 385 54 208 271 290 204 109 
49 7 82 221 355 342 311 73 358 
50 7 376 135 580 21 312 250 53 
51 7 263 209 411 13 83 572 576 
52 7 272 35 19 252 211 225 368 
53 7 250 21 379 392 50 580 135 
54 7 290 48 208 385 204 40 271 
55 6 217 332 349 318 186 351 
56 6 193 99 177 75 220 252 
57 7 5 350 393 537 234 433 277 
58 7 61 279 71 72 153 234 81 
59 7 136 231 226 345 103 237 170 
60 7 380 23 108 219 106 595 165 
61 7 58 279 71 153 72 234 5 
62 7 254 575 337 210 608 383 308 
63 7 194 262 205 71 303 251 72 
64 6 366 384 204 140 109 270 
65 7 503 198 324 3 242 293 495 
66 7 113 267 329 449 20 389 360 
67 7 306 244 160 176 285 74 327 
68 5 146 190 370 564 301 
69 7 607 251 205 138 325 229 326 
70 7 185 322 89 25 101 224 330 
71 7 58 72 61 279 194 63 153 
72 7 279 71 58 61 153 63 202 
73 7 82 150 221 85 311 41 342 
74 7 176 39 285 244 309 67 306 
75 7 177 99 56 193 225 211 216 
76 6 491 391 579 246 289 460 
77 7 253 181 470 116 552 315 484 
78 6 459 483 369 465 169 160 
79 7 40 290 365 54 134 204 151 
80 7 458 129 261 319 213 167 304 
81 7 24 358 153 433 5 279 31 
82 7 221 49 342 311 73 355 150 
83 7 375 149 293 209 576 263 572 
84 7 110 242 154 380 324 191 361 
85 7 115 41 32 73 230 245 266 
86 7 107 258 191 175 110 44 3 
87 7 4 317 12 367 85 230 255 
88 6 493 492 553 609 524 505 
89 5 224 185 322 70 25 
90 6 518 414 521 581 473 408 
91 7 201 163 328 106 324 23 65 
92 7 232 388 349 117 215 297 186 
93 7 351 332 300 103 507 276 602 
94 7 174 126 281 347 43 336 109 
95 7 548 434 527 440 511 535 571 
96 6 533 124 372 461 567 490 
97 7 586 98 159 436 437 565 420 
98 6 159 586 97 436 577 574 
99 6 177 56 193 75 225 252 
100 7 274 255 34 237 47 425 183 
101 7 25 330 371 322 218 203 591 
102 4 596 476 610 561 
103 7 170 93 351 276 507 32 230 
104 6 359 179 343 301 117 297 
105 7 602 182 321 507 276 300 589 
106 7 23 219 595 60 91 380 242 
107 7 86 191 258 175 110 44 495 
108 7 245 380 361 235 60 154 266 
109 7 43 271 385 48 387 94 366 
110 7 191 86 107 84 154 258 3 
111 6 238 550 443 485 571 535 
112 7 514 415 405 412 590 426 538 
113 7 20 66 267 329 283 449 234 
114 7 233 199 249 166 197 10 26 
115 7 41 85 245 266 235 73 108 
116 7 181 315 282 522 397 77 131 
117 7 297 215 232 186 92 388 179 
118 7 132 587 374 422 278 280 534 
119 7 316 423 213 265 362 554 295 
120 7 516 216 17 357 334 298 9 
121 7 241 502 222 143 542 562 189 
122 7 314 167 442 400 488 129 130 
123 7 296 42 353 348 381 141 275 
124 7 372 490 96 533 227 445 592 
125 3 512 409 399 
126 7 347 18 94 281 174 259 352 
127 7 207 331 212 196 184 455 338 
128 6 475 498 243 410 532 492 
129 7 167 122 314 442 400 362 80 
130 7 488 546 363 400 463 442 429 
131 7 282 145 181 116 397 253 522 
132 7 118 278 534 161 587 374 422 
133 4 545 437 452 420 
134 7 151 313 79 40 52 272 35 
135 7 376 312 50 26 178 580 21 
136 7 59 231 226 237 170 345 103 
137 7 354 239 172 378 382 551 249 
138 7 435 326 607 247 477 69 352 
139 7 299 325 38 259 172 229 354 
140 7 270 603 346 14 497 466 64 
141 7 275 381 296 214 123 365 353 
142 7 323 283 373 307 277 523 360 
143 7 502 241 121 537 562 222 393 
144 7 27 265 542 119 22 156 423 
145 7 131 552 253 181 282 439 77 
146 5 68 190 301 370 564 
147 7 223 328 551 382 240 378 201 
148 7 236 396 426 412 489 13 500 
149 7 375 209 572 83 263 13 489 
150 7 311 73 82 276 221 49 507 
151 7 134 35 52 40 19 79 313 
152 7 496 555 560 468 570 508 593 
153 7 279 58 61 81 5 234 24 
154 7 361 84 110 380 86 108 107 
155 6 479 406 401 530 33 604 
156 5 22 302 569 27 541 
157 7 206 417 509 268 531 407 171 
158 5 474 390 561 610 530 
159 6 98 586 97 436 574 577 
160 7 306 430 67 369 78 459 285 
161 7 481 534 278 132 256 598 510 
162 6 605 566 525 543 513 432 
163 7 201 91 328 324 65 147 223 
164 7 398 481 598 320 510 256 161 
165 7 202 595 219 60 235 23 106 
166 7 10 197 199 233 114 348 26 
167 7 314 122 129 362 442 400 488 
168 7 554 504 588 541 569 558 423 
169 7 465 483 448 459 441 173 78 
170 7 103 230 32 231 136 93 59 
171 7 538 590 407 411 206 417 157 
172 7 354 38 240 137 382 378 551 
173 7 459 448 369 169 285 465 483 
174 7 281 336 259 94 126 347 377 
175 7 258 86 107 44 191 110 495 
176 7 74 244 285 67 306 39 160 
177 6 99 75 56 193 225 252 
178 7 580 249 312 26 114 50 376 
179 7 273 343 187 292 117 232 92 
180 3 427 453 11 
181 7 116 282 315 131 77 253 397 
182 7 105 602 507 276 321 300 332 
183 7 425 34 100 274 12 255 47 
184 7 196 212 338 127 331 207 304 
185 7 70 89 322 25 224 101 330 
186 7 215 297 349 388 232 117 92 
187 7 292 343 46 179 273 92 117 
188 7 19 35 52 151 516 211 384 
189 7 307 364 222 277 373 502 121 
190 4 68 370 146 564 
191 7 107 86 110 258 3 495 198 
192 6 584 37 517 469 28 480 
193 6 56 99 177 75 220 252 
194 7 63 205 71 251 262 303 61 
195 6 289 460 76 491 579 391 
196 7 184 212 338 127 207 331 304 
197 7 10 166 199 233 114 348 249 
198 7 3 495 503 65 293 191 576 
199 7 233 114 197 166 10 249 26 
200 6 36 335 482 523 592 373 
201 7 163 91 328 147 223 240 324 
202 7 165 595 219 235 355 266 60 
203 7 294 591 319 7 371 338 261 
204 7 48 54 290 366 40 385 64 
205 7 251 194 69 607 63 303 262 
206 7 417 157 407 509 171 268 590 
207 7 127 331 212 455 196 295 184 
208 7 385 271 48 286 387 54 290 
209 7 572 263 13 375 489 149 83 
210 7 339 310 254 308 62 337 383 
211 6 225 252 52 272 19 35 
212 7 127 196 338 184 207 304 331 
213 7 362 119 316 295 458 167 423 
214 7 365 275 141 381 79 40 296 
215 7 297 186 117 232 388 349 92 
216 7 120 17 225 211 516 75 252 
217 7 55 318 356 349 226 388 186 
218 7 330 310 25 339 184 101 196 
219 7 595 106 23 165 60 202 380 
220 6 291 368 56 313 272 252 
221 7 82 342 49 355 311 73 266 
222 7 502 121 189 143 241 542 307 
223 7 147 328 551 382 378 240 149 
224 5 89 322 25 330 185 
225 6 211 252 52 272 177 19 
226 7 217 59 356 136 345 318 55 
227 7 490 445 360 124 389 372 323 
228 7 526 337 36 62 575 210 254 
229 7 352 325 347 126 18 259 299 
230 7 32 170 231 103 237 4 85 
231 7 237 255 230 136 59 100 274 
232 7 92 388 117 215 297 349 186 
233 7 114 199 249 166 197 10 26 
234 7 57 5 350 20 61 153 113 
235 7 266 108 245 41 60 380 165 
236 5 148 396 500 269 426 
237 7 255 231 100 274 47 34 230 
238 7 111 535 443 571 548 550 95 
239 3 137 178 378 
240 7 551 382 378 147 354 172 223 
241 7 121 502 143 562 222 15 305 
242 7 324 84 503 65 110 3 198 
243 4 498 475 128 493 
244 7 176 67 74 306 285 160 39 
245 7 108 361 41 235 115 266 380 
246 4 579 391 491 76 
247 7 326 435 138 449 607 329 66 
248 5 563 420 133 452 97 
249 7 114 233 199 166 178 197 10 
250 6 21 53 379 392 580 50 
251 7 303 69 205 299 262 607 325 
252 6 211 225 272 52 368 19 
253 6 77 552 181 116 145 484 
254 7 62 575 383 608 308 210 337 
255 7 237 100 274 231 34 47 425 
256 7 320 589 481 161 164 398 132 
257 4 470 315 308 116 
258 7 175 107 86 44 191 495 110 
259 7 281 174 336 126 347 94 139 
260 7 457 544 33 394 438 446 447 
261 7 304 458 338 455 295 212 80 
262 7 303 63 251 194 205 299 38 
263 7 209 572 13 489 375 149 51 
264 7 466 603 497 14 477 346 270 
265 7 144 423 119 316 27 554 168 
266 7 235 41 342 245 108 115 221 
267 7 66 113 360 283 20 389 449 
268 5 509 531 157 417 206 
269 4 500 236 148 489 
270 7 346 14 497 140 603 485 443 
271 7 385 387 208 48 43 109 54 
272 6 368 52 252 313 211 225 
273 7 179 292 187 117 92 232 343 
274 7 100 255 34 47 237 425 183 
275 7 381 141 214 296 365 123 286 
276 7 507 182 602 105 93 103 351 
277 7 537 350 189 393 307 143 222 
278 7 534 161 132 118 481 510 598 
279 7 58 72 61 71 153 81 358 
280 5 422 374 587 494 118 
281 7 174 259 336 126 94 347 377 
282 7 131 181 116 397 522 315 145 
283 7 267 323 360 142 20 113 66 
284 4 320 398 256 164 
285 7 369 74 173 176 459 160 39 
286 7 208 387 271 385 54 48 290 
287 7 31 528 311 358 24 49 150 
288 6 15 547 305 2 562 404 
289 6 460 195 76 391 491 579 
290 7 54 40 79 48 204 208 385 
291 6 313 220 368 272 134 214 
292 7 187 273 179 343 46 92 232 
293 7 576 495 198 83 3 65 503 
294 7 203 591 319 7 338 261 371 
295 7 455 304 458 261 213 119 207 
296 7 123 141 353 42 381 275 348 
297 7 215 117 186 232 388 92 349 
298 3 516 9 357 
299 7 325 139 251 303 229 69 38 
300 6 332 602 105 351 93 507 
301 6 146 359 68 164 398 190 
302 3 156 547 22 
303 7 251 262 299 205 63 69 325 
304 7 261 455 458 295 338 212 127 
305 7 15 562 288 433 2 241 143 
306 7 67 160 244 176 285 327 430 
307 7 189 364 373 222 277 142 502 
308 6 339 254 210 383 62 257 
309 7 39 74 367 176 244 285 12 
310 7 210 339 218 308 62 526 254 
311 7 82 49 150 221 287 73 342 
312 7 26 376 135 50 178 166 114 
313 6 368 272 134 291 52 151 
314 7 122 167 442 400 488 129 362 
315 7 116 181 470 522 77 397 282 
316 7 119 423 362 554 213 265 168 
317 7 87 4 367 361 115 245 85 
318 7 356 349 217 388 92 232 186 
319 7 294 591 203 7 261 80 458 
320 7 256 398 589 164 284 481 161 
321 7 105 118 602 182 132 589 494 
322 7 25 224 330 89 101 185 218 
323 7 142 360 283 523 227 482 267 
324 7 242 503 65 84 3 198 23 
325 7 299 229 139 69 251 259 352 
326 7 247 435 138 607 449 69 329 
327 2 430 160 
328 7 147 223 201 163 91 240 551 
329 7 66 113 20 449 267 247 389 
330 7 218 25 101 322 310 224 339 
331 7 127 207 212 196 184 29 526 
332 6 351 93 300 507 55 602 
333 4 454 16 557 409 
334 7 357 9 17 413 120 298 516 
335 6 482 523 592 200 372 36 
336 7 174 281 377 259 344 403 94 
337 7 62 228 526 575 254 608 210 
338 7 212 196 261 304 184 455 127 
339 5 210 308 310 254 62 
340 7 597 401 604 406 479 155 390 
341 7 8 421 600 386 451 478 535 
342 7 221 82 49 355 266 73 41 
343 7 46 187 179 292 273 104 117 
344 7 377 403 336 387 43 174 197 
345 7 47 226 59 136 274 100 237 
346 7 270 14 497 485 140 443 603 
347 7 126 18 94 281 352 174 259 
348 7 166 10 197 26 123 199 312 
349 7 388 318 232 92 186 356 215 
350 7 57 5 393 537 277 234 143 
351 7 93 332 300 507 103 276 602 
352 7 229 18 347 126 477 325 138 
353 7 42 296 123 135 141 348 381 
354 7 172 240 382 38 378 137 551 
355 7 49 342 221 82 202 358 266 
356 7 318 217 349 388 92 226 232 
357 7 334 9 413 17 120 298 516 
358 7 24 81 31 355 153 287 49 
359 6 301 104 398 284 164 146 
360 7 267 389 227 323 283 445 66 
361 7 108 154 245 380 84 235 60 
362 7 167 213 314 316 122 363 119 
363 7 429 558 504 588 554 130 168 
364 7 307 189 373 29 222 542 27 
365 7 214 79 275 40 381 141 290 
366 7 64 204 109 384 140 48 385 
367 7 309 317 39 87 175 12 4 
368 6 272 313 252 52 220 211 
369 7 459 78 173 285 160 169 483 
370 5 574 190 564 594 98 
371 7 7 591 101 203 294 319 25 
372 7 124 592 96 533 490 482 523 
373 7 307 364 189 142 29 36 200 
374 5 587 422 280 494 118 
375 7 149 209 83 572 263 13 489 
376 7 135 312 50 26 178 580 21 
377 7 344 403 336 387 43 174 197 
378 6 382 551 240 147 223 354 
379 5 392 21 250 53 580 
380 7 60 108 84 361 23 154 235 
381 7 275 141 296 123 214 365 286 
382 7 378 551 240 147 223 354 172 
383 6 254 608 575 308 62 210 
384 4 64 366 270 140 
385 7 271 48 208 387 54 109 43 
386 7 341 8 600 451 535 421 238 
387 7 271 208 385 43 344 377 286 
388 7 349 92 232 186 215 318 297 
389 7 449 360 267 66 445 227 490 
390 5 474 158 610 561 530 
391 6 76 491 579 246 460 289 
392 5 379 21 250 580 53 
393 7 537 57 143 350 562 5 277 
394 7 601 447 457 446 6 260 499 
395 6 585 413 472 578 9 16 
396 7 148 236 13 489 412 263 572 
397 7 522 282 116 181 315 131 77 
398 7 164 320 284 256 481 598 301 
399 3 125 180 427 
400 7 442 122 488 314 130 167 129 
401 7 479 406 604 340 597 155 530 
402 4 543 513 456 162 
403 7 377 344 336 197 10 174 387 
404 5 416 486 2 611 418 
405 7 407 590 112 171 487 514 28 
406 7 479 401 155 340 604 597 530 
407 7 590 206 405 171 157 417 538 
408 4 473 583 90 518 
409 3 125 333 399 
410 4 128 475 532 498 
411 7 171 538 417 206 590 157 407 
412 7 538 415 112 590 171 426 396 
413 6 9 395 585 357 334 472 
414 5 518 90 521 581 473 
415 7 426 112 412 514 148 536 405 
416 5 404 486 2 418 611 
417 7 206 157 509 268 407 171 411 
418 5 524 492 553 88 416 
419 5 570 560 573 555 152 
420 6 248 563 133 97 586 437 
421 7 8 341 600 478 386 451 549 
422 5 280 374 587 494 118 
423 7 316 554 168 119 504 588 265 
424 3 536 515 45 
425 7 183 34 100 274 12 255 237 
426 6 415 412 148 112 236 396 
427 3 180 453 11 
428 5 541 558 588 504 168 
429 6 363 558 588 504 554 168 
430 2 327 160 
431 2 599 30 
432 3 525 605 162 
433 7 305 5 562 15 393 2 57 
434 4 440 527 95 511 
435 7 138 326 247 477 607 549 69 
436 6 577 98 586 159 97 564 
437 4 565 545 133 97 
438 6 464 559 33 446 260 457 
439 3 512 125 145 
440 4 527 434 511 95 
441 7 465 483 169 462 448 78 459 
442 7 400 122 314 488 130 167 129 
443 7 238 111 485 550 346 497 14 
444 4 471 30 606 472 
445 7 490 227 389 124 567 360 449 
446 7 447 499 601 394 6 457 582 
447 7 601 394 446 6 499 457 582 
448 7 169 173 465 483 459 441 369 
449 7 389 66 247 267 329 360 113 
450 6 456 513 543 402 162 432 
451 6 386 600 8 535 341 511 
452 3 505 493 133 
453 3 427 180 11 
454 3 333 16 557 
455 7 295 304 261 458 207 212 127 
456 5 450 513 402 543 162 
457 7 260 394 601 447 544 446 33 
458 7 261 304 295 455 213 80 338 
459 7 369 78 169 173 483 465 448 
460 5 289 76 391 491 579 
461 4 567 533 96 451 
462 5 441 483 465 78 169 
463 3 546 130 488 
464 4 559 438 33 583 
465 7 483 169 441 448 78 459 462 
466 7 264 603 14 497 477 18 270 
467 4 581 90 414 518 
468 7 506 508 496 520 152 555 568 
469 7 517 37 519 28 584 192 45 
470 7 315 77 257 116 484 181 253 
471 4 30 444 606 599 
472 6 585 444 395 578 30 557 
473 5 408 583 90 518 414 
474 5 158 390 561 610 530 
475 6 128 498 243 532 410 492 
476 7 596 102 561 158 474 610 390 
477 7 466 264 352 435 138 18 603 
478 7 549 421 600 8 341 567 386 
479 7 406 401 155 604 340 597 530 
480 6 540 582 499 192 6 517 
481 7 161 598 510 256 534 164 278 
482 7 335 523 592 200 372 323 124 
483 7 465 169 78 441 459 448 462 
484 3 77 253 552 
485 5 550 443 111 346 270 
486 6 404 416 2 611 418 288 
487 4 584 28 37 192 
488 7 130 400 442 122 314 546 463 
489 7 13 572 263 209 396 500 148 
490 7 445 227 124 372 96 567 533 
491 6 76 579 391 246 289 460 
492 6 88 418 524 553 128 493 
493 5 505 88 452 609 243 
494 5 422 374 280 587 118 
495 7 198 3 576 44 293 191 107 
496 7 152 468 508 555 506 560 520 
497 7 14 346 603 270 264 466 443 
498 5 243 475 128 532 492 
499 6 446 582 540 447 6 601 
500 4 269 236 489 148 
501 3 539 596 102 
502 7 143 121 241 222 537 562 393 
503 7 65 3 198 324 242 495 191 
504 7 588 558 554 429 168 363 428 
505 4 452 493 609 88 
506 7 508 468 520 496 568 152 593 
507 7 276 182 602 105 93 351 300 
508 6 506 468 520 496 152 555 
509 5 531 268 157 206 417 
510 5 598 481 161 534 278 
511 4 527 440 434 95 
512 3 125 399 439 
513 6 543 402 162 450 456 605 
514 7 112 45 519 28 405 415 469 
515 7 469 45 517 519 37 480 28 
516 6 298 120 357 9 334 188 
517 7 469 37 519 584 192 28 480 
518 6 90 414 521 473 581 408 
519 7 469 28 517 37 45 584 514 
520 7 506 468 508 568 593 496 152 
521 2 414 90 
522 6 397 116 282 315 181 131 
523 7 482 335 592 323 200 372 124 
524 5 553 418 492 556 88 
525 3 432 605 162 
526 7 228 337 62 36 210 310 331 
527 4 440 434 511 95 
528 7 287 494 31 311 321 422 150 
529 2 565 159 
530 4 390 474 158 610 
531 3 509 268 157 
532 2 475 128 
533 5 96 461 124 567 372 
534 7 278 161 132 481 118 510 598 
535 7 548 95 238 386 511 571 527 
536 4 45 514 415 112 
537 7 393 143 277 350 502 57 562 
538 7 171 590 411 412 407 206 405 
539 4 501 596 102 476 
540 6 582 480 499 446 192 6 
541 6 569 168 428 504 554 588 
542 7 27 121 222 144 502 364 156 
543 5 513 402 162 566 605 
544 7 260 457 33 394 438 155 601 
545 1 133 
546 3 463 130 488 
547 3 288 15 302 
548 7 95 535 571 434 527 440 511 
549 7 478 567 421 600 435 8 461 
550 4 485 111 443 238 
551 7 382 378 240 147 223 354 328 
552 5 253 77 145 484 181 
553 5 524 88 556 492 609 
554 7 168 504 588 423 558 429 363 
555 7 560 152 593 570 496 573 468 
556 4 553 524 88 609 
557 3 16 454 333 
558 7 588 504 429 363 554 428 168 
559 4 464 438 583 33 
560 7 570 555 152 573 419 496 593 
561 6 158 474 390 610 476 102 
562 7 305 15 143 241 288 393 502 
563 5 248 420 133 452 97 
564 5 577 190 436 370 98 
565 3 529 437 97 
566 2 162 605 
567 7 461 533 96 490 445 549 124 
568 7 593 520 468 555 506 152 508 
569 6 541 168 22 554 428 504 
570 7 560 419 555 152 573 496 593 
571 4 548 95 238 535 
572 7 209 263 13 489 375 149 83 
573 6 560 555 570 593 419 152 
574 4 594 370 159 98 
575 7 608 254 62 383 337 308 210 
576 7 293 495 198 3 83 44 65 
577 5 436 98 564 159 586 
578 4 472 431 30 444 
579 6 491 76 246 391 289 460 
580 7 21 50 379 392 178 250 53 
581 5 467 90 414 518 521 
582 6 540 499 480 446 6 192 
583 4 473 408 518 90 
584 7 37 28 192 487 517 469 519 
585 6 395 472 413 16 557 444 
586 7 97 98 159 436 577 437 565 
587 5 374 422 280 118 494 
588 7 504 558 429 554 168 363 428 
589 7 256 320 161 132 321 481 278 
590 7 171 407 538 405 206 411 417 
591 7 203 294 7 319 371 261 338 
592 6 482 335 523 372 124 200 
593 7 568 555 468 520 573 152 560 
594 2 574 159 
595 7 219 165 106 23 60 202 380 
596 5 102 476 539 501 561 
597 7 340 401 604 406 479 155 390 
598 5 510 481 161 164 534 
599 1 30 
600 7 8 421 341 386 451 478 535 
601 7 447 394 6 446 457 499 260 
602 7 105 182 507 300 276 321 332 
603 7 466 14 497 264 140 270 346 
604 7 401 340 597 479 406 155 544 
605 6 525 162 432 566 543 513 
606 3 471 30 444 
607 7 69 138 326 205 247 435 251 
608 6 575 383 254 62 337 308 
609 4 88 493 505 553 
610 3 474 158 390 
611 5 486 404 2 416 31 
DEPOT_SECTION
   1
   -1
EOF
