NAME :  X-n856-kX-w85-c11.cctp
COMMENT : 	Adapted by Maziero, Usberti and Cavellucci from the Uchoa, Pecin, Pessoa, Poggi, Subramanian, and Vidal (2013)
TYPE :  CCTP
DIMENSION :    449
EDGE_WEIGHT_TYPE : 	EUC_2D	
CAPACITY : 	9
VERTICES_WITHIN_COVERAGE :  11
VERTICES_WITH_DEMAND : 	85
NODE_COORD_SECTION
1 500 500
2 440 732
3 221 348
4 117 545
5 493 645
6 135 12
7 775 997
8 745 444
9 950 311
10 530 150
11 900 508
12 48 519
13 269 217
14 722 349
15 480 733
16 977 422
17 999 220
18 636 332
19 851 162
20 559 567
21 389 69
22 529 835
23 303 427
24 400 638
25 894 904
26 482 109
27 579 800
28 184 82
29 669 753
30 906 424
31 374 692
32 174 613
33 75 37
34 38 563
35 838 157
36 710 709
37 176 67
38 449 326
39 71 389
40 710 115
41 237 547
42 530 27
43 631 223
44 171 342
45 226 65
46 6 998
47 24 635
48 668 165
49 318 608
50 429 82
51 212 237
52 853 126
53 387 47
54 677 144
55 111 790
56 957 32
57 511 647
58 457 561
59 86 687
60 290 456
61 473 563
62 807 725
63 461 468
64 739 235
65 257 340
66 588 545
67 6 311
68 268 976
69 552 414
70 994 946
71 452 534
72 422 545
73 248 611
74 43 366
75 977 96
76 822 580
77 940 650
78 86 263
79 715 99
80 668 981
81 424 638
82 297 607
83 251 282
84 237 413
85 202 573
86 181 385
87 126 528
88 978 846
89 333 357
90 157 734
91 627 268
92 978 59
93 42 595
94 870 933
95 165 679
96 131 984
97 319 417
98 187 376
99 251 482
100 657 219
101 209 397
102 228 116
103 566 559
104 490 156
105 216 547
106 964 677
107 938 222
108 543 747
109 569 59
110 616 306
111 695 837
112 604 995
113 1000 653
114 778 101
115 462 74
116 87 682
117 608 430
118 511 313
119 710 300
120 630 24
121 531 719
122 598 824
123 995 622
124 258 981
125 279 169
126 286 268
127 259 659
128 782 132
129 457 603
130 210 438
131 44 44
132 527 818
133 39 282
134 323 340
135 333 488
136 517 137
137 122 280
138 159 655
139 446 283
140 107 315
141 588 270
142 158 374
143 26 353
144 959 76
145 437 138
146 53 938
147 333 192
148 922 499
149 970 664
150 8 561
151 989 908
152 10 960
153 842 190
154 286 965
155 199 373
156 159 67
157 979 25
158 488 479
159 804 620
160 528 160
161 223 342
162 503 159
163 711 681
164 339 340
165 342 509
166 766 953
167 710 172
168 521 451
169 685 836
170 639 155
171 763 656
172 269 241
173 825 761
174 330 177
175 901 124
176 692 19
177 949 178
178 79 795
179 833 852
180 336 444
181 877 0
182 296 597
183 566 735
184 940 377
185 939 827
186 908 120
187 50 741
188 753 744
189 577 351
190 141 616
191 97 625
192 496 160
193 515 598
194 274 510
195 291 170
196 74 609
197 395 290
198 525 743
199 260 385
200 1 346
201 231 504
202 837 572
203 606 473
204 477 169
205 383 59
206 510 410
207 890 101
208 952 635
209 825 722
210 68 598
211 911 720
212 172 367
213 84 19
214 694 916
215 454 412
216 261 233
217 693 375
218 588 854
219 276 538
220 599 569
221 324 194
222 739 325
223 845 639
224 638 182
225 858 93
226 40 923
227 37 599
228 638 39
229 568 674
230 439 570
231 587 278
232 992 674
233 597 608
234 65 330
235 620 129
236 339 681
237 178 811
238 469 749
239 475 791
240 799 594
241 692 130
242 59 223
243 811 2
244 5 946
245 219 305
246 759 951
247 582 18
248 899 286
249 512 358
250 220 951
251 503 801
252 483 402
253 685 904
254 483 722
255 13 301
256 607 709
257 857 739
258 51 422
259 818 797
260 302 646
261 474 101
262 817 66
263 948 686
264 153 503
265 47 817
266 740 970
267 920 879
268 305 71
269 268 373
270 894 60
271 539 352
272 605 457
273 563 524
274 861 875
275 700 810
276 160 753
277 985 455
278 981 276
279 708 646
280 575 249
281 777 725
282 853 773
283 743 430
284 301 574
285 38 983
286 575 209
287 10 683
288 745 333
289 616 311
290 537 110
291 70 839
292 531 647
293 157 736
294 609 356
295 534 11
296 436 279
297 340 578
298 41 809
299 971 282
300 389 628
301 171 951
302 633 578
303 158 858
304 219 471
305 619 737
306 700 50
307 722 223
308 112 450
309 857 66
310 81 295
311 314 964
312 829 981
313 645 700
314 277 268
315 459 81
316 573 211
317 368 81
318 262 451
319 629 44
320 842 703
321 780 254
322 653 177
323 882 625
324 763 432
325 615 183
326 629 543
327 822 574
328 355 86
329 519 683
330 111 12
331 957 366
332 265 184
333 985 701
334 22 32
335 551 214
336 422 750
337 196 122
338 312 75
339 199 182
340 960 334
341 253 120
342 421 756
343 732 438
344 286 3
345 19 558
346 921 499
347 41 240
348 876 405
349 786 558
350 467 684
351 625 441
352 935 443
353 95 48
354 137 252
355 769 375
356 925 421
357 117 30
358 119 18
359 134 297
360 614 521
361 887 325
362 772 461
363 916 509
364 983 447
365 96 17
366 671 926
367 93 287
368 795 581
369 119 223
370 80 58
371 123 266
372 683 363
373 187 62
374 918 677
375 909 427
376 937 395
377 647 389
378 705 454
379 154 38
380 285 921
381 956 449
382 702 637
383 112 263
384 908 625
385 783 344
386 422 744
387 168 96
388 278 215
389 854 616
390 826 582
391 204 336
392 724 356
393 131 31
394 318 200
395 245 352
396 878 519
397 330 999
398 138 48
399 220 93
400 208 26
401 317 96
402 921 488
403 903 248
404 180 59
405 199 69
406 978 705
407 691 634
408 754 759
409 854 615
410 326 986
411 315 718
412 262 65
413 533 687
414 140 44
415 575 779
416 893 487
417 73 13
418 474 772
419 684 471
420 953 616
421 967 425
422 82 60
423 303 67
424 497 721
425 296 934
426 926 500
427 529 867
428 274 236
429 813 702
430 210 304
431 905 380
432 831 580
433 399 106
434 139 43
435 170 77
436 959 379
437 982 463
438 769 970
439 341 453
440 884 435
441 745 448
442 118 13
443 695 341
444 25 18
445 912 446
446 568 430
447 935 513
448 821 687
449 411 722
DEMAND_SECTION
2 1
3 1
4 1
5 1
6 1
7 1
8 1
9 1
10 1
11 1
12 1
13 1
14 1
15 1
16 1
17 1
18 1
19 1
20 1
21 1
22 1
23 1
24 1
25 1
26 1
27 1
28 1
29 1
30 1
31 1
32 1
33 1
34 1
35 1
36 1
37 1
38 1
39 1
40 1
41 1
42 1
43 1
44 1
45 1
46 1
47 1
48 1
49 1
50 1
51 1
52 1
53 1
54 1
55 1
56 1
57 1
58 1
59 1
60 1
61 1
62 1
63 1
64 1
65 1
66 1
67 1
68 1
69 1
70 1
71 1
72 1
73 1
74 1
75 1
76 1
77 1
78 1
79 1
80 1
81 1
82 1
83 1
84 1
85 1
86 1
COVERAGE_SECTION
2 10 386 336 342 449 238 15 254 418 350 424 
3 11 161 391 395 155 65 245 98 430 44 101 212 
4 11 87 264 210 12 190 196 34 191 32 85 93 
5 11 57 292 329 350 193 129 413 81 424 254 229 
6 11 358 442 393 330 357 434 379 414 398 365 213 
7 10 438 266 166 246 312 80 94 214 366 253 
8 7 441 283 343 324 362 378 419 
9 10 340 299 278 331 248 361 184 436 403 431 
10 11 160 136 162 192 104 290 204 26 335 261 286 
11 7 363 416 346 148 396 426 402 
12 11 34 345 150 4 93 87 210 227 196 308 258 
13 11 388 216 428 172 332 125 195 314 394 126 51 
14 9 392 288 443 222 217 372 119 355 385 
15 11 254 238 424 418 2 198 350 121 239 386 336 
16 9 421 364 277 381 437 352 436 376 356 
17 11 278 107 177 299 403 9 248 340 75 186 175 
18 11 289 110 294 372 377 443 189 91 217 231 141 
19 11 35 153 52 175 225 186 207 128 114 309 177 
20 11 103 66 220 273 193 233 360 326 302 292 61 
21 11 205 53 317 328 433 50 315 115 338 401 145 
22 5 132 427 251 27 218 
23 11 97 60 180 439 318 199 269 84 135 89 99 
24 11 300 81 31 129 236 230 350 297 449 49 5 
25 10 267 94 274 179 185 151 312 88 70 259 
26 11 261 315 115 136 104 192 145 162 290 50 204 
27 10 415 122 132 218 22 108 183 305 251 198 
28 9 435 37 373 405 387 404 156 399 337 
29 10 305 313 36 275 256 163 188 169 408 111 
30 6 375 356 445 440 352 348 
31 10 236 449 24 411 300 386 81 336 2 342 
32 11 190 138 85 95 73 105 191 4 41 127 87 
33 9 213 370 353 417 422 365 131 357 330 
34 11 345 150 93 227 12 210 196 47 4 191 87 
35 11 19 153 52 128 225 175 207 186 114 262 309 
36 10 163 188 29 279 313 408 281 382 171 407 
37 11 404 373 435 28 156 405 387 379 398 414 434 
38 8 139 296 118 197 249 252 215 271 
39 11 74 258 143 234 308 140 200 142 310 67 212 
40 11 79 241 54 167 48 306 114 128 170 322 235 
41 11 105 219 201 85 194 73 99 284 182 304 82 
42 11 295 109 247 115 290 315 261 26 120 319 228 
43 11 100 224 325 91 322 286 316 280 141 170 48 
44 11 212 391 142 98 155 86 3 161 430 359 245 
45 11 405 399 412 373 400 28 404 37 102 435 341 
46 6 285 152 244 146 226 96 
47 11 227 93 287 196 210 34 191 150 345 116 59 
48 11 322 54 170 224 241 167 100 325 235 40 43 
49 11 82 182 297 284 260 73 300 236 127 219 24 
50 11 315 115 433 21 261 205 53 145 26 317 328 
51 11 216 172 339 13 83 428 430 245 388 314 332 
52 11 225 35 19 207 175 186 309 153 262 128 270 
53 11 205 21 317 328 50 433 115 315 338 268 401 
54 11 241 48 170 322 167 40 224 79 235 325 100 
55 9 178 276 291 265 237 293 90 298 187 
56 11 157 92 144 75 270 181 207 186 309 175 225 
57 11 5 292 329 413 193 350 229 129 121 424 254 
58 11 61 230 71 72 129 193 81 158 5 63 300 
59 11 116 191 187 287 95 196 138 47 90 293 190 
60 11 318 23 99 180 97 439 135 194 84 304 165 
61 11 58 230 71 129 72 193 5 158 20 81 57 
62 11 209 429 281 173 448 320 257 188 408 282 259 
63 11 158 215 168 71 252 206 72 58 61 230 69 
64 9 307 321 167 119 100 222 288 48 322 
65 11 395 161 269 3 199 245 391 83 430 134 155 
66 9 103 220 273 360 20 326 302 233 203 
67 10 255 200 133 143 234 74 310 347 367 78 
68 8 124 154 311 425 250 380 410 397 
69 11 446 206 168 117 271 189 272 249 252 351 203 
70 9 151 267 88 25 94 185 274 312 179 
71 11 58 72 61 230 158 63 129 193 81 168 273 
72 11 230 71 58 61 129 63 165 297 300 81 158 
73 11 82 127 182 85 260 41 284 49 105 32 219 
74 11 143 39 234 200 258 67 255 310 140 133 367 
75 11 144 92 56 157 186 175 177 207 270 225 309 
76 8 390 327 432 202 240 368 349 159 
77 10 208 149 374 106 420 263 384 232 113 123 
78 11 367 383 310 371 137 242 133 347 354 369 140 
79 11 40 241 306 54 114 167 128 48 176 170 228 
80 5 366 112 214 266 253 
81 11 24 300 129 350 5 230 31 58 449 57 61 
82 11 182 49 284 260 73 297 127 219 41 236 300 
83 11 314 126 245 172 430 216 428 65 51 161 13 
84 11 101 199 130 318 269 155 304 98 395 86 3 
85 11 105 41 32 73 190 201 219 264 87 4 138 
86 11 98 212 155 142 101 44 3 391 130 161 84 
87 11 4 264 12 308 85 190 210 105 34 196 32 
88 8 185 151 267 70 25 274 94 406 
89 9 164 134 97 269 23 65 199 180 395 
90 5 293 276 95 55 138 
91 10 141 110 231 289 43 280 100 18 286 316 
92 11 144 56 157 75 270 186 207 175 181 309 177 
93 11 227 210 34 196 47 345 150 191 12 4 287 
94 11 25 274 312 267 179 166 438 246 7 151 70 
95 9 138 90 293 32 190 276 116 59 191 
96 7 301 146 285 250 226 152 46 
97 11 23 180 439 60 89 318 199 269 135 134 164 
98 11 86 155 212 142 101 44 391 3 161 84 395 
99 11 201 318 304 194 60 130 219 41 84 105 23 
100 11 43 224 322 48 325 91 307 170 167 54 286 
101 11 155 86 98 84 130 212 3 199 142 161 395 
102 5 399 341 337 45 405 
103 11 20 66 220 273 233 360 193 326 302 61 203 
104 11 192 162 204 136 160 10 26 145 261 290 315 
105 11 41 85 201 219 194 73 99 304 264 32 284 
106 11 149 263 232 406 333 77 113 208 374 420 123 
107 11 403 177 17 299 278 248 9 153 175 19 186 
108 9 198 183 121 415 424 413 27 15 254 
109 11 247 42 295 290 319 120 228 235 136 10 26 
110 10 289 18 91 231 141 294 189 280 43 443 
111 5 169 275 253 214 29 
112 1 80 
113 11 232 123 149 106 333 208 406 77 420 263 374 
114 11 128 262 79 40 52 225 35 309 241 306 19 
115 11 315 261 50 26 145 433 21 53 205 42 290 
116 11 59 191 187 196 138 287 95 47 190 210 90 
117 11 351 272 446 203 377 69 294 189 419 168 360 
118 10 249 271 38 139 189 296 231 141 280 252 
119 11 222 443 288 14 392 372 64 217 307 18 321 
120 11 228 319 247 176 109 306 295 42 235 79 40 
121 9 198 108 413 424 183 329 254 15 229 
122 6 27 218 415 22 132 427 
123 8 113 420 208 149 232 77 106 263 
124 8 68 154 250 311 425 380 410 397 
125 9 195 332 388 13 394 221 174 341 147 
126 8 314 172 428 83 216 13 388 394 
127 8 260 73 82 182 49 411 236 284 
128 11 114 35 52 40 19 79 262 167 153 225 241 
129 11 230 58 61 81 5 193 24 72 71 57 300 
130 11 304 84 101 318 86 99 98 155 201 199 212 
131 6 334 33 444 370 422 417 
132 6 22 251 427 27 239 415 
133 10 255 347 67 310 78 367 234 242 143 200 
134 8 164 89 269 65 97 199 395 126 
135 11 165 439 180 60 194 23 97 219 318 99 297 
136 11 10 160 162 192 104 290 26 204 261 145 315 
137 11 371 383 359 367 354 140 78 310 369 234 44 
138 9 95 190 32 191 116 90 59 293 85 
139 5 296 38 197 118 249 
140 11 367 359 310 137 234 371 383 78 44 354 133 
141 10 231 280 91 110 289 316 286 43 335 18 
142 11 212 86 98 44 155 101 391 3 161 140 359 
143 11 74 200 234 67 255 39 133 258 310 140 367 
144 11 92 75 56 157 186 270 207 175 177 225 309 
145 9 433 204 261 26 104 50 315 192 115 
146 5 226 285 152 244 46 
147 8 221 174 394 195 125 388 332 13 
148 7 346 426 402 363 447 11 416 
149 11 106 232 263 113 77 208 333 406 123 420 374 
150 11 345 34 93 227 12 210 47 196 4 191 287 
151 9 70 88 267 25 185 94 274 179 312 
152 5 244 285 46 146 226 
153 10 19 35 52 128 403 175 321 186 225 107 
154 7 68 311 124 425 380 410 397 
155 11 98 86 101 212 3 391 161 142 44 395 84 
156 10 435 37 404 373 398 28 379 387 414 434 
157 11 56 92 144 75 270 181 207 186 175 309 225 
158 11 63 168 71 206 215 252 61 273 58 69 72 
159 11 240 368 76 390 223 432 327 389 409 171 202 
160 11 10 136 162 192 104 290 204 335 286 316 26 
161 11 3 391 395 65 245 155 430 98 44 269 101 
162 11 192 104 160 136 10 204 26 290 261 145 335 
163 10 36 279 382 407 171 313 188 281 29 408 
164 7 134 89 197 269 97 65 126 
165 11 135 439 180 194 297 219 60 284 72 23 97 
166 9 246 438 266 7 312 214 253 366 80 
167 11 48 54 241 307 40 322 64 100 79 170 224 
168 11 206 158 69 446 63 252 215 272 273 203 117 
169 5 111 275 253 214 29 
170 11 322 224 48 235 325 54 241 100 43 167 40 
171 10 159 279 163 382 448 429 281 240 36 407 
172 11 428 216 13 314 388 126 83 51 332 394 221 
173 11 282 259 209 257 62 281 320 429 408 188 448 
174 8 147 221 394 195 125 388 332 13 
175 11 186 207 52 225 19 270 35 177 309 144 75 
176 11 306 228 120 319 79 40 247 241 114 243 54 
177 11 107 17 186 175 403 75 207 19 144 278 299 
178 6 55 265 298 291 187 276 
179 8 274 259 25 282 94 173 267 185 
180 11 439 97 23 135 60 165 318 89 194 99 199 
181 11 270 243 309 56 262 225 207 157 144 92 186 
182 11 82 284 49 297 260 73 219 127 41 194 105 
183 9 108 121 198 415 256 305 413 229 27 
184 11 376 436 331 431 356 340 421 16 30 375 352 
185 8 88 267 25 274 151 282 179 211 
186 11 175 207 52 225 270 144 19 177 75 309 35 
187 11 178 59 298 116 287 265 55 291 90 293 47 
188 11 408 281 36 62 429 173 209 163 29 259 275 
189 10 294 271 289 110 18 249 69 231 118 377 
190 11 32 138 191 95 196 4 85 210 116 87 59 
191 11 196 210 190 116 59 93 227 138 47 32 4 
192 11 104 162 204 136 160 10 26 145 261 290 335 
193 11 57 5 292 20 61 129 103 58 230 233 329 
194 11 219 99 201 41 60 318 135 304 165 105 284 
195 9 125 332 174 394 221 147 388 13 341 
196 11 210 191 93 227 47 34 190 116 345 4 59 
197 4 296 139 38 164 
198 10 108 121 424 183 15 254 238 413 418 329 
199 11 269 84 395 65 101 3 161 23 155 318 97 
200 10 143 67 74 255 234 133 39 258 310 367 
201 11 99 304 41 194 105 219 318 130 85 60 264 
202 6 432 327 390 76 368 240 
203 11 272 351 117 360 446 273 66 326 419 69 168 
204 9 104 192 162 136 145 160 10 26 261 
205 11 21 53 317 328 433 50 338 401 268 315 115 
206 11 252 69 168 249 215 446 271 158 63 189 118 
207 11 175 186 225 270 52 309 19 144 35 262 75 
208 10 77 420 149 106 123 384 113 263 374 232 
209 10 62 429 320 448 257 173 281 282 188 259 
210 11 196 93 227 191 34 47 345 150 4 190 12 
211 8 374 263 257 106 406 320 77 333 
212 11 142 98 86 44 155 391 101 3 161 430 395 
213 11 365 417 33 330 353 357 358 442 370 422 131 
214 6 253 366 80 266 246 111 
215 11 252 63 206 158 168 249 38 69 271 118 446 
216 11 172 428 13 388 314 126 51 332 83 125 394 
217 11 372 443 392 14 377 288 222 18 283 343 355 
218 5 122 27 427 22 132 
219 11 194 41 284 201 99 105 182 82 165 297 135 
220 8 66 103 302 233 20 326 360 273 
221 8 394 147 174 195 125 388 13 332 
222 9 288 14 392 119 443 385 355 217 372 
223 10 389 409 323 159 448 390 432 76 240 320 
224 11 322 325 170 48 43 100 54 235 286 316 167 
225 11 309 52 207 262 270 175 186 35 19 114 128 
226 5 146 244 152 285 46 
227 11 93 210 34 47 196 345 150 191 12 287 4 
228 11 319 120 176 247 306 109 235 79 40 241 295 
229 8 413 292 329 256 121 183 57 233 
230 11 58 72 61 71 129 81 300 24 193 5 297 
231 10 141 280 110 91 289 316 43 286 18 335 
232 11 113 149 106 333 406 263 123 208 77 420 374 
233 8 220 302 20 103 66 229 326 292 
234 11 310 74 140 143 367 133 39 255 67 200 78 
235 11 170 325 224 322 54 48 241 290 319 109 40 
236 11 31 411 260 300 24 49 127 449 82 182 81 
237 4 303 276 55 293 
238 10 15 418 254 2 424 239 336 386 342 198 
239 5 418 251 238 15 132 
240 9 368 159 76 327 390 432 349 202 389 
241 11 54 40 79 48 167 170 322 235 224 306 128 
242 2 347 78 
243 11 262 181 309 270 225 114 176 306 207 52 128 
244 5 152 226 146 285 46 
245 11 430 391 161 83 3 65 395 44 51 314 155 
246 9 166 438 266 7 214 312 253 366 80 
247 11 109 120 295 42 319 228 290 176 235 306 115 
248 6 403 361 9 299 107 340 
249 10 271 118 206 252 189 69 38 215 446 168 
250 6 124 301 68 154 380 425 
251 6 132 239 418 22 198 238 
252 11 206 215 249 168 63 69 271 158 38 446 118 
253 5 214 366 111 169 80 
254 10 15 424 238 350 2 198 121 418 329 413 
255 10 67 133 200 143 234 347 310 74 367 78 
256 8 305 313 183 229 108 29 121 413 
257 9 282 209 173 320 62 211 429 448 259 
258 11 39 74 308 143 200 234 12 142 67 140 255 
259 10 173 282 179 257 62 408 209 281 188 274 
260 11 82 49 127 182 236 73 284 411 297 31 300 
261 11 26 315 115 50 145 136 104 192 290 162 204 
262 11 309 225 114 243 52 128 270 207 181 35 19 
263 10 106 149 374 406 77 333 232 211 208 113 
264 11 87 4 308 304 105 201 85 130 41 99 12 
265 5 298 291 178 55 187 
266 9 246 438 166 7 214 80 366 253 312 
267 10 25 185 274 88 94 151 179 70 282 259 
268 10 423 338 401 412 328 317 341 344 45 205 
269 11 199 395 65 84 3 161 23 101 134 89 97 
270 11 309 207 225 181 186 175 144 56 262 52 92 
271 10 249 189 118 69 206 294 252 446 289 231 
272 11 203 351 117 446 360 69 273 377 419 168 326 
273 11 66 103 20 360 220 203 326 272 168 158 193 
274 9 179 25 94 267 259 185 282 312 173 
275 5 111 169 29 408 188 
276 5 293 90 55 237 95 
277 6 364 437 381 16 421 352 
278 11 299 9 17 340 107 248 403 331 177 436 361 
279 6 382 407 163 171 36 313 
280 10 141 231 316 286 335 91 43 110 289 325 
281 11 62 188 408 429 209 448 173 36 320 171 163 
282 9 173 257 259 209 62 320 211 179 429 
283 8 8 343 441 324 362 378 355 419 
284 11 182 82 49 297 219 73 41 194 260 165 105 
285 6 46 152 146 244 226 96 
286 11 316 335 280 325 43 141 160 224 231 10 91 
287 11 47 187 59 116 227 93 196 210 191 150 34 
288 9 222 14 392 385 119 355 443 217 372 
289 10 110 18 91 231 294 141 189 280 377 372 
290 11 136 10 160 26 109 162 261 192 104 42 115 
291 4 265 298 178 55 
292 10 57 5 329 413 229 193 121 350 233 424 
293 5 90 276 95 55 237 
294 10 189 18 289 110 377 271 117 372 69 231 
295 11 42 247 109 115 120 290 319 315 228 261 26 
296 4 139 197 38 118 
297 11 49 284 182 82 165 300 219 260 24 72 135 
298 5 265 178 291 187 55 
299 11 278 9 340 17 107 248 403 331 361 436 184 
300 11 24 81 31 297 129 236 49 230 72 260 82 
301 5 250 96 124 303 68 
302 6 220 326 233 66 360 103 
303 2 237 55 
304 11 99 130 201 318 84 194 60 264 101 105 41 
305 8 256 313 29 183 415 27 108 229 
306 11 176 79 228 40 319 120 241 114 54 235 128 
307 11 64 167 100 321 119 48 322 43 54 224 241 
308 11 258 264 39 87 142 12 4 86 130 212 98 
309 11 225 270 262 207 52 181 175 186 243 114 35 
310 11 367 78 140 234 133 137 383 371 359 255 347 
311 5 410 154 425 397 68 
312 10 7 438 94 166 246 266 25 274 179 267 
313 8 256 305 29 36 163 407 229 279 
314 9 126 172 83 428 216 13 388 245 51 
315 11 115 261 50 26 145 433 21 205 53 104 136 
316 10 286 335 280 325 43 141 160 231 224 10 
317 10 328 21 205 53 433 401 338 50 268 423 
318 11 60 99 84 304 23 130 194 201 97 199 180 
319 11 228 120 247 109 176 306 235 42 295 79 241 
320 10 209 448 429 257 62 173 223 281 211 282 
321 7 64 307 222 119 288 153 385 
322 11 224 48 170 325 54 100 43 167 235 241 307 
323 5 384 389 409 223 77 
324 6 283 8 441 362 343 355 
325 11 224 170 322 43 286 316 235 100 48 335 54 
326 8 360 302 220 66 103 273 233 20 
327 7 76 390 432 202 368 240 349 
328 10 317 21 205 401 338 433 53 268 423 50 
329 10 413 57 121 292 424 5 229 350 254 198 
330 11 442 358 365 357 6 213 393 417 353 434 414 
331 11 436 184 340 376 431 9 16 421 356 30 375 
332 8 125 195 13 388 216 428 394 172 
333 10 406 232 106 149 263 113 77 374 208 211 
334 4 444 131 33 417 
335 10 316 286 280 160 10 141 325 162 231 192 
336 6 342 386 2 449 238 418 
337 4 102 387 399 28 
338 10 268 423 401 328 412 317 205 341 21 344 
339 2 51 337 
340 10 9 331 436 184 299 278 376 431 361 248 
341 7 102 399 125 412 337 45 195 
342 5 336 386 2 449 238 
343 9 8 283 441 378 324 362 419 355 217 
344 11 412 423 268 338 400 45 401 328 405 53 205 
345 11 150 34 93 227 12 210 196 47 4 191 87 
346 7 148 426 363 402 447 11 416 
347 3 242 133 78 
348 4 440 30 431 375 
349 5 368 240 327 76 390 
350 11 254 5 424 15 329 2 57 81 238 413 449 
351 11 117 272 203 377 446 419 69 360 378 294 217 
352 6 381 445 356 375 30 421 
353 6 370 422 33 357 213 365 
354 10 371 383 137 369 359 78 367 140 310 51 
355 7 385 288 392 14 324 222 283 
356 10 375 30 352 445 376 381 421 440 184 431 
357 11 358 393 442 330 6 365 434 414 353 398 213 
358 11 442 330 357 6 393 365 434 414 213 398 353 
359 11 137 140 371 383 367 354 310 44 78 234 369 
360 9 326 66 203 220 273 302 103 272 20 
361 5 248 431 9 184 340 
362 5 324 441 8 283 343 
363 7 346 148 426 11 447 402 416 
364 6 277 437 16 381 421 352 
365 11 213 330 442 358 417 357 33 353 393 6 370 
366 4 214 253 80 266 
367 11 310 78 137 140 383 371 359 234 133 354 369 
368 8 240 349 76 327 390 432 159 202 
369 6 354 383 371 78 137 242 
370 3 422 353 33 
371 10 383 137 354 359 78 367 369 310 140 242 
372 11 217 443 14 392 377 18 222 119 288 294 289 
373 11 404 37 405 28 435 156 45 387 379 400 399 
374 9 263 77 211 106 384 149 208 323 406 
375 6 30 356 445 440 352 348 
376 11 184 436 356 331 431 30 421 375 16 352 381 
377 11 372 217 294 351 117 18 443 189 272 289 392 
378 9 419 343 441 8 283 324 362 217 351 
379 11 414 434 398 393 156 6 404 37 357 358 373 
380 4 425 154 311 68 
381 7 352 421 364 277 437 16 356 
382 5 279 407 163 171 36 
383 10 371 137 78 354 367 359 369 310 140 242 
384 7 323 77 208 420 374 389 409 
385 5 355 288 222 392 14 
386 6 336 342 2 449 238 15 
387 6 435 28 37 156 337 373 
388 11 13 428 216 172 332 394 125 195 221 314 126 
389 9 409 223 323 432 390 202 76 159 327 
390 9 76 432 327 202 240 368 409 159 389 
391 11 161 3 430 44 245 155 98 395 212 65 86 
392 10 14 288 443 222 217 372 355 119 385 283 
393 11 357 434 414 358 398 6 442 379 330 365 353 
394 9 221 147 174 195 388 125 13 332 428 
395 11 65 3 161 269 199 391 155 245 101 430 84 
396 1 11 
397 4 410 311 154 68 
398 8 414 434 393 379 156 357 6 358 
399 11 102 45 405 28 337 341 373 412 37 387 404 
400 11 373 45 404 405 37 379 28 156 435 412 399 
401 10 338 268 423 328 317 412 341 205 21 195 
402 7 148 346 426 363 416 11 447 
403 8 248 107 299 9 361 278 153 177 
404 11 373 37 405 435 156 28 379 387 398 400 414 
405 11 373 28 404 37 45 435 399 156 387 400 337 
406 10 333 106 232 263 149 113 374 77 211 208 
407 5 382 279 163 171 36 
408 11 188 281 62 36 173 259 275 209 429 29 163 
409 9 389 223 323 432 390 202 76 159 327 
410 5 397 311 154 68 425 
411 4 236 31 260 127 
412 10 45 423 268 399 338 341 102 401 405 344 
413 10 329 121 229 292 57 424 198 5 183 108 
414 9 434 398 379 393 357 156 6 358 442 
415 9 27 108 183 122 305 132 198 22 121 
416 1 11 
417 11 213 365 33 330 353 131 442 358 370 357 422 
418 7 239 238 15 251 254 2 342 
419 8 378 343 441 351 8 283 203 272 
420 7 208 77 123 384 149 113 106 
421 9 16 381 364 277 352 437 356 376 436 
422 3 370 353 33 
423 10 268 338 401 412 328 317 344 341 45 205 
424 10 254 15 121 198 238 329 350 413 108 418 
425 4 380 154 311 68 
426 6 148 346 363 402 447 11 
427 1 22 
428 11 172 216 13 388 314 126 83 332 394 51 221 
429 11 448 209 62 320 281 257 173 171 223 188 282 
430 11 245 391 161 3 83 44 65 395 51 155 212 
431 8 184 376 348 30 356 375 331 436 
432 8 390 76 202 327 240 368 409 389 
433 9 21 50 317 328 145 205 53 315 115 
434 9 414 398 393 379 357 6 156 358 442 
435 7 37 28 156 387 404 373 405 
436 11 331 184 376 340 16 421 356 431 352 9 375 
437 6 277 364 381 16 421 352 
438 10 166 246 7 266 312 214 80 253 366 94 
439 11 180 135 97 23 60 165 318 194 99 89 199 
440 3 30 375 445 
441 7 8 343 283 324 362 378 419 
442 11 358 330 6 357 365 393 213 434 414 398 353 
443 11 372 14 392 217 119 222 288 18 377 355 289 
444 5 334 131 417 33 213 
445 5 375 30 352 356 440 
446 11 69 117 272 168 203 351 206 189 271 294 252 
447 6 426 148 363 346 402 11 
448 11 429 320 209 62 223 281 257 171 159 173 389 
449 7 386 336 2 342 31 238 350 
DEPOT_SECTION
   1
   -1
EOF
