NAME :  X-n876-kX-w87-c9.cctp
COMMENT : 	Adapted by Maziero, Usberti and Cavellucci from the Uchoa, Pecin, Pessoa, Poggi, Subramanian, and Vidal (2013)
TYPE :  CCTP
DIMENSION :    573
EDGE_WEIGHT_TYPE : 	EUC_2D	
CAPACITY : 	764
VERTICES_WITHIN_COVERAGE :  9
VERTICES_WITH_DEMAND : 	87
NODE_COORD_SECTION
1 0 0
2 205 638
3 893 161
4 191 775
5 444 871
6 225 445
7 226 456
8 301 566
9 140 746
10 196 791
11 356 894
12 876 165
13 56 653
14 845 153
15 139 808
16 418 823
17 94 422
18 928 162
19 341 981
20 209 815
21 172 705
22 374 765
23 291 847
24 890 163
25 250 591
26 970 235
27 251 857
28 260 618
29 162 764
30 906 149
31 247 471
32 191 464
33 587 796
34 198 622
35 878 157
36 346 812
37 435 818
38 61 783
39 362 765
40 612 859
41 194 515
42 17 446
43 903 248
44 224 732
45 225 847
46 397 945
47 215 418
48 226 733
49 972 221
50 142 476
51 168 895
52 200 480
53 119 633
54 336 808
55 499 899
56 777 171
57 476 870
58 792 163
59 288 812
60 198 613
61 336 674
62 137 629
63 325 333
64 504 837
65 230 635
66 152 785
67 280 381
68 157 615
69 919 211
70 292 398
71 222 739
72 828 150
73 208 442
74 197 773
75 877 170
76 143 623
77 99 543
78 389 437
79 161 762
80 252 631
81 57 741
82 186 706
83 167 827
84 198 737
85 150 707
86 205 347
87 38 861
88 986 232
89 209 620
90 45 650
91 123 656
92 189 796
93 371 909
94 173 748
95 519 907
96 912 247
97 486 851
98 361 802
99 345 809
100 184 781
101 341 854
102 398 817
103 256 570
104 139 720
105 152 784
106 204 615
107 203 430
108 201 538
109 608 873
110 456 878
111 298 404
112 364 459
113 193 936
114 225 517
115 878 171
116 889 224
117 246 643
118 74 625
119 166 625
120 852 122
121 738 166
122 226 451
123 289 331
124 902 312
125 290 350
126 949 143
127 379 421
128 113 576
129 443 857
130 228 825
131 223 473
132 935 243
133 948 144
134 265 621
135 750 158
136 138 677
137 706 133
138 494 871
139 785 201
140 59 888
141 200 544
142 450 874
143 66 681
144 716 135
145 902 193
146 143 633
147 264 607
148 125 615
149 903 146
150 192 766
151 207 406
152 258 369
153 496 929
154 198 597
155 883 141
156 928 241
157 217 778
158 827 143
159 9 757
160 164 879
161 584 811
162 208 811
163 203 458
164 399 849
165 405 922
166 413 793
167 134 553
168 246 457
169 506 813
170 280 567
171 186 782
172 171 696
173 271 633
174 308 909
175 941 128
176 119 877
177 125 758
178 102 856
179 503 909
180 311 931
181 198 543
182 67 565
183 886 161
184 205 442
185 209 600
186 251 877
187 907 166
188 475 886
189 846 170
190 307 561
191 281 561
192 356 706
193 685 879
194 221 776
195 139 792
196 188 458
197 462 208
198 990 280
199 425 862
200 132 617
201 27 749
202 219 393
203 351 815
204 921 173
205 449 874
206 669 859
207 903 164
208 159 801
209 891 152
210 440 836
211 210 737
212 191 758
213 900 213
214 828 139
215 181 452
216 359 351
217 44 689
218 314 859
219 425 948
220 149 514
221 214 648
222 516 905
223 278 844
224 144 616
225 41 715
226 213 755
227 205 785
228 157 504
229 166 607
230 66 652
231 242 589
232 67 514
233 228 344
234 614 815
235 4 658
236 427 846
237 19 918
238 327 672
239 956 153
240 224 587
241 392 748
242 886 154
243 249 734
244 812 115
245 397 947
246 217 460
247 214 448
248 164 620
249 935 216
250 201 694
251 94 787
252 461 857
253 35 898
254 264 895
255 292 579
256 192 747
257 859 177
258 202 584
259 154 613
260 278 613
261 116 568
262 355 974
263 270 414
264 753 185
265 389 841
266 493 814
267 467 883
268 196 686
269 979 283
270 175 481
271 78 763
272 303 526
273 255 855
274 412 741
275 420 960
276 899 140
277 365 372
278 567 731
279 513 894
280 370 942
281 104 402
282 417 940
283 798 198
284 495 914
285 894 162
286 154 817
287 94 373
288 528 792
289 234 636
290 167 289
291 140 517
292 77 565
293 224 758
294 281 604
295 443 852
296 961 214
297 183 785
298 158 602
299 230 446
300 286 851
301 243 482
302 198 727
303 11 367
304 875 159
305 172 772
306 953 250
307 373 950
308 535 887
309 131 688
310 125 751
311 429 875
312 230 449
313 207 652
314 188 430
315 72 422
316 79 664
317 765 213
318 284 425
319 450 818
320 110 733
321 84 781
322 178 864
323 863 164
324 993 250
325 161 837
326 930 143
327 189 469
328 217 803
329 229 622
330 201 599
331 236 408
332 222 762
333 198 340
334 119 621
335 844 132
336 362 469
337 376 725
338 68 519
339 914 192
340 316 406
341 313 830
342 169 799
343 231 439
344 857 163
345 378 718
346 598 885
347 484 848
348 360 441
349 214 376
350 998 234
351 274 547
352 348 364
353 299 851
354 175 712
355 437 830
356 355 879
357 639 866
358 976 180
359 199 482
360 208 828
361 241 865
362 335 749
363 85 741
364 872 257
365 578 822
366 240 562
367 269 374
368 511 912
369 151 889
370 248 646
371 388 408
372 892 169
373 905 265
374 208 626
375 366 446
376 520 859
377 866 142
378 201 723
379 207 436
380 931 286
381 315 420
382 178 725
383 959 212
384 286 836
385 839 161
386 880 197
387 413 467
388 587 908
389 900 226
390 173 511
391 192 541
392 359 922
393 201 403
394 186 353
395 592 884
396 253 495
397 201 793
398 269 599
399 173 844
400 326 854
401 840 141
402 153 454
403 302 878
404 347 728
405 182 600
406 476 900
407 127 659
408 250 889
409 328 818
410 562 462
411 237 482
412 336 376
413 193 527
414 105 922
415 456 866
416 192 347
417 183 480
418 187 859
419 581 666
420 144 458
421 129 762
422 182 351
423 193 763
424 69 514
425 360 980
426 121 840
427 254 614
428 255 472
429 229 456
430 242 459
431 295 602
432 247 488
433 248 604
434 62 657
435 141 521
436 906 287
437 84 662
438 18 916
439 255 564
440 310 815
441 345 904
442 215 593
443 161 464
444 392 457
445 608 839
446 417 815
447 409 779
448 941 191
449 357 627
450 207 488
451 139 755
452 163 715
453 68 718
454 770 153
455 185 765
456 135 490
457 90 548
458 179 821
459 415 844
460 183 692
461 911 258
462 220 422
463 22 663
464 115 875
465 395 921
466 59 511
467 160 758
468 100 547
469 350 659
470 202 526
471 48 759
472 420 813
473 17 690
474 76 737
475 135 595
476 143 945
477 18 770
478 284 822
479 866 252
480 368 807
481 135 728
482 946 170
483 262 582
484 466 885
485 171 610
486 204 837
487 240 317
488 812 120
489 150 951
490 208 651
491 991 264
492 262 410
493 179 716
494 124 629
495 31 691
496 186 627
497 435 842
498 591 791
499 152 737
500 382 828
501 292 231
502 282 357
503 184 786
504 179 972
505 991 236
506 861 165
507 178 631
508 168 595
509 361 801
510 420 492
511 836 157
512 208 436
513 191 251
514 320 398
515 440 871
516 912 151
517 250 390
518 68 604
519 346 276
520 495 886
521 277 823
522 271 387
523 228 881
524 893 185
525 215 871
526 119 397
527 91 782
528 238 440
529 139 814
530 332 800
531 27 398
532 194 401
533 305 676
534 153 742
535 262 837
536 442 792
537 193 755
538 857 271
539 627 869
540 972 244
541 209 903
542 275 565
543 128 462
544 487 879
545 837 152
546 172 880
547 496 803
548 215 624
549 218 497
550 960 163
551 954 191
552 237 830
553 229 818
554 350 941
555 419 930
556 57 375
557 432 935
558 226 708
559 178 634
560 200 453
561 155 636
562 304 808
563 522 889
564 199 348
565 268 963
566 315 324
567 197 285
568 398 221
569 214 630
570 857 266
571 244 736
572 177 772
573 205 796
DEMAND_SECTION
2 25
3 94
4 71
5 59
6 35
7 5
8 45
9 40
10 6
11 72
12 23
13 93
14 13
15 83
16 26
17 11
18 6
19 91
20 68
21 7
22 75
23 31
24 33
25 86
26 42
27 43
28 77
29 35
30 74
31 37
32 55
33 49
34 18
35 72
36 69
37 72
38 72
39 65
40 51
41 71
42 69
43 23
44 58
45 28
46 91
47 4
48 2
49 62
50 11
51 94
52 1
53 76
54 56
55 21
56 57
57 24
58 95
59 84
60 54
61 6
62 55
63 10
64 87
65 94
66 55
67 42
68 14
69 70
70 79
71 40
72 32
73 1
74 57
75 21
76 78
77 33
78 82
79 8
80 54
81 11
82 49
83 23
84 83
85 26
86 21
87 86
88 83
COVERAGE_SECTION
2 6 374 569 221 490 313 34 
3 9 285 24 183 372 209 207 242 187 35 
4 9 74 100 150 171 423 455 297 503 572 
5 8 515 205 142 415 110 129 311 295 
6 9 299 122 312 343 7 247 429 528 73 
7 9 429 122 312 246 6 299 247 430 131 
8 8 190 255 170 191 542 351 431 272 
9 9 451 534 499 310 177 421 481 467 79 
10 9 397 92 573 227 171 503 297 100 4 
11 5 356 441 93 392 101 
12 9 75 115 304 35 183 323 24 242 506 
13 9 434 230 90 316 437 143 118 463 217 
14 9 545 385 511 401 344 72 189 506 158 
15 9 529 195 286 208 66 105 342 83 325 
16 9 446 472 37 355 102 459 236 497 210 
17 7 281 315 526 287 543 556 420 
18 9 204 326 516 482 187 207 30 133 126 
19 9 262 425 554 307 280 180 392 245 46 
20 9 162 360 328 573 553 130 397 486 10 
21 8 354 172 452 493 82 460 382 85 
22 8 39 241 447 509 98 337 362 480 
23 9 300 353 384 223 218 478 341 521 535 
24 9 3 183 285 372 242 209 35 207 12 
25 9 231 433 483 147 398 103 427 240 439 
26 9 540 49 88 505 296 306 383 324 350 
27 9 273 361 186 535 45 223 552 408 523 
28 9 134 427 147 80 433 173 260 398 294 
29 6 79 467 305 572 94 105 
30 9 149 516 276 207 209 187 3 285 24 
31 8 428 301 430 168 411 432 429 131 
32 9 327 196 163 560 215 52 417 359 270 
33 8 498 161 365 234 445 288 40 278 
34 9 60 106 89 374 496 2 548 569 507 
35 9 304 12 183 242 24 75 115 209 3 
36 9 99 203 54 98 530 409 509 480 440 
37 9 355 319 472 16 446 210 497 536 236 
38 7 321 271 471 527 251 81 477 
39 9 22 362 241 509 98 404 337 480 530 
40 8 109 539 445 357 346 395 234 365 
41 9 413 470 390 108 391 181 141 450 549 
42 9 531 315 466 303 17 556 232 424 338 
43 9 96 461 373 389 156 116 132 364 213 
44 9 48 71 211 571 558 226 243 378 84 
45 8 552 130 486 361 360 525 27 553 
46 9 245 282 165 465 307 275 280 555 219 
47 9 462 151 107 512 379 393 331 73 202 
48 9 44 71 211 571 243 293 558 226 378 
49 9 296 26 383 88 540 505 350 306 551 
50 9 456 420 543 443 402 228 270 220 291 
51 9 160 546 369 322 418 541 113 399 176 
52 9 359 450 327 417 32 163 131 196 270 
53 9 494 334 62 148 200 91 146 76 407 
54 9 99 530 36 409 203 98 509 440 341 
55 9 179 520 279 284 222 368 95 406 544 
56 9 58 454 264 135 139 283 121 317 72 
57 9 544 188 267 138 484 252 415 97 110 
58 9 56 454 283 72 139 158 135 214 511 
59 8 478 521 562 440 384 341 223 23 
60 9 106 34 89 330 154 374 185 496 548 
61 4 238 469 533 192 
62 9 146 76 200 494 224 53 148 561 334 
63 9 566 123 216 125 352 412 502 277 519 
64 7 97 347 169 266 376 138 547 
65 9 289 329 569 117 548 221 370 80 374 
66 9 105 195 208 342 29 305 79 15 467 
67 9 522 367 70 502 152 111 517 125 263 
68 9 259 248 229 119 224 298 485 76 561 
69 7 249 213 339 389 145 448 156 
70 9 111 67 522 340 263 318 514 381 492 
71 9 44 48 211 226 293 571 332 84 378 
72 9 158 545 214 511 401 385 14 335 189 
73 9 184 379 512 247 107 560 6 163 122 
74 9 4 150 423 171 227 455 100 212 10 
75 9 115 12 304 35 183 24 323 372 506 
76 9 224 62 146 200 259 68 561 148 494 
77 8 468 457 261 292 128 167 182 338 
78 8 127 444 375 348 371 112 387 336 
79 5 29 467 305 94 572 
80 9 117 28 134 370 427 173 289 65 329 
81 8 474 471 453 363 271 201 225 38 
82 9 493 354 21 460 172 250 382 268 378 
83 9 325 458 286 399 208 342 529 15 92 
84 9 302 211 256 378 537 212 226 382 71 
85 7 452 104 21 172 354 481 309 
86 7 564 333 416 394 233 422 349 
87 9 140 253 438 237 178 464 38 176 426 
88 9 505 350 26 49 540 324 296 491 383 
89 9 374 106 548 34 569 60 2 185 329 
90 9 13 434 230 463 143 316 118 217 437 
91 7 407 53 136 494 62 146 309 
92 9 10 503 397 297 171 100 573 227 342 
93 6 392 11 441 465 280 356 
94 4 467 79 29 256 
95 9 222 368 279 179 563 55 284 308 153 
96 9 43 461 156 373 132 389 116 213 69 
97 8 347 57 138 64 252 544 415 376 
98 9 509 480 203 99 36 54 530 500 39 
99 9 36 203 54 530 98 509 409 480 440 
100 9 171 297 503 4 572 74 305 10 92 
101 8 400 218 356 341 409 203 36 353 
102 9 446 500 16 472 265 166 164 459 480 
103 8 439 483 366 542 25 170 231 191 
104 6 481 85 499 452 9 534 
105 9 66 195 208 29 305 342 79 15 467 
106 9 60 89 34 374 548 185 330 569 154 
107 8 379 512 184 73 314 47 462 247 
108 7 141 181 391 470 413 41 114 
109 7 40 346 395 539 357 445 388 
110 6 142 205 267 415 484 5 
111 8 70 340 381 514 318 67 263 522 
112 6 336 375 348 444 78 127 
113 7 541 504 489 51 476 546 369 
114 3 549 470 41 
115 9 75 12 304 183 24 35 372 323 3 
116 5 389 213 43 386 69 
117 7 370 80 289 65 173 329 28 
118 7 518 230 13 434 90 437 316 
119 9 248 68 507 559 485 561 259 229 496 
120 5 335 401 377 214 14 
121 9 135 264 454 144 56 137 58 317 139 
122 9 312 7 6 299 429 247 246 343 528 
123 6 125 502 566 63 367 152 
124 8 436 380 373 461 538 364 43 570 
125 7 502 123 367 67 566 152 63 
126 8 133 239 175 326 550 482 18 516 
127 7 371 78 348 375 444 112 277 
128 7 261 475 167 468 77 457 292 
129 9 295 5 515 415 497 142 205 252 199 
130 6 553 552 360 20 45 162 
131 8 246 7 411 429 122 301 450 31 
132 9 156 306 96 249 461 43 26 69 373 
133 8 126 239 175 326 550 482 18 516 
134 9 28 173 427 147 260 80 398 294 433 
135 9 121 454 264 56 144 58 137 139 317 
136 5 309 407 91 85 172 
137 7 144 121 135 454 264 56 58 
138 9 544 520 57 97 188 347 55 376 267 
139 5 283 317 56 264 58 
140 8 253 87 237 438 178 414 464 176 
141 6 181 108 391 413 470 41 
142 8 205 5 110 415 515 129 267 484 
143 6 316 217 434 437 230 13 
144 7 137 121 135 454 264 56 58 
145 6 339 524 213 386 69 372 
146 8 62 76 561 224 200 494 68 259 
147 9 398 28 427 134 260 433 294 25 483 
148 9 200 334 494 62 53 224 76 475 146 
149 9 30 276 516 209 3 207 285 242 187 
150 9 423 455 212 4 74 537 572 100 171 
151 8 393 47 532 202 462 107 331 379 
152 6 367 517 522 67 502 125 
153 6 284 179 368 55 222 95 
154 8 330 185 258 60 405 442 106 34 
155 9 242 209 276 35 377 183 304 149 3 
156 9 132 96 461 43 249 306 69 389 373 
157 8 194 227 332 74 293 397 573 226 
158 8 214 72 401 545 511 335 14 385 
159 9 477 201 471 81 225 38 473 271 474 
160 9 546 51 369 322 418 399 325 176 464 
161 8 365 33 498 234 445 40 288 109 
162 9 20 328 573 360 397 553 10 92 130 
163 9 560 32 246 196 247 184 73 327 52 
164 6 265 459 500 236 199 16 
165 4 465 555 282 46 
166 7 447 472 446 102 536 16 37 
167 6 261 128 435 468 77 291 
168 7 430 31 428 429 312 299 528 
169 5 266 547 64 288 347 
170 9 542 191 255 8 351 483 103 439 190 
171 9 100 297 503 4 10 572 74 92 150 
172 8 21 460 354 82 452 493 85 268 
173 5 134 28 80 260 427 
174 7 180 403 441 254 11 218 392 
175 7 126 133 326 239 18 516 550 
176 9 464 178 369 426 160 414 51 546 325 
177 5 421 310 451 9 320 
178 9 464 426 176 140 529 369 15 325 87 
179 9 284 368 55 222 95 279 153 520 406 
180 7 174 554 441 392 403 565 11 
181 6 141 108 391 413 470 41 
182 4 292 457 468 77 
183 9 24 3 242 285 35 209 372 12 304 
184 9 73 379 512 247 107 560 163 6 314 
185 9 330 442 154 106 60 258 89 240 34 
186 9 408 361 27 254 273 523 525 45 535 
187 8 207 285 3 372 204 516 24 30 
188 7 267 484 406 544 57 520 110 
189 7 385 344 257 506 511 14 323 
190 8 8 255 191 170 542 272 351 431 
191 9 170 542 351 8 255 190 439 103 483 
192 7 404 345 337 61 238 469 362 
193 8 206 357 539 40 109 346 445 395 
194 7 157 332 227 293 226 74 397 
195 8 66 105 15 208 529 286 342 421 
196 8 32 215 327 560 163 184 417 52 
197 6 568 519 501 216 63 566 
198 9 269 491 324 540 505 350 88 306 26 
199 7 311 236 515 129 5 295 459 
200 9 148 224 62 76 334 494 146 53 259 
201 9 159 471 477 81 225 38 474 453 271 
202 8 151 349 393 331 47 532 462 517 
203 9 36 99 98 54 509 480 409 530 500 
204 8 18 187 207 339 516 482 448 30 
205 8 142 5 110 515 415 129 267 311 
206 9 193 357 539 40 109 445 234 346 395 
207 9 187 285 3 372 24 30 516 183 209 
208 9 342 66 286 105 15 195 529 83 458 
209 9 242 3 183 285 24 149 35 155 276 
210 9 355 497 236 295 37 129 319 16 459 
211 9 71 84 44 48 302 378 226 256 293 
212 7 537 423 150 455 256 74 4 
213 5 389 116 69 145 339 
214 8 158 72 401 545 335 511 14 385 
215 7 196 32 327 560 163 314 443 
216 8 352 277 412 63 566 514 371 125 
217 8 495 143 225 473 463 434 13 453 
218 8 400 353 403 23 101 300 341 384 
219 7 282 275 557 555 46 245 165 
220 8 291 435 228 390 456 50 167 270 
221 3 490 313 2 
222 9 95 368 279 179 563 55 284 308 520 
223 9 300 384 23 535 521 353 478 273 27 
224 9 76 259 200 68 62 146 148 248 298 
225 8 217 495 453 81 473 201 474 143 
226 9 293 332 71 211 537 194 212 256 423 
227 9 397 10 573 74 157 4 194 92 171 
228 9 220 390 291 435 456 270 50 417 41 
229 8 485 298 68 508 248 259 405 119 
230 7 434 13 316 90 437 118 143 
231 9 25 433 240 483 103 366 442 147 427 
232 8 424 338 466 457 77 468 182 292 
233 5 86 564 333 487 349 
234 9 445 161 33 498 365 40 539 357 109 
235 9 463 473 90 495 217 13 434 230 143 
236 8 497 459 199 210 295 129 355 16 
237 8 438 253 140 87 414 178 464 176 
238 3 61 533 469 
239 8 550 126 133 482 326 18 175 358 
240 9 442 231 185 258 25 330 154 433 366 
241 7 274 22 337 345 39 447 404 
242 9 209 183 35 3 24 285 304 155 12 
243 4 571 48 44 71 
244 6 488 214 158 335 72 401 
245 9 46 282 307 165 275 465 280 219 555 
246 9 7 247 122 429 131 163 6 312 560 
247 9 73 6 184 122 246 512 7 379 163 
248 9 119 68 259 485 229 507 561 298 224 
249 9 69 383 156 296 448 132 551 339 213 
250 6 268 460 82 378 558 172 
251 4 527 321 271 38 
252 9 415 129 295 57 142 205 5 110 347 
253 8 438 140 237 87 414 178 464 176 
254 7 408 186 361 523 27 273 403 
255 8 8 170 191 542 190 431 294 398 
256 7 537 212 84 423 94 150 455 
257 8 506 323 344 189 75 115 12 304 
258 7 154 330 442 185 240 405 60 
259 9 68 224 248 298 229 76 119 485 200 
260 8 294 134 147 398 28 431 173 427 
261 6 128 167 468 77 457 475 
262 9 425 19 307 554 280 245 46 392 180 
263 5 492 318 70 522 111 
264 9 121 135 56 317 139 454 58 283 144 
265 7 164 500 102 459 16 236 446 
266 3 547 169 64 
267 6 484 188 110 57 142 406 
268 3 250 460 82 
269 9 198 491 324 540 306 380 26 505 88 
270 9 417 327 443 32 359 52 196 228 215 
271 8 321 363 527 38 474 251 81 471 
272 4 190 351 8 191 
273 9 27 361 535 186 223 45 300 552 408 
274 5 241 447 337 345 22 
275 6 219 282 245 46 557 555 
276 9 149 30 209 155 516 242 3 285 207 
277 8 352 216 412 371 127 514 63 340 
278 6 498 419 33 288 161 365 
279 9 563 222 95 55 179 368 520 308 284 
280 8 307 554 392 46 245 93 465 262 
281 6 526 17 287 315 556 543 
282 8 555 219 557 275 46 245 165 465 
283 4 139 56 58 317 
284 7 179 153 55 368 222 406 95 
285 9 3 24 372 183 207 209 242 187 35 
286 9 529 83 15 208 325 342 458 195 66 
287 6 281 526 556 17 315 531 
288 6 169 547 266 64 365 33 
289 8 65 117 329 370 80 569 548 221 
290 9 567 513 333 416 422 394 564 86 487 
291 7 435 220 228 456 390 167 50 
292 6 182 457 468 77 128 261 
293 8 332 226 194 71 157 48 211 44 
294 7 260 398 431 147 134 28 255 
295 9 129 497 210 236 5 252 415 515 199 
296 9 383 49 26 551 249 448 88 540 306 
297 9 503 100 171 4 92 10 572 305 74 
298 7 229 259 508 68 485 248 224 
299 8 312 6 122 343 429 528 7 247 
300 9 23 223 353 384 535 218 478 521 273 
301 7 411 432 31 396 428 131 430 
302 9 378 84 211 382 256 493 82 44 71 
303 8 531 556 42 315 287 281 17 526 
304 9 35 12 75 183 115 242 323 506 24 
305 8 572 29 79 100 455 171 297 467 
306 9 132 540 26 156 49 296 88 249 383 
307 9 280 245 46 554 262 392 425 465 93 
308 8 563 279 95 222 376 368 55 179 
309 5 136 85 407 91 104 
310 7 177 421 451 9 320 481 534 
311 6 515 199 5 205 142 129 
312 9 299 122 6 429 7 343 528 247 430 
313 3 490 221 2 
314 5 107 379 184 512 73 
315 8 17 281 556 531 526 287 42 543 
316 6 437 230 434 143 13 90 
317 5 139 264 283 56 121 
318 4 263 111 492 70 
319 4 37 355 210 536 
320 6 310 481 363 177 104 9 
321 5 527 251 271 38 363 
322 9 418 546 160 399 325 51 369 486 525 
323 9 506 344 12 304 257 75 35 115 189 
324 9 491 505 350 88 540 26 198 49 269 
325 9 83 399 286 458 322 529 418 15 208 
326 9 133 18 126 175 516 30 149 239 204 
327 9 32 196 417 52 359 163 270 215 560 
328 7 162 20 573 397 553 227 10 
329 9 65 548 289 569 89 374 80 106 427 
330 9 154 185 60 258 442 106 405 89 34 
331 7 462 47 202 517 492 151 343 
332 7 293 226 194 157 71 74 211 
333 8 564 416 86 394 422 233 349 487 
334 8 148 494 53 200 62 76 224 146 
335 8 401 120 214 158 14 545 72 377 
336 5 112 375 348 444 78 
337 8 345 192 241 404 274 22 39 362 
338 8 232 424 466 457 77 468 182 292 
339 7 145 69 204 524 213 187 448 
340 6 514 381 111 70 412 318 
341 9 440 409 562 353 400 23 384 218 478 
342 9 208 92 297 503 66 100 105 286 171 
343 8 299 528 6 312 122 429 7 247 
344 9 506 323 189 257 14 304 385 12 75 
345 8 337 192 241 404 274 22 39 362 
346 6 395 109 388 40 539 357 
347 8 97 57 64 138 252 544 415 266 
348 6 375 112 127 336 78 444 
349 7 202 86 393 151 532 564 233 
350 9 505 88 324 26 540 49 491 296 383 
351 6 191 542 170 439 103 8 
352 8 216 412 277 63 514 566 340 371 
353 9 23 300 218 384 223 341 400 403 478 
354 8 493 21 452 82 382 172 460 85 
355 9 210 37 497 319 236 16 295 472 446 
356 6 11 441 101 93 400 392 
357 9 539 40 206 109 445 346 193 395 234 
358 8 550 551 482 239 383 296 448 49 
359 9 52 450 327 417 32 163 270 549 131 
360 9 486 20 162 130 553 45 328 552 458 
361 9 27 186 273 523 45 408 525 535 552 
362 4 404 39 22 192 
363 5 474 271 320 81 453 
364 8 479 570 538 43 373 116 461 96 
365 8 161 33 445 498 234 40 288 109 
366 6 439 103 231 240 483 25 
367 7 152 67 522 502 517 125 70 
368 9 95 179 222 284 55 279 153 563 520 
369 9 160 51 546 176 322 464 418 399 325 
370 5 117 80 289 65 173 
371 8 127 78 277 348 375 444 112 352 
372 9 24 285 3 183 207 115 75 187 12 
373 9 461 43 96 436 156 380 364 132 389 
374 9 89 548 569 34 2 106 60 329 496 
375 6 348 112 336 78 127 444 
376 8 64 138 563 308 97 279 520 347 
377 8 155 35 304 323 242 344 14 120 
378 9 302 84 211 82 382 493 44 71 256 
379 9 512 73 184 107 247 560 462 6 47 
380 9 436 373 461 124 306 96 132 156 43 
381 5 340 111 514 318 70 
382 6 493 354 452 302 21 82 
383 9 296 49 551 249 26 448 88 540 358 
384 9 223 23 478 300 521 353 59 535 341 
385 9 511 545 14 189 72 344 401 158 506 
386 5 524 145 115 213 75 
387 8 444 510 78 112 336 375 127 348 
388 4 346 395 109 40 
389 5 116 213 43 69 96 
390 9 228 41 220 413 270 417 470 291 435 
391 6 181 108 141 413 470 41 
392 7 93 554 280 441 11 307 465 
393 6 151 532 47 202 107 462 
394 6 422 416 564 333 86 349 
395 6 346 109 388 40 539 445 
396 5 432 301 411 428 31 
397 9 10 573 227 92 503 162 171 328 74 
398 9 147 294 260 483 25 28 427 134 433 
399 9 325 83 322 418 458 486 286 160 546 
400 9 218 101 341 353 403 23 409 356 300 
401 9 335 545 214 14 158 72 511 385 120 
402 7 420 443 50 543 215 196 270 
403 8 218 353 300 174 23 400 223 254 
404 5 192 362 337 345 39 
405 7 485 508 154 229 330 60 298 
406 6 188 484 267 55 284 520 
407 7 91 136 53 309 494 146 62 
408 8 186 254 523 361 27 273 525 541 
409 9 54 440 530 36 99 341 203 562 400 
410 4 510 387 444 78 
411 6 301 432 31 131 396 428 
412 8 352 514 277 216 340 63 111 70 
413 8 470 41 108 391 181 141 390 114 
414 8 476 176 464 489 140 369 178 51 
415 9 142 252 205 110 5 129 515 295 57 
416 7 564 394 333 422 86 233 349 
417 9 270 327 359 52 32 196 450 443 215 
418 9 322 399 546 486 160 525 325 360 83 
419 3 278 498 33 
420 8 402 543 50 443 456 215 270 196 
421 6 177 310 451 9 467 534 
422 6 394 416 564 333 86 349 
423 8 150 212 455 537 74 4 256 572 
424 8 232 338 466 457 77 468 182 292 
425 9 262 19 307 280 554 245 46 392 275 
426 9 178 529 464 15 176 286 325 83 195 
427 9 28 147 433 134 80 398 25 260 173 
428 7 31 301 168 430 432 411 396 
429 9 7 122 312 299 6 246 430 168 247 
430 8 168 31 429 7 312 122 299 428 
431 6 294 260 255 398 147 8 
432 5 301 396 411 31 428 
433 9 427 25 147 231 28 398 134 329 483 
434 8 230 13 90 316 437 143 118 217 
435 7 291 220 228 456 167 390 50 
436 8 373 124 380 461 43 96 364 156 
437 6 316 230 434 143 13 118 
438 8 237 253 140 87 414 178 464 176 
439 8 103 366 483 542 170 351 191 25 
440 9 562 341 409 59 54 478 530 384 521 
441 6 11 392 93 356 174 554 
442 9 185 240 330 258 154 106 60 231 89 
443 9 402 420 50 270 215 417 196 327 32 
444 8 78 387 112 375 336 348 127 510 
445 9 40 234 109 365 539 161 357 346 33 
446 9 472 16 37 102 166 355 459 210 497 
447 6 166 241 536 472 446 22 
448 9 551 482 249 204 339 383 69 296 18 
449 2 469 61 
450 6 359 52 549 131 417 327 
451 9 9 421 177 310 534 467 499 79 29 
452 7 354 21 85 493 382 172 82 
453 6 474 81 225 363 143 217 
454 9 56 135 58 121 264 139 283 488 144 
455 8 150 423 212 572 4 537 74 305 
456 9 50 228 291 220 543 435 420 443 402 
457 9 77 468 292 182 261 128 338 424 232 
458 9 83 325 342 399 286 92 208 360 486 
459 8 236 164 497 16 199 210 265 355 
460 7 172 82 268 21 250 354 493 
461 9 373 96 43 156 132 436 380 389 364 
462 9 47 512 107 379 343 151 331 73 6 
463 9 235 90 473 495 217 13 434 230 143 
464 9 176 178 426 369 414 160 51 140 546 
465 4 165 46 245 555 
466 7 232 424 338 457 77 182 468 
467 5 79 29 94 534 305 
468 8 77 457 261 292 128 167 182 338 
469 5 61 238 449 192 533 
470 7 413 108 41 181 141 391 114 
471 9 81 201 38 271 477 474 159 363 321 
472 9 446 16 37 166 102 355 210 319 536 
473 9 495 217 463 225 235 90 143 13 434 
474 6 363 81 453 271 320 471 
475 8 148 200 224 298 259 76 128 68 
476 8 489 414 504 113 51 369 160 546 
477 9 159 201 471 38 81 225 271 321 474 
478 8 521 59 384 223 562 23 440 535 
479 5 364 570 538 116 43 
480 9 98 509 203 36 99 500 54 102 530 
481 7 104 9 499 534 310 320 85 
482 9 550 18 239 448 551 204 133 126 326 
483 9 103 25 398 439 231 542 170 147 433 
484 6 267 188 110 57 406 142 
485 8 229 248 68 298 405 508 119 259 
486 9 360 20 45 162 130 418 458 553 399 
487 6 233 86 333 123 564 567 
488 6 244 214 158 72 335 401 
489 8 476 504 113 414 51 369 160 546 
490 3 313 221 2 
491 9 324 198 269 505 540 350 88 26 306 
492 6 263 517 522 331 318 70 
493 8 354 382 82 21 452 172 302 378 
494 9 53 334 62 148 200 146 76 224 91 
495 9 217 473 225 463 143 90 235 13 434 
496 9 507 559 34 60 119 2 106 374 248 
497 9 210 236 355 295 129 459 199 37 16 
498 8 33 161 234 365 445 288 278 40 
499 5 534 9 481 104 451 
500 8 265 102 480 164 98 203 509 16 
501 7 519 566 123 487 513 568 63 
502 6 125 367 67 123 152 522 
503 9 297 171 100 92 4 10 572 74 305 
504 6 489 113 476 541 51 369 
505 9 88 350 324 26 540 49 491 296 306 
506 9 323 344 257 12 304 189 75 115 35 
507 7 559 496 119 248 34 485 561 
508 6 229 298 405 485 68 259 
509 9 98 480 203 99 36 54 530 500 39 
510 6 387 444 336 78 112 375 
511 9 385 545 14 72 189 401 158 214 344 
512 9 379 73 184 107 247 462 6 47 560 
513 8 567 290 487 333 416 86 564 233 
514 7 340 111 381 412 70 67 352 
515 9 5 205 142 311 129 110 199 415 295 
516 9 30 149 187 207 276 18 326 3 209 
517 7 522 152 331 492 367 67 202 
518 7 118 182 292 230 13 90 128 
519 9 566 63 501 216 568 123 352 125 277 
520 9 544 55 138 188 279 179 406 57 563 
521 7 478 59 384 223 535 23 300 
522 9 67 367 517 152 70 492 263 111 502 
523 9 525 361 186 408 541 27 45 273 254 
524 7 145 372 386 115 24 75 339 
525 9 523 45 361 418 541 186 486 322 27 
526 4 281 17 287 315 
527 4 251 321 271 38 
528 7 343 299 312 6 122 429 168 
529 9 15 286 195 208 83 66 325 426 105 
530 9 54 99 36 409 203 440 98 509 562 
531 8 303 556 42 315 17 287 281 526 
532 5 393 151 202 47 107 
533 2 238 61 
534 5 499 9 467 451 94 
535 6 223 273 521 27 384 552 
536 2 37 319 
537 7 212 256 423 150 455 74 84 
538 6 570 364 479 373 43 436 
539 9 357 40 109 346 445 395 206 234 388 
540 9 26 88 306 505 324 49 350 491 296 
541 8 523 525 113 51 408 546 186 418 
542 8 170 191 351 103 439 483 255 8 
543 9 420 50 402 456 443 228 270 17 215 
544 8 138 520 57 188 267 484 55 406 
545 9 511 14 72 385 401 158 214 189 335 
546 9 160 51 322 369 418 399 325 525 541 
547 4 266 169 288 64 
548 9 569 89 374 106 329 2 34 65 60 
549 5 450 114 359 411 52 
550 8 239 482 133 126 358 551 18 448 
551 9 448 383 482 296 358 550 249 49 204 
552 4 130 553 45 535 
553 5 130 552 328 20 162 
554 9 280 392 307 262 441 93 180 425 19 
555 7 282 557 165 219 465 46 245 
556 8 287 531 303 315 281 17 526 42 
557 6 555 219 282 275 165 46 
558 5 44 48 250 378 71 
559 7 507 496 119 248 34 561 485 
560 9 163 184 196 32 73 247 246 379 215 
561 7 146 119 76 248 62 68 224 
562 9 440 59 341 478 409 530 521 54 384 
563 9 279 308 222 95 55 368 520 179 376 
564 7 86 416 333 394 422 233 349 
565 5 180 174 254 19 408 
566 8 63 123 125 502 216 352 412 519 
567 8 290 513 487 333 416 86 564 233 
568 7 197 519 501 566 63 216 352 
569 9 548 374 89 2 65 329 34 106 221 
570 6 538 364 479 373 43 116 
571 5 243 48 44 71 293 
572 8 305 100 455 171 4 297 150 503 
573 9 397 10 227 328 162 92 20 157 503 
DEPOT_SECTION
   1
   -1
EOF
