NAME :  X-n837-kX-w334-c7.cctp
COMMENT : 	Adapted by Maziero, Usberti and Cavellucci from the Uchoa, Pecin, Pessoa, Poggi, Subramanian, and Vidal (2013)
TYPE :  CCTP
DIMENSION :    762
EDGE_WEIGHT_TYPE : 	EUC_2D	
CAPACITY : 	44
VERTICES_WITHIN_COVERAGE :  7
VERTICES_WITH_DEMAND : 	334
NODE_COORD_SECTION
1 940 231
2 721 848
3 618 44
4 993 145
5 636 512
6 274 496
7 245 945
8 449 812
9 29 650
10 399 8
11 548 19
12 769 717
13 221 850
14 980 233
15 477 922
16 498 720
17 136 832
18 351 663
19 58 67
20 889 569
21 28 334
22 804 928
23 900 138
24 393 403
25 982 609
26 79 299
27 684 582
28 169 252
29 405 925
30 875 191
31 674 112
32 576 537
33 539 63
34 338 657
35 210 209
36 676 568
37 949 826
38 572 890
39 210 615
40 737 46
41 30 527
42 131 724
43 671 842
44 727 566
45 507 497
46 524 134
47 167 665
48 819 108
49 929 582
50 713 738
51 352 626
52 887 547
53 176 645
54 611 289
55 457 532
56 11 147
57 958 60
58 587 187
59 790 956
60 974 63
61 306 225
62 961 969
63 238 736
64 758 840
65 88 44
66 507 811
67 768 476
68 51 914
69 494 445
70 953 33
71 922 45
72 748 111
73 544 867
74 477 596
75 322 79
76 439 150
77 586 764
78 214 599
79 168 480
80 925 138
81 797 107
82 751 783
83 738 913
84 703 73
85 681 886
86 627 27
87 887 310
88 478 345
89 571 600
90 834 858
91 549 370
92 657 233
93 126 769
94 317 934
95 237 55
96 851 409
97 838 426
98 477 559
99 542 94
100 370 432
101 520 621
102 666 178
103 631 484
104 733 255
105 820 918
106 687 877
107 752 983
108 157 720
109 709 898
110 300 878
111 728 617
112 66 59
113 991 657
114 717 47
115 463 177
116 586 397
117 792 307
118 100 392
119 438 722
120 43 247
121 71 476
122 69 560
123 211 73
124 471 14
125 115 806
126 194 337
127 921 320
128 104 495
129 36 456
130 500 152
131 782 316
132 881 374
133 277 601
134 962 575
135 588 181
136 941 728
137 108 931
138 11 814
139 209 800
140 129 525
141 126 149
142 31 219
143 97 324
144 495 122
145 759 480
146 859 782
147 780 669
148 786 769
149 759 159
150 282 633
151 361 17
152 957 103
153 711 939
154 544 544
155 27 318
156 665 656
157 523 586
158 842 429
159 539 783
160 769 347
161 937 386
162 824 841
163 738 391
164 833 988
165 16 637
166 91 472
167 41 388
168 623 780
169 660 155
170 700 658
171 946 783
172 607 815
173 87 771
174 658 874
175 527 853
176 459 577
177 352 829
178 427 235
179 937 639
180 554 438
181 833 692
182 421 999
183 908 447
184 469 163
185 737 238
186 509 61
187 246 352
188 488 408
189 600 359
190 510 460
191 342 691
192 95 216
193 787 465
194 700 873
195 659 568
196 478 525
197 988 980
198 303 119
199 241 353
200 28 661
201 724 842
202 2 660
203 210 180
204 840 841
205 843 9
206 430 92
207 265 453
208 209 673
209 20 952
210 673 659
211 185 335
212 138 655
213 263 155
214 769 741
215 325 260
216 831 678
217 401 625
218 212 360
219 118 426
220 192 520
221 596 376
222 449 679
223 579 295
224 333 352
225 837 944
226 377 500
227 797 97
228 65 235
229 440 877
230 849 769
231 439 326
232 407 621
233 550 241
234 169 68
235 253 243
236 76 852
237 642 116
238 598 124
239 564 374
240 997 660
241 14 98
242 845 303
243 774 9
244 791 671
245 299 800
246 575 109
247 865 708
248 290 897
249 953 348
250 906 692
251 895 790
252 25 242
253 761 886
254 909 336
255 501 846
256 731 4
257 337 71
258 106 973
259 400 229
260 846 368
261 623 580
262 978 669
263 884 559
264 10 910
265 390 602
266 451 134
267 324 221
268 569 98
269 735 341
270 411 220
271 672 867
272 69 790
273 584 520
274 193 416
275 954 912
276 761 734
277 192 875
278 88 353
279 777 38
280 98 68
281 642 658
282 838 305
283 824 694
284 238 825
285 344 138
286 137 683
287 357 593
288 541 423
289 537 99
290 137 539
291 719 213
292 68 173
293 788 339
294 939 69
295 826 300
296 86 779
297 492 174
298 96 108
299 674 364
300 566 830
301 371 935
302 119 629
303 840 180
304 678 310
305 979 466
306 970 249
307 975 291
308 298 94
309 192 630
310 560 724
311 310 503
312 506 445
313 720 806
314 259 450
315 156 388
316 81 518
317 597 384
318 388 967
319 399 787
320 11 859
321 688 276
322 721 451
323 3 300
324 983 902
325 184 404
326 984 221
327 514 801
328 887 476
329 106 208
330 356 238
331 552 923
332 318 297
333 803 145
334 974 602
335 316 566
336 73 473
337 448 186
338 86 398
339 653 3
340 548 316
341 239 470
342 717 351
343 762 276
344 434 39
345 420 378
346 141 122
347 805 572
348 769 874
349 909 440
350 875 676
351 393 561
352 38 852
353 105 958
354 504 740
355 840 804
356 62 24
357 360 375
358 199 310
359 661 252
360 484 955
361 481 777
362 208 145
363 74 749
364 277 225
365 223 388
366 353 272
367 504 527
368 242 931
369 801 74
370 538 483
371 510 183
372 377 842
373 244 834
374 115 811
375 37 611
376 30 147
377 658 235
378 109 856
379 950 351
380 34 512
381 937 779
382 840 77
383 541 308
384 470 783
385 890 127
386 672 450
387 321 779
388 658 358
389 875 663
390 719 972
391 893 283
392 86 437
393 45 423
394 119 237
395 199 550
396 221 723
397 613 950
398 357 566
399 582 795
400 815 464
401 329 481
402 223 90
403 144 199
404 819 300
405 778 769
406 960 581
407 891 760
408 869 582
409 762 952
410 129 544
411 891 765
412 341 202
413 279 754
414 152 677
415 262 932
416 114 684
417 563 354
418 527 584
419 322 73
420 562 370
421 392 609
422 407 91
423 736 268
424 598 496
425 292 92
426 108 661
427 433 748
428 331 889
429 240 788
430 341 127
431 258 809
432 519 923
433 326 931
434 391 274
435 117 800
436 353 801
437 202 115
438 323 190
439 44 588
440 326 102
441 446 362
442 469 593
443 117 93
444 764 469
445 595 304
446 511 582
447 552 544
448 267 814
449 82 52
450 505 535
451 232 30
452 234 71
453 296 920
454 39 226
455 348 79
456 513 307
457 528 254
458 333 16
459 382 971
460 532 444
461 451 579
462 380 524
463 64 69
464 95 739
465 483 514
466 750 328
467 497 64
468 286 695
469 248 949
470 375 378
471 465 221
472 665 270
473 366 0
474 254 885
475 237 52
476 573 528
477 355 35
478 326 743
479 147 77
480 120 742
481 542 619
482 352 892
483 91 80
484 538 87
485 902 274
486 654 479
487 313 817
488 195 998
489 115 52
490 364 134
491 274 243
492 174 77
493 213 892
494 128 133
495 449 314
496 556 888
497 321 786
498 600 669
499 324 50
500 342 957
501 286 100
502 430 128
503 207 933
504 468 125
505 175 709
506 118 633
507 162 859
508 51 47
509 53 761
510 134 680
511 442 125
512 616 462
513 444 691
514 40 840
515 464 616
516 127 21
517 285 942
518 79 85
519 164 732
520 802 300
521 601 607
522 340 363
523 133 689
524 414 154
525 77 257
526 413 193
527 964 400
528 410 533
529 461 585
530 410 716
531 181 164
532 150 224
533 446 55
534 241 697
535 395 26
536 441 90
537 451 196
538 136 5
539 507 75
540 398 622
541 352 730
542 305 69
543 349 122
544 387 251
545 105 616
546 355 120
547 751 566
548 249 494
549 209 637
550 345 960
551 413 673
552 130 914
553 274 911
554 780 402
555 140 61
556 246 922
557 282 106
558 245 939
559 484 170
560 542 595
561 331 165
562 534 437
563 139 685
564 780 618
565 689 306
566 22 4
567 436 370
568 171 660
569 764 567
570 594 247
571 255 840
572 495 395
573 579 590
574 86 560
575 378 926
576 540 352
577 249 45
578 601 470
579 723 669
580 457 108
581 77 759
582 289 292
583 136 898
584 213 165
585 455 745
586 642 706
587 608 601
588 556 353
589 515 475
590 263 868
591 186 643
592 443 30
593 246 21
594 634 512
595 655 385
596 144 764
597 693 342
598 460 151
599 555 359
600 327 83
601 345 249
602 115 82
603 530 192
604 213 657
605 597 751
606 518 599
607 414 97
608 324 43
609 102 914
610 603 302
611 480 125
612 189 49
613 561 541
614 424 174
615 542 198
616 276 191
617 263 655
618 468 282
619 336 851
620 59 564
621 521 545
622 516 627
623 554 621
624 313 731
625 300 98
626 412 189
627 242 77
628 201 388
629 503 99
630 384 327
631 512 898
632 278 136
633 375 11
634 339 132
635 318 181
636 482 548
637 137 621
638 67 799
639 620 405
640 45 758
641 155 793
642 249 50
643 205 733
644 559 485
645 554 130
646 599 693
647 365 919
648 544 449
649 297 100
650 355 64
651 473 164
652 34 929
653 150 787
654 543 575
655 178 253
656 690 409
657 55 99
658 242 68
659 112 800
660 519 123
661 255 885
662 346 372
663 55 79
664 470 430
665 109 474
666 121 716
667 46 87
668 276 162
669 388 31
670 627 292
671 105 831
672 196 879
673 70 101
674 462 77
675 182 429
676 644 337
677 461 727
678 611 551
679 250 928
680 330 168
681 605 605
682 116 708
683 257 883
684 593 306
685 335 249
686 113 146
687 631 430
688 251 203
689 349 223
690 549 148
691 99 354
692 65 569
693 446 265
694 174 66
695 571 482
696 599 697
697 546 563
698 197 184
699 316 899
700 603 611
701 792 373
702 182 925
703 240 583
704 142 783
705 684 693
706 269 748
707 646 519
708 268 693
709 213 33
710 111 771
711 61 608
712 658 591
713 370 288
714 312 448
715 210 48
716 679 342
717 180 107
718 539 169
719 18 18
720 248 946
721 565 83
722 198 787
723 518 10
724 71 769
725 554 356
726 64 665
727 219 644
728 637 463
729 415 133
730 190 59
731 301 863
732 747 120
733 274 803
734 422 236
735 469 369
736 591 776
737 657 311
738 375 17
739 496 587
740 332 242
741 571 590
742 236 921
743 439 545
744 114 190
745 656 228
746 526 747
747 340 132
748 202 580
749 238 966
750 513 551
751 163 299
752 141 898
753 306 117
754 264 956
755 575 460
756 60 249
757 415 82
758 667 557
759 266 960
760 567 423
761 348 955
762 345 144
DEMAND_SECTION
2 7
3 9
4 6
5 7
6 6
7 8
8 9
9 5
10 8
11 10
12 7
13 5
14 7
15 10
16 6
17 5
18 5
19 7
20 6
21 10
22 8
23 10
24 9
25 6
26 10
27 10
28 10
29 10
30 5
31 7
32 8
33 9
34 5
35 7
36 10
37 9
38 6
39 7
40 6
41 7
42 7
43 9
44 6
45 8
46 6
47 5
48 7
49 6
50 7
51 6
52 10
53 6
54 7
55 6
56 7
57 5
58 6
59 9
60 7
61 7
62 8
63 9
64 10
65 10
66 8
67 8
68 5
69 9
70 9
71 10
72 9
73 7
74 10
75 5
76 5
77 10
78 8
79 8
80 10
81 6
82 6
83 8
84 8
85 5
86 9
87 7
88 8
89 6
90 6
91 6
92 9
93 7
94 10
95 10
96 10
97 10
98 7
99 6
100 8
101 6
102 8
103 8
104 10
105 10
106 7
107 7
108 9
109 7
110 10
111 7
112 5
113 9
114 5
115 5
116 9
117 8
118 7
119 9
120 5
121 5
122 8
123 7
124 9
125 10
126 10
127 6
128 8
129 5
130 10
131 10
132 10
133 7
134 9
135 8
136 7
137 6
138 7
139 9
140 9
141 10
142 8
143 6
144 10
145 6
146 7
147 8
148 5
149 9
150 6
151 9
152 7
153 10
154 8
155 10
156 5
157 10
158 8
159 5
160 10
161 10
162 8
163 7
164 8
165 7
166 5
167 6
168 10
169 6
170 6
171 10
172 10
173 8
174 6
175 6
176 9
177 5
178 7
179 10
180 6
181 8
182 6
183 8
184 7
185 8
186 8
187 8
188 5
189 8
190 9
191 8
192 7
193 5
194 8
195 9
196 8
197 5
198 8
199 10
200 5
201 5
202 6
203 8
204 9
205 6
206 9
207 7
208 8
209 5
210 9
211 10
212 10
213 6
214 7
215 7
216 8
217 8
218 5
219 5
220 9
221 10
222 6
223 6
224 5
225 10
226 9
227 8
228 7
229 7
230 10
231 9
232 9
233 8
234 5
235 7
236 10
237 5
238 6
239 7
240 9
241 7
242 9
243 5
244 9
245 8
246 7
247 8
248 9
249 7
250 7
251 7
252 9
253 9
254 5
255 5
256 5
257 5
258 5
259 8
260 9
261 8
262 7
263 5
264 5
265 5
266 9
267 7
268 5
269 5
270 7
271 7
272 7
273 5
274 9
275 8
276 7
277 9
278 7
279 7
280 6
281 7
282 5
283 5
284 7
285 6
286 6
287 8
288 7
289 5
290 6
291 8
292 6
293 7
294 8
295 6
296 6
297 5
298 5
299 6
300 5
301 6
302 7
303 8
304 7
305 5
306 5
307 10
308 8
309 9
310 5
311 6
312 6
313 7
314 6
315 10
316 8
317 8
318 7
319 10
320 8
321 7
322 8
323 7
324 7
325 6
326 8
327 8
328 8
329 6
330 5
331 8
332 6
333 8
334 10
335 5
COVERAGE_SECTION
2 7 201 194 64 313 106 43 109 
3 7 86 339 721 268 11 237 246 
4 7 152 80 326 60 14 57 23 
5 7 594 707 103 486 424 678 728 
6 7 548 311 207 341 314 401 714 
7 7 720 469 558 368 679 415 749 
8 7 384 361 319 66 255 229 327 
9 6 200 165 202 726 375 711 
10 7 535 633 669 738 473 151 344 
11 7 723 33 186 721 467 484 539 
12 7 276 214 147 244 405 148 50 
13 7 373 284 571 277 672 493 590 
14 7 326 306 307 485 4 391 127 
15 7 360 432 631 229 29 331 255 
16 7 354 677 746 585 361 119 513 
17 7 374 671 125 378 435 507 659 
18 7 34 191 51 540 217 551 541 
19 7 463 112 663 508 667 449 518 
20 7 263 52 408 49 406 134 347 
21 7 155 323 167 26 278 143 691 
22 7 105 59 225 409 253 348 164 
23 7 385 80 30 152 303 294 48 
24 7 470 100 345 357 567 662 522 
25 7 334 406 134 113 240 179 49 
26 7 143 525 756 155 278 691 21 
27 7 36 712 195 758 44 111 261 
28 7 655 532 751 394 35 403 358 
29 7 575 301 647 318 459 229 482 
30 7 303 23 385 80 333 485 391 
31 7 237 169 84 102 732 72 238 
32 7 476 613 273 447 154 678 697 
33 7 484 186 99 721 539 289 467 
34 7 18 51 191 150 468 287 540 
35 7 698 203 688 584 531 655 235 
36 7 758 27 195 712 44 261 707 
37 7 171 381 251 324 411 275 407 
38 7 496 73 331 175 300 631 432 
39 7 78 549 309 727 748 591 604 
40 7 114 279 256 84 243 72 369 
41 7 380 620 122 316 692 439 121 
42 6 666 480 682 108 519 523 
43 7 271 174 106 194 85 2 201 
44 7 547 569 27 36 111 758 195 
45 7 589 465 367 370 190 450 196 
46 7 660 690 130 645 144 289 718 
47 7 568 414 53 591 212 563 286 
48 7 81 227 382 369 333 72 385 
49 7 406 134 20 334 263 52 179 
50 7 276 705 214 82 12 313 579 
51 7 287 34 18 421 265 540 217 
52 7 263 20 408 49 328 134 406 
53 7 591 568 47 309 549 212 604 
54 7 610 670 445 684 223 570 737 
55 7 196 743 636 465 98 176 367 
56 7 376 241 292 657 667 142 673 
57 7 60 294 70 71 152 80 4 
58 7 135 615 718 690 603 570 238 
59 7 409 22 107 105 225 164 83 
60 7 57 294 70 152 71 4 80 
61 7 267 364 740 491 685 438 215 
62 7 197 275 324 225 164 37 105 
63 7 396 643 706 534 413 429 708 
64 7 201 348 2 253 313 82 162 
65 7 449 280 112 489 356 463 483 
66 7 327 255 159 361 384 175 8 
67 7 444 145 193 400 322 554 97 
68 7 652 264 209 609 137 352 236 
69 7 312 190 664 188 589 460 562 
70 7 57 71 60 294 152 80 205 
71 7 294 70 57 60 152 205 382 
72 7 732 81 149 227 84 333 369 
73 7 175 496 38 300 631 255 331 
74 7 442 529 739 515 176 461 98 
75 7 419 600 257 542 440 455 308 
76 7 266 598 502 511 524 614 729 
77 7 736 605 399 168 310 159 172 
78 7 39 748 703 309 549 727 395 
79 7 220 675 665 140 128 290 274 
80 7 23 385 152 4 294 30 57 
81 7 227 48 369 333 72 382 732 
82 7 405 148 313 214 276 64 50 
83 7 109 253 153 409 348 194 106 
84 7 114 40 31 72 732 256 237 
85 7 106 271 194 174 109 43 2 
86 7 3 339 11 721 84 237 114 
87 7 391 254 127 485 242 282 295 
88 7 735 441 495 231 567 456 572 
89 7 741 573 623 560 521 681 700 
90 7 204 162 355 105 348 22 64 
91 7 420 599 725 239 588 576 417 
92 7 377 745 359 472 321 102 291 
93 7 710 596 704 480 653 435 659 
94 7 433 453 517 500 699 761 550 
95 7 475 642 658 452 577 627 451 
96 7 97 158 260 132 349 400 183 
97 7 158 96 400 260 554 193 132 
98 7 636 176 529 461 55 196 739 
99 7 289 484 721 268 33 246 660 
100 7 24 470 357 714 401 662 226 
101 7 622 481 606 560 623 157 418 
102 7 169 745 92 377 291 31 237 
103 7 728 486 512 5 594 578 424 
104 7 423 185 343 291 321 565 472 
105 7 22 225 59 90 253 348 409 
106 7 85 194 271 174 109 43 2 
107 7 409 390 59 153 83 22 164 
108 7 519 505 42 666 523 563 286 
109 7 194 85 106 83 153 271 2 
110 6 731 248 699 428 590 453 
111 7 170 44 564 579 27 547 569 
112 7 463 19 449 508 663 65 518 
113 7 240 262 25 179 334 406 134 
114 7 40 84 256 279 243 72 31 
115 7 184 651 337 537 559 598 297 
116 7 317 221 239 760 639 420 189 
117 7 520 131 404 293 295 343 160 
118 7 338 219 691 278 392 315 167 
119 7 677 427 530 585 513 222 551 
120 7 756 252 454 228 142 525 192 
121 7 336 166 128 665 129 392 316 
122 7 692 620 574 439 316 711 41 
123 7 402 452 715 730 627 658 95 
124 6 592 344 723 533 467 186 
125 7 374 435 659 671 17 704 710 
126 7 211 358 218 751 199 628 187 
127 7 254 87 379 249 391 485 307 
128 7 665 166 316 121 336 140 290 
129 7 393 121 336 392 380 166 167 
130 7 297 559 46 144 651 184 371 
131 7 117 293 520 160 466 404 343 
132 7 260 96 254 161 87 97 127 
133 7 150 703 335 617 78 39 727 
134 7 406 334 49 25 179 20 52 
135 7 58 615 718 690 238 603 645 
136 7 250 381 171 407 411 262 251 
137 7 609 353 552 258 583 752 68 
138 7 514 320 352 638 272 640 509 
139 7 722 429 284 373 431 13 641 
140 7 290 410 128 316 574 665 79 
141 7 686 494 346 744 298 403 443 
142 7 454 252 120 228 756 292 525 
143 7 278 691 26 118 21 155 525 
144 7 611 629 660 504 130 46 580 
145 7 67 444 193 322 400 554 547 
146 7 230 355 411 251 407 204 162 
147 7 244 12 283 564 216 579 181 
148 7 405 214 82 276 12 230 355 
149 7 732 333 72 81 291 227 48 
150 7 617 133 34 468 708 727 703 
151 7 738 633 473 477 458 669 535 
152 7 294 57 60 80 4 23 71 
153 7 390 83 109 409 107 85 106 
154 7 447 613 697 621 654 750 32 
155 7 21 323 26 143 278 167 120 
156 7 210 281 170 705 586 579 712 
157 7 418 446 606 560 654 739 697 
158 7 97 96 400 260 328 193 132 
159 7 327 746 66 399 77 736 300 
160 7 293 466 131 269 701 117 342 
161 7 527 379 249 132 254 349 127 
162 7 204 90 355 348 64 146 230 
163 7 554 342 269 656 160 701 322 
164 7 225 59 22 105 409 107 390 
165 7 9 200 202 375 711 439 726 
166 7 336 665 121 128 392 316 219 
167 7 393 338 21 118 278 392 691 
168 7 736 172 605 77 399 300 586 
169 7 102 237 31 238 745 135 92 
170 7 579 210 156 705 111 281 586 
171 7 381 37 251 136 411 407 146 
172 7 399 168 736 300 77 605 43 
173 7 296 581 724 710 272 363 464 
174 7 271 85 106 43 194 109 2 
175 7 73 255 300 496 66 631 327 
176 7 461 529 442 98 74 636 739 
177 7 619 372 436 487 497 387 245 
178 7 734 270 259 693 471 544 526 
179 7 262 334 25 113 49 250 406 
180 7 648 288 562 760 460 755 644 
181 7 283 216 247 350 244 389 147 
182 7 318 459 29 360 301 550 575 
183 7 349 328 158 161 96 97 305 
184 7 651 115 598 559 297 337 76 
185 7 104 423 291 343 321 359 377 
186 7 467 539 33 629 484 99 289 
187 7 199 218 365 126 628 211 358 
188 7 572 664 69 312 735 562 288 
189 6 221 317 417 239 116 420 
190 7 312 589 69 460 562 370 648 
191 6 18 34 541 624 478 468 
192 7 329 394 744 228 525 756 292 
193 7 67 444 400 145 554 97 158 
194 7 106 85 109 271 2 201 43 
195 7 758 36 712 27 261 678 707 
196 7 465 55 636 367 450 98 45 
197 7 62 275 324 164 225 37 105 
198 7 753 649 625 308 501 557 425 
199 7 187 218 365 126 628 211 358 
200 5 9 202 165 726 375 
201 7 2 64 313 194 106 43 348 
202 5 200 165 9 375 726 
203 7 698 584 35 531 362 688 213 
204 7 162 90 355 146 230 251 348 
205 7 382 243 279 369 71 227 48 
206 7 536 607 757 422 580 511 674 
207 7 314 341 6 548 714 311 401 
208 7 604 727 549 591 534 568 47 
209 7 652 264 68 353 258 137 609 
210 7 156 170 281 705 579 586 111 
211 7 126 358 218 751 628 199 315 
212 7 510 414 286 506 563 47 426 
213 4 668 632 616 688 
214 7 276 12 405 148 82 50 283 
215 7 685 740 601 366 330 332 267 
216 7 181 283 244 350 247 389 147 
217 7 540 232 421 265 51 551 287 
218 7 126 199 365 628 187 211 325 
219 7 392 118 338 665 166 315 675 
220 7 395 79 290 748 140 548 410 
221 7 317 189 116 239 420 639 417 
222 7 513 551 119 677 530 16 515 
223 6 445 684 610 54 340 383 
224 7 522 662 357 470 332 630 582 
225 7 105 22 164 59 409 90 107 
226 7 462 528 401 351 311 100 398 
227 7 81 369 48 382 333 72 732 
228 7 756 120 525 454 192 142 252 
229 7 15 29 8 255 372 631 575 
230 7 146 355 411 407 251 148 247 
231 7 495 441 88 567 735 618 345 
232 7 217 540 421 265 551 51 287 
233 7 457 570 615 603 223 58 383 
234 6 694 492 730 479 612 555 
235 7 491 364 688 35 61 616 582 
236 7 378 671 352 514 638 374 125 
237 7 31 169 238 102 246 84 268 
238 7 246 268 645 237 721 690 135 
239 7 420 91 599 417 725 588 116 
240 7 113 262 25 334 179 406 136 
241 7 667 657 663 56 376 19 673 
242 7 282 295 404 87 520 391 117 
243 7 279 256 40 114 205 369 227 
244 7 147 283 216 181 12 564 579 
245 7 487 733 497 387 448 431 413 
246 7 268 238 721 645 99 289 484 
247 7 350 181 283 250 216 389 407 
248 7 110 553 453 699 683 731 661 
249 7 379 161 127 254 527 307 87 
250 7 350 389 247 136 179 407 181 
251 7 411 407 146 381 171 230 355 
252 7 120 454 142 756 228 525 323 
253 7 348 83 64 109 2 201 22 
254 7 127 87 379 249 132 391 161 
255 7 175 66 327 73 631 8 300 
256 7 40 243 114 279 84 339 369 
257 6 455 419 600 75 650 499 
258 7 353 137 609 552 68 583 752 
259 7 270 734 544 178 526 626 330 
260 7 132 96 701 97 158 282 242 
261 7 587 678 681 521 700 712 195 
262 7 113 240 179 25 334 136 250 
263 7 20 52 408 49 406 134 347 
264 7 652 68 209 320 352 514 236 
265 7 421 540 217 232 287 351 51 
266 7 511 504 598 76 502 580 611 
267 6 61 740 412 689 685 438 
268 7 246 721 99 289 484 645 238 
269 7 466 342 160 597 163 131 293 
270 6 259 734 178 526 626 544 
271 7 174 106 85 43 194 109 2 
272 7 638 296 724 173 581 509 640 
273 7 476 32 424 613 447 695 678 
274 7 325 675 628 365 315 218 79 
275 7 324 62 197 37 225 171 90 
276 7 214 12 405 148 50 82 147 
277 5 672 493 507 13 702 
278 7 691 143 118 338 26 167 21 
279 7 243 40 369 256 114 227 81 
280 7 483 602 449 489 518 65 443 
281 7 156 210 498 586 646 705 170 
282 7 242 295 404 520 117 87 131 
283 7 181 216 244 247 147 350 12 
284 7 373 571 431 13 448 429 139 
285 7 762 747 634 430 543 490 546 
286 5 563 510 523 414 416 
287 7 398 51 265 421 351 335 540 
288 7 562 180 460 648 760 312 190 
289 7 99 484 660 268 721 629 645 
290 7 410 140 128 574 220 316 395 
291 7 185 104 423 102 92 377 745 
292 7 376 744 192 329 686 142 454 
293 7 160 131 117 701 466 520 404 
294 7 57 71 60 152 70 80 385 
295 7 404 282 242 520 117 131 293 
296 7 173 724 272 581 710 638 363 
297 7 559 371 651 130 184 115 598 
298 7 443 673 483 518 602 280 494 
299 7 388 716 595 597 676 342 656 
300 7 399 73 172 175 159 496 38 
301 7 575 647 761 29 318 500 550 
302 5 506 545 637 212 426 
303 7 30 333 23 385 48 149 81 
304 7 565 737 716 321 597 472 676 
305 7 527 183 349 161 328 134 406 
306 7 14 326 307 485 391 127 249 
307 7 306 14 127 249 379 326 485 
308 5 625 425 649 501 557 
309 7 591 549 53 39 727 604 568 
310 7 746 605 696 77 646 354 736 
311 7 401 6 714 548 335 207 226 
312 7 69 190 460 562 589 648 664 
313 7 201 82 2 64 43 50 405 
314 7 207 341 548 6 714 365 274 
315 7 325 628 274 675 219 118 211 
316 7 128 574 121 122 336 166 380 
317 7 221 116 189 639 239 420 417 
318 7 459 301 575 761 550 29 182 
319 7 436 427 8 372 177 585 384 
320 7 352 514 138 264 236 68 652 
321 7 472 565 304 359 737 423 104 
322 7 444 145 386 656 67 163 193 
323 7 155 21 252 120 26 756 454 
324 7 275 62 197 37 171 381 251 
325 7 274 628 675 315 365 218 126 
326 7 14 306 307 4 485 80 391 
327 7 66 159 361 255 384 175 746 
328 7 183 349 158 97 52 400 96 
329 7 192 744 394 403 532 228 292 
330 7 601 689 685 740 366 544 267 
331 7 432 496 38 631 73 397 175 
332 7 582 215 366 685 713 601 224 
333 7 81 48 149 227 303 732 72 
334 7 25 406 134 49 179 113 240 
335 7 398 287 133 311 51 150 351 
336 7 121 166 665 128 392 129 316 
337 7 537 115 614 184 651 526 626 
338 7 118 392 219 278 167 691 393 
339 7 86 3 114 256 84 40 11 
340 3 383 456 223 
341 7 548 314 207 6 220 675 274 
342 7 269 597 716 466 163 299 160 
343 7 423 104 117 131 185 520 466 
344 6 592 533 535 124 10 669 
345 7 567 441 24 470 735 231 357 
346 6 494 141 686 443 717 479 
347 7 569 564 547 408 44 263 20 
348 7 253 64 83 2 201 22 162 
349 7 183 328 161 96 158 527 97 
350 7 389 247 250 216 181 283 179 
351 7 528 398 462 265 287 421 743 
352 7 514 320 236 138 638 68 264 
353 7 258 137 609 552 583 68 752 
354 7 16 746 361 677 585 159 384 
355 7 146 230 204 162 90 251 148 
356 7 508 65 449 112 19 719 463 
357 7 662 470 522 224 24 630 100 
358 7 126 211 751 218 199 655 187 
359 7 377 472 92 745 321 670 737 
360 7 15 432 631 331 182 29 229 
361 7 384 327 585 66 354 8 677 
362 5 584 437 531 203 698 
363 6 581 724 464 509 173 640 
364 7 491 61 235 616 688 267 438 
365 7 628 218 199 274 325 187 675 
366 7 713 601 685 215 330 740 434 
367 7 450 465 621 196 750 45 636 
368 7 558 679 556 742 7 720 469 
369 7 227 81 48 382 279 72 40 
370 6 644 589 695 45 648 190 
371 7 297 603 559 718 130 615 651 
372 7 177 619 436 482 319 428 487 
373 6 284 571 13 431 448 590 
374 7 125 435 659 671 17 704 710 
375 7 439 711 165 9 692 200 620 
376 7 56 292 241 657 673 667 142 
377 7 92 745 359 472 321 102 291 
378 7 671 236 17 374 125 583 507 
379 7 249 161 127 254 527 307 132 
380 7 41 316 121 336 129 620 122 
381 7 171 251 411 37 407 136 146 
382 7 48 369 227 81 205 385 279 
383 3 340 456 223 
384 7 361 8 585 66 327 427 354 
385 7 23 80 30 152 382 48 303 
386 7 486 728 656 687 322 103 512 
387 6 497 245 478 436 487 413 
388 7 299 676 716 595 597 737 304 
389 7 350 250 216 247 181 283 179 
390 7 153 107 409 83 59 109 85 
391 7 485 87 127 242 254 282 295 
392 7 219 166 336 338 121 393 665 
393 7 129 167 392 338 336 121 118 
394 7 192 329 532 403 525 744 28 
395 7 748 220 78 703 290 39 410 
396 7 643 63 534 505 208 706 708 
397 7 331 38 496 174 85 432 153 
398 7 287 351 335 462 265 421 51 
399 7 736 77 172 300 168 159 605 
400 7 193 97 158 67 444 145 96 
401 7 311 714 226 6 100 462 207 
402 5 123 452 627 658 437 
403 7 532 744 329 394 531 192 141 
404 7 295 520 282 242 117 131 293 
405 7 148 214 82 276 12 313 230 
406 7 134 334 49 25 179 20 263 
407 7 411 251 146 230 381 247 136 
408 7 20 263 52 49 347 389 179 
409 7 59 107 83 390 22 153 253 
410 7 290 140 574 128 316 122 220 
411 7 407 251 146 230 381 171 136 
412 4 438 689 267 635 
413 6 706 624 63 478 387 733 
414 7 563 286 510 47 523 568 212 
415 7 679 558 556 368 720 7 469 
416 3 510 523 286 
417 5 588 599 725 420 239 
418 7 157 446 606 654 560 697 739 
419 7 75 600 257 542 499 455 440 
420 7 239 91 599 417 725 588 576 
421 7 265 540 217 232 287 51 351 
422 3 607 757 206 
423 7 104 343 185 321 291 565 466 
424 7 578 273 695 103 512 594 5 
425 5 308 649 501 625 557 
426 4 416 506 212 510 
427 7 585 119 677 530 384 319 361 
428 7 699 482 110 619 731 248 433 
429 7 431 139 284 448 733 722 373 
430 7 634 747 543 285 546 762 490 
431 7 448 733 284 429 373 571 245 
432 7 631 331 15 360 496 73 38 
433 7 94 500 453 761 699 550 647 
434 7 544 713 366 259 734 330 601 
435 7 659 125 374 704 710 93 671 
436 7 177 497 387 487 319 372 619 
437 4 717 362 402 123 
438 5 635 412 680 561 267 
439 7 375 711 620 692 122 574 165 
440 6 600 75 753 625 198 308 
441 7 567 735 345 88 231 495 572 
442 7 74 529 176 461 515 739 98 
443 4 602 298 483 280 
444 7 67 145 193 322 400 554 163 
445 6 684 610 223 54 670 340 
446 7 157 418 739 606 750 654 560 
447 7 154 613 697 32 476 621 654 
448 7 431 733 571 373 284 245 429 
449 7 65 112 280 463 19 483 508 
450 7 367 750 621 636 196 465 98 
451 7 593 709 475 577 95 642 715 
452 7 658 627 95 475 402 123 642 
453 7 248 553 94 517 699 433 415 
454 7 142 120 252 228 756 525 192 
455 3 257 650 600 
456 4 383 340 618 88 
457 4 233 456 383 615 
458 4 151 608 477 499 
459 7 318 301 761 550 500 575 182 
460 7 562 648 180 288 312 190 589 
461 7 176 529 442 74 98 743 515 
462 7 226 528 351 398 743 401 287 
463 7 19 112 663 518 449 667 508 
464 4 363 480 581 173 
465 7 196 367 45 450 55 636 98 
466 7 269 160 131 293 342 117 343 
467 7 186 539 629 674 33 484 533 
468 7 708 534 624 617 191 706 413 
469 7 720 7 558 754 368 749 679 
470 7 357 662 24 522 345 224 630 
471 7 537 337 178 115 734 693 270 
472 7 359 321 377 92 304 737 565 
473 7 633 151 738 10 458 477 669 
474 5 661 683 590 553 248 
475 7 95 642 577 658 452 451 627 
476 7 32 273 613 447 154 424 678 
477 7 151 738 458 650 633 608 669 
478 6 624 541 387 497 413 191 
479 4 555 234 492 694 
480 6 42 464 666 93 710 596 
481 7 623 101 560 622 606 89 157 
482 7 428 647 699 575 619 301 433 
483 7 518 280 602 298 443 449 463 
484 7 99 289 33 721 268 539 629 
485 7 391 87 127 254 242 282 306 
486 7 728 103 386 5 594 707 512 
487 7 245 497 387 177 619 733 436 
488 7 749 503 469 7 702 720 558 
489 4 280 555 65 602 
490 4 546 543 285 762 
491 7 364 235 61 688 582 616 215 
492 7 234 694 730 479 717 612 123 
493 5 672 277 742 503 474 
494 6 141 346 686 298 443 602 
495 6 231 618 88 441 693 567 
496 7 38 73 331 175 631 432 300 
497 6 387 245 487 436 478 733 
498 7 646 696 281 586 700 521 681 
499 5 608 419 257 542 75 
500 7 550 761 433 94 301 459 647 
501 5 557 425 649 308 625 
502 6 511 729 266 76 524 580 
503 6 702 742 368 558 7 493 
504 7 611 266 580 511 144 598 76 
505 7 108 519 643 414 563 47 42 
506 5 302 545 637 212 426 
507 7 277 17 672 752 583 378 13 
508 7 112 19 356 463 449 663 65 
509 7 640 724 363 581 272 173 296 
510 5 286 563 523 414 416 
511 6 502 266 580 76 504 729 
512 7 578 728 103 687 424 755 486 
513 7 222 119 551 677 530 585 427 
514 7 352 320 236 138 638 272 671 
515 7 74 442 529 176 461 739 622 
516 5 538 489 555 65 280 
517 7 415 453 754 759 94 553 720 
518 7 483 673 463 280 663 19 657 
519 7 108 505 42 596 643 480 666 
520 7 117 404 295 131 282 293 242 
521 7 681 700 587 573 89 741 261 
522 7 662 224 357 470 630 24 332 
523 5 286 563 510 416 414 
524 4 729 614 76 502 
525 7 756 228 120 26 192 394 454 
526 5 626 614 270 337 259 
527 7 161 379 249 305 349 183 254 
528 7 462 743 351 55 226 398 461 
529 7 176 442 461 74 98 515 739 
530 7 119 427 513 551 677 222 585 
531 6 698 584 203 362 403 437 
532 7 403 28 394 655 329 744 192 
533 6 344 592 674 536 206 757 
534 7 708 396 63 208 468 617 604 
535 5 669 10 738 633 151 
536 7 206 580 674 757 607 422 511 
537 7 337 115 471 614 184 526 651 
538 4 516 489 555 65 
539 7 186 467 629 484 33 289 99 
540 7 217 232 421 265 51 287 551 
541 6 478 624 191 387 530 497 
542 5 419 75 308 425 600 
543 6 546 430 747 634 285 490 
544 7 434 259 330 734 270 366 713 
545 6 302 506 637 426 711 212 
546 6 543 430 490 747 634 285 
547 7 569 44 347 111 564 27 36 
548 7 6 341 207 314 311 220 395 
549 7 727 309 604 39 591 53 208 
550 7 500 761 433 301 94 459 318 
551 7 222 513 530 217 232 540 119 
552 7 583 752 137 609 353 702 378 
553 7 248 415 453 679 556 661 474 
554 7 701 163 160 97 193 293 158 
555 3 479 489 234 
556 6 679 368 742 558 415 7 
557 5 501 649 425 308 625 
558 7 7 720 368 469 679 556 415 
559 7 297 651 184 115 130 371 598 
560 7 418 654 157 481 606 89 623 
561 5 680 635 762 438 285 
562 7 460 288 648 180 312 190 760 
563 5 286 510 523 414 416 
564 7 147 111 347 569 244 547 44 
565 7 304 321 737 597 716 472 342 
566 7 719 356 508 112 19 65 449 
567 7 441 345 735 231 88 24 495 
568 7 47 53 591 414 212 309 208 
569 7 547 44 347 564 111 27 145 
570 7 233 54 223 610 670 445 684 
571 6 373 284 448 590 431 13 
572 7 188 735 664 69 312 88 288 
573 7 741 89 521 681 587 700 560 
574 7 122 692 620 316 410 439 711 
575 7 301 647 29 318 761 482 459 
576 6 725 588 599 91 417 420 
577 6 642 475 95 451 593 658 
578 7 512 424 755 695 103 728 644 
579 7 170 705 210 111 147 156 12 
580 7 504 511 536 266 611 206 674 
581 7 363 724 173 296 509 464 272 
582 7 332 215 491 235 685 740 366 
583 7 752 552 609 137 507 378 702 
584 6 203 362 698 531 35 213 
585 7 677 427 119 361 384 354 16 
586 7 696 705 646 281 156 210 498 
587 7 681 521 700 261 573 89 741 
588 6 725 599 417 576 91 420 
589 7 190 45 370 312 460 69 648 
590 6 683 474 661 571 110 731 
591 7 53 309 568 549 47 604 727 
592 6 344 533 124 535 10 674 
593 5 451 577 642 475 95 
594 7 5 707 103 424 486 678 728 
595 7 388 299 639 656 676 716 687 
596 7 93 704 653 641 480 710 519 
597 7 716 342 299 304 565 388 269 
598 7 184 651 266 76 115 504 559 
599 7 725 588 417 91 420 239 576 
600 6 75 419 257 440 455 542 
601 7 685 740 330 215 366 689 267 
602 4 443 280 483 489 
603 7 615 371 718 297 690 130 559 
604 7 727 208 549 591 309 53 39 
605 7 77 736 168 310 399 696 646 
606 7 157 418 446 101 560 739 622 
607 3 422 757 206 
608 4 499 458 419 257 
609 7 137 552 583 752 353 68 378 
610 6 445 684 54 223 670 676 
611 7 504 144 580 266 598 130 629 
612 7 730 715 694 234 709 492 123 
613 7 447 32 154 476 697 273 654 
614 5 626 524 526 337 76 
615 7 603 718 371 233 58 135 690 
616 6 688 668 364 213 635 61 
617 7 150 708 727 468 534 604 133 
618 6 693 495 456 231 471 178 
619 7 177 731 428 487 372 482 110 
620 7 692 122 574 439 711 41 316 
621 7 750 450 154 367 447 697 654 
622 7 101 481 606 623 560 157 418 
623 7 481 89 560 101 741 622 573 
624 6 478 541 413 468 706 191 
625 7 308 649 425 501 557 753 198 
626 5 526 614 270 524 337 
627 6 658 452 95 402 475 642 
628 7 365 325 274 218 315 675 126 
629 7 144 539 660 289 611 467 484 
630 7 713 470 434 357 231 224 522 
631 7 432 15 73 496 175 331 255 
632 6 213 668 198 557 753 501 
633 7 738 473 151 10 669 535 477 
634 7 747 430 285 762 543 546 490 
635 5 438 680 561 412 267 
636 7 98 196 450 55 367 750 465 
637 7 302 506 545 212 53 426 568 
638 7 272 296 724 173 509 581 659 
639 7 687 317 116 221 595 189 760 
640 7 509 724 363 581 272 173 296 
641 7 653 704 596 93 435 125 17 
642 7 577 475 95 658 451 452 627 
643 7 396 63 505 519 108 534 722 
644 6 695 370 755 648 424 273 
645 7 690 46 246 268 289 660 99 
646 7 696 498 586 310 281 605 77 
647 7 575 301 482 29 761 433 500 
648 7 460 180 562 288 755 370 760 
649 7 625 308 425 501 557 753 198 
650 3 455 257 477 
651 7 184 559 115 598 297 130 337 
652 7 68 209 264 609 137 320 352 
653 7 641 704 596 93 435 125 659 
654 7 697 418 560 157 154 447 741 
655 7 28 532 751 35 358 394 403 
656 7 595 386 299 163 322 388 687 
657 7 667 673 663 518 463 19 112 
658 7 452 627 95 475 642 577 402 
659 7 435 125 374 710 671 296 93 
660 7 46 144 629 289 130 645 99 
661 5 474 683 590 553 248 
662 7 522 357 224 470 24 630 100 
663 7 19 667 463 657 112 518 673 
664 7 69 188 312 572 190 735 460 
665 7 166 128 336 121 392 219 316 
666 5 682 42 480 523 416 
667 7 663 657 19 463 673 518 112 
668 6 213 632 616 635 688 198 
669 6 535 738 633 10 151 477 
670 7 54 610 445 737 684 472 223 
671 7 374 378 125 17 659 435 236 
672 5 277 493 13 507 702 
673 7 657 518 298 663 667 483 463 
674 7 536 533 580 206 467 539 344 
675 7 274 325 628 315 79 365 219 
676 7 388 737 716 299 304 670 189 
677 7 585 119 427 16 513 354 222 
678 7 261 32 273 476 594 5 707 
679 7 556 368 558 415 742 7 720 
680 5 561 635 438 762 285 
681 7 521 587 700 573 261 89 741 
682 5 666 42 416 523 286 
683 5 661 474 590 553 248 
684 6 445 610 223 54 670 340 
685 7 740 601 215 330 366 267 689 
686 7 141 494 346 298 744 292 443 
687 7 639 728 512 386 578 595 103 
688 7 616 364 235 35 491 203 668 
689 6 330 412 267 740 601 685 
690 7 645 718 46 660 246 603 130 
691 7 278 143 118 338 26 315 167 
692 7 620 122 574 439 711 375 316 
693 6 618 178 734 471 495 434 
694 7 234 492 730 612 479 555 123 
695 6 644 755 424 578 370 273 
696 7 646 498 586 310 605 281 77 
697 7 654 154 447 613 418 621 560 
698 7 203 584 531 35 362 403 688 
699 7 428 110 248 453 433 94 482 
700 7 521 681 587 573 89 261 741 
701 7 554 293 160 260 163 131 466 
702 6 503 493 672 752 277 552 
703 7 78 748 133 39 395 549 150 
704 7 653 641 596 93 435 710 659 
705 7 210 170 156 586 579 50 281 
706 6 413 63 624 429 396 708 
707 7 5 594 103 486 758 678 195 
708 7 468 534 617 63 706 396 624 
709 6 715 451 612 475 95 593 
710 7 93 173 296 659 435 480 704 
711 7 375 439 692 620 545 122 9 
712 7 195 27 36 758 261 587 681 
713 7 366 434 544 630 601 330 685 
714 7 401 207 314 311 100 6 341 
715 7 709 612 730 123 475 95 451 
716 7 597 299 388 304 676 565 737 
717 6 437 492 234 694 346 479 
718 7 690 603 615 371 46 645 130 
719 7 566 356 508 19 112 463 663 
720 7 7 469 558 368 679 754 415 
721 7 268 99 484 246 289 33 645 
722 7 139 429 641 653 643 284 704 
723 7 11 124 186 33 467 539 592 
724 7 581 173 296 363 509 272 640 
725 6 599 588 417 91 576 420 
726 2 200 9 
727 7 549 604 39 309 208 591 53 
728 7 512 103 486 687 386 578 5 
729 4 502 524 511 76 
730 7 612 694 234 715 492 123 709 
731 6 110 248 619 590 699 428 
732 7 72 149 81 227 333 84 369 
733 7 448 431 245 429 487 284 571 
734 7 178 270 259 544 693 526 471 
735 7 441 88 567 572 188 345 231 
736 7 77 399 605 168 172 159 300 
737 7 304 676 565 670 716 472 321 
738 7 633 151 473 669 535 10 477 
739 7 446 74 606 157 442 418 98 
740 7 685 601 215 267 330 689 61 
741 7 573 89 560 654 521 623 681 
742 5 556 368 679 558 7 
743 7 55 528 461 176 98 636 196 
744 7 329 403 192 141 686 394 292 
745 7 92 377 359 472 102 321 291 
746 7 354 159 16 310 361 327 77 
747 7 634 430 285 543 762 546 490 
748 7 78 395 39 703 309 549 220 
749 7 469 7 720 558 754 759 368 
750 7 621 450 367 446 636 154 697 
751 7 358 211 28 655 126 143 394 
752 7 583 552 609 507 137 702 378 
753 7 198 649 625 308 440 501 557 
754 7 759 469 720 7 415 517 558 
755 6 695 578 180 644 648 760 
756 7 228 120 525 454 252 142 192 
757 4 422 607 206 536 
758 7 36 195 27 712 707 261 5 
759 7 754 469 720 7 517 415 749 
760 7 180 288 116 648 562 755 460 
761 7 500 550 301 433 94 459 647 
762 7 285 634 747 430 490 543 561 
DEPOT_SECTION
   1
   -1
EOF
