NAME :  X-n895-kX-w89-c9.cctp
COMMENT : 	Adapted by Maziero, Usberti and Cavellucci from the Uchoa, Pecin, Pessoa, Poggi, Subramanian, and Vidal (2013)
TYPE :  CCTP
DIMENSION :    596
EDGE_WEIGHT_TYPE : 	EUC_2D	
CAPACITY : 	1816
VERTICES_WITHIN_COVERAGE :  9
VERTICES_WITH_DEMAND : 	89
NODE_COORD_SECTION
1 706 137
2 392 662
3 692 274
4 944 370
5 726 945
6 869 43
7 621 770
8 112 402
9 523 374
10 619 178
11 553 457
12 95 814
13 696 130
14 27 417
15 940 487
16 943 965
17 670 435
18 931 752
19 307 776
20 404 101
21 199 526
22 117 312
23 762 505
24 433 864
25 868 155
26 832 870
27 488 624
28 686 782
29 585 89
30 268 339
31 248 344
32 22 776
33 89 614
34 75 271
35 882 646
36 6 656
37 449 27
38 857 362
39 809 774
40 403 626
41 559 145
42 667 945
43 524 737
44 683 777
45 641 798
46 514 495
47 102 813
48 517 591
49 748 330
50 859 127
51 699 41
52 281 442
53 257 106
54 116 99
55 41 732
56 555 95
57 378 1
58 155 308
59 942 955
60 619 205
61 646 910
62 796 791
63 785 49
64 958 817
65 424 240
66 311 226
67 37 119
68 761 866
69 404 417
70 929 432
71 743 535
72 418 679
73 107 379
74 329 868
75 22 432
76 24 474
77 380 83
78 145 135
79 576 209
80 877 859
81 901 0
82 464 473
83 181 35
84 976 331
85 672 617
86 324 264
87 193 341
88 525 782
89 527 935
90 218 529
91 626 974
92 594 432
93 805 123
94 959 266
95 348 776
96 458 247
97 841 361
98 675 306
99 856 199
100 300 792
101 172 589
102 609 928
103 379 694
104 738 18
105 693 307
106 468 585
107 594 172
108 563 205
109 271 783
110 374 383
111 775 530
112 913 512
113 943 941
114 247 374
115 347 51
116 8 111
117 321 825
118 854 335
119 605 66
120 241 509
121 845 106
122 451 217
123 955 319
124 432 662
125 704 73
126 418 205
127 817 754
128 570 429
129 11 516
130 737 62
131 563 318
132 697 638
133 343 830
134 3 342
135 231 539
136 827 658
137 142 648
138 530 874
139 305 312
140 501 82
141 189 506
142 78 479
143 863 149
144 173 12
145 839 829
146 674 882
147 554 231
148 28 64
149 298 757
150 650 2
151 580 122
152 779 332
153 263 238
154 770 491
155 703 930
156 539 28
157 45 221
158 714 181
159 120 134
160 301 361
161 277 407
162 126 331
163 564 510
164 177 346
165 265 422
166 19 286
167 928 367
168 894 965
169 523 620
170 894 67
171 498 538
172 482 729
173 990 18
174 98 362
175 513 920
176 54 777
177 401 696
178 282 796
179 97 129
180 289 226
181 604 594
182 806 742
183 737 534
184 235 539
185 335 13
186 218 573
187 544 714
188 706 668
189 841 879
190 229 474
191 786 899
192 857 774
193 373 117
194 444 64
195 60 688
196 392 214
197 884 652
198 455 410
199 384 134
200 309 192
201 255 115
202 102 622
203 704 407
204 110 315
205 490 778
206 991 811
207 916 88
208 545 940
209 398 279
210 984 276
211 308 171
212 644 223
213 420 61
214 169 435
215 121 281
216 409 392
217 62 236
218 713 481
219 407 560
220 172 307
221 570 697
222 755 949
223 204 115
224 553 947
225 640 395
226 408 699
227 77 370
228 647 45
229 101 363
230 724 896
231 554 248
232 80 300
233 422 903
234 89 43
235 759 567
236 55 272
237 54 601
238 723 760
239 491 26
240 952 878
241 740 917
242 934 527
243 878 622
244 506 952
245 56 100
246 666 148
247 311 177
248 820 203
249 805 38
250 840 619
251 336 457
252 422 735
253 610 233
254 549 234
255 717 345
256 441 849
257 507 580
258 152 247
259 959 525
260 665 922
261 560 104
262 24 789
263 180 505
264 537 611
265 12 721
266 913 124
267 258 237
268 692 340
269 798 911
270 698 642
271 659 716
272 50 737
273 676 138
274 27 719
275 9 732
276 717 497
277 387 712
278 684 116
279 790 121
280 960 894
281 334 100
282 713 827
283 734 265
284 877 355
285 421 908
286 835 584
287 905 619
288 84 49
289 509 761
290 49 237
291 970 982
292 452 208
293 384 862
294 314 488
295 258 573
296 697 265
297 654 904
298 880 966
299 105 180
300 712 781
301 283 778
302 984 484
303 62 771
304 256 155
305 830 384
306 924 883
307 710 801
308 203 86
309 946 896
310 558 219
311 726 422
312 551 407
313 170 569
314 822 356
315 918 925
316 218 141
317 73 772
318 514 119
319 603 438
320 55 709
321 65 734
322 40 598
323 364 436
324 638 194
325 65 701
326 33 609
327 988 726
328 328 755
329 704 359
330 327 312
331 631 37
332 165 429
333 629 240
334 212 564
335 642 201
336 585 932
337 911 208
338 993 799
339 648 607
340 662 962
341 117 776
342 819 723
343 335 666
344 685 781
345 875 693
346 538 786
347 649 263
348 618 152
349 97 306
350 481 737
351 71 451
352 705 252
353 473 340
354 902 482
355 891 180
356 218 68
357 564 128
358 724 756
359 838 393
360 327 422
361 274 530
362 503 930
363 414 19
364 857 314
365 905 657
366 736 179
367 746 547
368 79 359
369 822 719
370 611 871
371 747 25
372 317 246
373 479 411
374 663 953
375 277 365
376 48 695
377 602 104
378 25 664
379 480 25
380 113 381
381 884 645
382 998 717
383 366 683
384 71 282
385 608 939
386 463 27
387 857 993
388 155 642
389 549 404
390 577 32
391 251 66
392 780 353
393 925 23
394 229 298
395 467 518
396 609 706
397 285 58
398 151 320
399 405 567
400 266 302
401 737 994
402 979 446
403 709 111
404 773 865
405 98 770
406 122 275
407 818 874
408 581 90
409 675 767
410 233 115
411 523 829
412 258 116
413 540 968
414 530 493
415 504 936
416 919 829
417 456 683
418 114 174
419 869 350
420 648 215
421 14 55
422 852 391
423 925 58
424 896 356
425 414 107
426 319 3
427 428 407
428 649 573
429 287 377
430 345 908
431 260 775
432 395 17
433 515 475
434 249 19
435 110 785
436 767 266
437 524 721
438 408 696
439 559 740
440 813 23
441 113 360
442 5 103
443 24 381
444 564 946
445 439 83
446 120 789
447 291 865
448 884 797
449 580 354
450 39 789
451 105 650
452 974 818
453 278 318
454 277 353
455 705 598
456 10 683
457 554 851
458 349 880
459 654 921
460 287 871
461 507 121
462 651 137
463 108 383
464 796 535
465 680 848
466 741 55
467 567 356
468 948 484
469 898 609
470 333 274
471 48 119
472 755 16
473 680 28
474 905 694
475 516 164
476 370 139
477 147 867
478 413 855
479 382 152
480 465 342
481 207 306
482 450 698
483 76 260
484 689 652
485 456 653
486 166 505
487 297 183
488 674 941
489 360 125
490 641 61
491 806 739
492 879 332
493 328 738
494 60 626
495 771 498
496 773 764
497 246 489
498 44 716
499 125 308
500 465 68
501 690 839
502 703 363
503 61 613
504 505 443
505 591 180
506 298 472
507 808 917
508 80 442
509 534 945
510 971 304
511 508 967
512 318 272
513 826 605
514 884 385
515 664 720
516 527 864
517 516 762
518 853 785
519 686 79
520 990 418
521 775 966
522 52 500
523 972 304
524 580 766
525 639 292
526 688 616
527 926 405
528 683 889
529 590 217
530 80 441
531 949 339
532 366 878
533 189 316
534 213 379
535 435 486
536 484 727
537 231 474
538 832 385
539 900 15
540 127 103
541 176 136
542 160 67
543 346 693
544 584 219
545 495 809
546 383 299
547 947 391
548 705 505
549 822 909
550 976 477
551 610 193
552 46 858
553 752 779
554 505 89
555 483 553
556 585 737
557 553 402
558 300 459
559 867 678
560 492 616
561 690 820
562 956 549
563 803 123
564 354 770
565 134 392
566 6 687
567 8 147
568 859 27
569 553 65
570 695 997
571 407 480
572 399 411
573 510 499
574 608 240
575 906 910
576 900 358
577 466 485
578 763 376
579 950 497
580 161 440
581 693 594
582 768 305
583 154 151
584 148 376
585 474 526
586 265 553
587 417 672
588 781 526
589 128 92
590 669 575
591 843 769
592 298 862
593 966 953
594 37 837
595 711 961
596 534 28
DEMAND_SECTION
2 67
3 86
4 82
5 99
6 54
7 52
8 54
9 71
10 70
11 61
12 74
13 91
14 97
15 92
16 63
17 84
18 90
19 53
20 66
21 79
22 57
23 53
24 72
25 58
26 94
27 86
28 64
29 74
30 82
31 78
32 77
33 78
34 58
35 51
36 64
37 61
38 87
39 92
40 80
41 62
42 97
43 88
44 78
45 78
46 86
47 75
48 62
49 96
50 82
51 50
52 61
53 86
54 67
55 92
56 57
57 51
58 70
59 93
60 83
61 99
62 64
63 62
64 78
65 64
66 81
67 85
68 56
69 56
70 87
71 91
72 92
73 58
74 68
75 93
76 58
77 98
78 87
79 85
80 94
81 71
82 93
83 50
84 60
85 90
86 95
87 87
88 85
89 79
90 54
COVERAGE_SECTION
2 9 587 72 383 103 177 40 438 124 226 
3 7 296 352 105 98 283 347 525 
4 9 167 547 531 527 576 84 424 123 514 
5 9 595 155 222 241 230 401 488 521 42 
6 9 568 170 539 81 423 393 440 249 207 
7 9 45 524 556 409 44 344 396 28 271 
8 9 463 380 73 565 229 174 441 584 227 
9 9 389 557 312 467 373 353 449 480 131 
10 9 551 324 107 348 60 505 335 420 529 
11 9 128 433 414 92 312 504 319 389 46 
12 9 47 435 446 341 405 317 303 176 450 
13 9 278 273 403 246 462 519 158 125 366 
14 8 75 443 351 76 530 508 227 368 
15 9 468 579 112 550 354 242 259 302 70 
16 9 59 113 593 291 315 168 298 575 309 
17 5 203 225 311 218 319 
18 5 327 474 448 64 382 
19 9 100 149 301 328 178 109 95 493 431 
20 9 425 77 193 199 445 213 489 476 194 
21 9 90 141 263 135 184 486 334 120 186 
22 9 204 499 162 349 215 398 406 58 232 
23 9 495 154 111 588 71 183 367 464 276 
24 5 256 478 233 285 293 
25 8 143 50 355 99 121 266 248 337 
26 9 189 407 549 145 80 269 507 191 404 
27 9 560 169 485 48 106 257 264 417 124 
28 9 344 44 409 300 307 561 238 358 45 
29 9 408 377 261 119 56 151 569 357 390 
30 9 454 31 453 375 400 160 114 429 139 
31 9 30 114 454 375 453 400 534 394 429 
32 9 262 450 176 303 275 55 272 317 265 
33 8 202 503 494 237 451 322 326 137 
34 9 483 384 236 232 217 349 290 215 406 
35 9 381 197 243 365 287 559 469 345 250 
36 8 378 456 566 326 376 494 195 265 
37 9 386 379 363 194 239 500 213 432 445 
38 9 97 419 284 118 422 538 305 514 314 
39 9 62 127 182 591 491 496 518 192 342 
40 9 2 124 587 72 399 485 219 383 177 
41 9 357 151 261 107 475 505 56 318 461 
42 9 488 374 340 260 459 155 61 297 595 
43 9 437 517 289 187 439 536 172 350 88 
44 9 344 28 409 300 307 238 561 358 45 
45 9 7 409 44 344 28 561 465 501 307 
46 9 573 414 433 171 577 585 163 395 504 
47 9 12 435 446 341 405 317 303 176 450 
48 8 257 264 169 560 27 106 555 171 
49 9 152 582 255 392 578 329 502 268 105 
50 9 143 121 25 93 266 563 355 170 207 
51 9 473 125 519 130 466 104 371 228 472 
52 9 558 165 506 161 360 251 294 497 537 
53 9 201 412 410 391 304 316 223 356 397 
54 9 540 589 159 179 78 542 288 245 234 
55 9 272 498 274 321 320 265 275 376 325 
56 9 261 408 569 29 357 151 318 377 41 
57 7 432 363 185 115 426 213 37 
58 9 398 220 499 533 162 22 215 164 204 
59 9 16 113 593 315 291 168 575 309 298 
60 9 551 324 335 10 253 212 420 529 333 
61 9 297 459 260 146 42 102 488 528 374 
62 9 39 496 127 553 182 591 491 145 518 
63 9 249 440 466 371 472 130 104 279 563 
64 9 452 206 338 416 240 18 306 280 448 
65 7 96 122 126 196 292 209 546 
66 9 372 180 200 86 487 512 153 247 470 
67 8 471 245 116 442 567 148 179 421 
68 9 404 191 230 241 269 407 282 507 26 
69 7 572 216 427 323 110 198 571 
70 9 527 547 402 468 15 354 520 4 167 
71 9 183 367 111 23 235 588 276 495 548 
72 9 587 438 124 226 177 2 482 417 103 
73 9 463 380 229 174 441 8 565 227 368 
74 8 458 592 447 532 133 460 430 117 
75 9 14 76 443 351 508 530 142 522 227 
76 8 522 75 129 351 142 14 508 530 
77 9 20 193 425 115 213 489 281 199 476 
78 9 583 159 541 540 54 589 179 418 299 
79 9 544 108 529 310 147 505 254 551 107 
80 9 189 26 145 416 306 575 407 448 549 
81 9 539 393 568 6 423 170 207 173 440 
82 9 577 535 395 433 504 573 585 46 571 
83 9 144 542 356 308 434 391 589 223 540 
84 9 123 510 523 531 4 210 167 94 547 
85 9 526 339 581 132 270 455 484 590 428 
86 8 512 470 372 66 330 139 180 153 
87 9 164 533 481 220 534 398 58 31 394 
88 9 346 517 289 205 545 43 411 439 524 
89 9 509 208 175 415 362 244 224 413 511 
90 9 135 21 184 120 334 141 186 263 497 
91 6 340 385 374 102 42 488 
92 7 319 128 11 312 557 389 225 
93 8 563 279 121 50 143 25 63 248 
94 7 210 510 523 123 84 531 337 
95 5 564 328 19 493 100 
96 4 122 65 292 126 
97 8 38 314 305 538 118 419 359 422 
98 7 105 3 268 525 296 347 255 
99 5 248 355 25 143 337 
100 8 19 178 301 109 149 117 431 328 
101 6 313 334 186 388 137 21 
102 7 385 336 61 459 444 91 297 
103 7 383 277 177 226 438 543 2 
104 9 371 472 466 130 51 63 473 125 249 
105 7 98 3 268 296 255 329 352 
106 6 555 257 560 27 48 171 
107 9 505 10 551 348 60 79 41 108 529 
108 9 79 310 544 147 529 254 505 231 107 
109 6 301 431 178 100 19 149 
110 5 216 572 69 323 427 
111 8 588 464 23 71 495 367 183 154 
112 8 242 354 15 579 468 259 562 550 
113 9 59 16 593 315 309 575 291 280 168 
114 9 31 375 534 454 429 30 161 165 160 
115 5 185 77 281 426 57 
116 7 442 67 567 471 245 148 421 
117 6 133 100 74 592 178 447 
118 8 364 419 492 38 97 284 314 424 
119 9 29 408 490 377 331 390 228 569 56 
120 9 497 90 184 135 537 190 361 21 586 
121 9 50 93 563 143 25 279 170 6 266 
122 5 292 96 65 126 196 
123 9 531 510 523 84 4 210 94 167 576 
124 9 587 72 485 417 2 482 438 226 40 
125 9 519 51 130 403 466 278 473 13 228 
126 6 196 292 122 65 96 479 
127 8 182 491 39 591 342 369 62 192 
128 7 92 312 557 11 389 319 504 
129 3 76 522 142 
130 9 466 125 371 51 104 472 63 519 403 
131 4 467 449 9 231 
132 8 270 484 526 188 85 455 581 339 
133 2 117 74 
134 4 443 166 368 14 
135 9 184 90 334 120 21 186 586 295 361 
136 6 250 559 513 35 197 381 
137 5 388 451 202 33 101 
138 8 516 457 411 175 89 362 415 208 
139 8 330 453 400 512 30 470 160 454 
140 6 554 318 461 500 569 56 
141 6 263 21 486 90 190 120 
142 5 351 522 508 530 76 
143 9 25 50 355 121 99 266 93 563 248 
144 9 83 542 356 434 308 234 589 391 288 
145 9 26 518 80 189 407 448 62 192 591 
146 8 528 297 465 61 260 459 501 230 
147 7 254 310 231 108 79 544 529 
148 6 421 442 245 116 67 288 
149 9 19 301 328 100 493 109 178 431 95 
150 9 331 473 228 490 51 119 390 519 104 
151 9 357 261 377 41 408 29 56 348 107 
152 6 392 582 49 578 314 255 
153 4 267 180 66 372 
154 4 495 23 588 111 
155 9 5 488 595 42 241 260 230 374 528 
156 9 596 390 569 239 379 140 56 554 408 
157 5 290 217 483 236 34 
158 5 366 13 273 246 403 
159 9 179 78 540 54 583 418 589 299 541 
160 6 429 375 454 30 139 453 
161 8 165 429 52 375 114 160 360 454 
162 9 22 204 499 398 441 58 349 229 174 
163 4 414 46 11 573 
164 9 87 533 398 220 584 58 534 481 162 
165 7 161 52 429 114 558 375 506 
166 5 236 384 290 34 134 
167 9 4 576 547 424 531 527 514 284 123 
168 8 298 387 315 16 59 113 575 593 
169 8 264 48 560 27 257 106 485 555 
170 8 207 423 6 539 568 393 266 121 
171 7 555 585 395 573 257 46 414 
172 8 536 350 289 43 437 482 517 205 
173 5 393 423 539 81 207 
174 9 229 441 73 368 227 463 380 8 162 
175 6 362 415 89 244 509 208 
176 9 303 450 317 32 262 272 321 405 55 
177 8 438 226 277 103 72 587 2 383 
178 7 109 100 301 431 19 149 117 
179 9 159 54 540 78 418 589 245 471 299 
180 7 66 153 267 372 200 487 86 
181 5 339 428 590 264 85 
182 8 491 127 342 369 39 496 591 62 
183 8 71 367 23 111 235 276 548 588 
184 9 135 90 120 586 334 21 186 361 295 
185 5 426 115 57 432 397 
186 8 334 135 184 295 90 313 101 21 
187 9 437 43 439 221 556 517 289 536 524 
188 6 484 270 132 526 85 271 
189 9 26 407 549 80 145 507 269 191 404 
190 8 537 497 120 141 90 263 21 52 
191 8 269 507 404 549 68 407 241 26 
192 8 518 591 448 127 39 145 182 491 
193 8 489 199 476 20 77 479 425 281 
194 8 445 500 213 37 386 425 379 20 
195 8 325 376 320 498 378 274 321 55 
196 5 126 65 122 292 479 
197 9 35 381 365 243 559 287 345 469 474 
198 9 373 427 216 69 572 504 82 480 353 
199 7 476 479 193 489 20 425 77 
200 7 247 487 211 66 180 372 153 
201 9 412 53 410 304 316 391 223 308 356 
202 8 33 451 494 503 137 237 388 322 
203 4 311 17 502 329 
204 9 22 349 499 162 232 215 398 406 441 
205 7 289 517 545 88 350 346 172 
206 9 338 452 64 416 240 18 327 280 382 
207 5 170 423 266 6 393 
208 9 224 509 89 444 413 175 244 336 415 
209 5 546 65 196 470 96 
210 6 94 523 510 123 84 531 
211 6 247 487 200 304 66 180 
212 8 420 335 333 324 60 253 347 574 
213 9 194 445 363 20 37 77 425 500 432 
214 5 332 580 565 584 8 
215 9 406 499 22 349 204 58 232 258 34 
216 6 572 427 69 110 198 323 
217 6 290 157 483 34 236 384 
218 3 276 548 23 
219 2 399 40 
220 9 58 533 398 481 164 87 499 162 22 
221 6 187 396 556 439 437 43 
222 8 521 5 241 595 401 155 269 191 
223 9 308 410 316 541 356 201 53 412 78 
224 6 208 444 509 413 89 336 
225 5 17 319 92 203 502 
226 9 438 177 72 277 587 103 252 2 482 
227 7 368 174 229 73 463 441 380 
228 9 490 331 473 150 119 51 519 125 390 
229 9 174 441 73 463 368 380 227 8 162 
230 8 241 155 528 68 5 146 404 222 
231 6 254 147 310 544 108 79 
232 7 349 384 34 204 236 22 483 
233 2 285 24 
234 5 288 54 589 148 245 
235 6 367 71 111 183 588 464 
236 8 384 34 483 290 217 232 166 157 
237 5 322 503 326 494 33 
238 5 358 300 553 28 44 
239 9 379 386 37 596 156 500 140 194 554 
240 9 280 309 306 575 315 416 64 113 452 
241 9 230 5 222 155 191 595 68 269 521 
242 8 259 112 562 579 15 468 354 550 
243 9 35 381 469 287 197 250 365 513 286 
244 6 511 415 362 89 509 175 
245 8 471 67 148 116 179 442 288 54 
246 9 273 462 13 278 348 324 10 403 158 
247 6 211 200 487 66 180 304 
248 2 99 25 
249 9 440 63 472 568 371 6 466 104 130 
250 8 513 286 243 136 35 381 197 469 
251 6 323 360 558 294 506 52 
252 7 226 438 277 177 482 72 103 
253 8 574 333 529 60 544 212 551 79 
254 7 147 231 310 108 79 544 529 
255 5 329 502 268 49 105 
256 4 24 478 233 293 
257 8 48 555 106 560 169 171 264 27 
258 5 406 215 58 220 499 
259 8 562 242 579 15 468 112 302 550 
260 9 459 297 488 61 42 374 528 155 340 
261 9 56 357 408 151 29 569 41 377 318 
262 9 32 450 176 303 594 317 272 55 275 
263 4 141 486 21 90 
264 7 169 48 257 560 27 181 106 
265 8 275 274 55 498 566 456 272 376 
266 6 207 50 25 143 170 355 
267 3 153 180 66 
268 6 329 255 502 105 98 49 
269 8 507 191 549 407 404 26 189 222 
270 7 132 484 188 526 85 455 581 
271 6 515 396 409 7 44 188 
272 9 55 321 498 320 274 303 325 176 265 
273 9 246 13 278 462 403 158 348 519 324 
274 8 265 498 55 275 272 320 376 566 
275 8 265 274 55 498 272 566 32 456 
276 5 548 218 183 23 71 
277 7 103 177 226 438 383 252 72 
278 9 13 273 403 246 519 462 125 490 158 
279 8 563 93 121 50 63 143 130 366 
280 9 309 240 306 113 315 575 593 59 16 
281 5 489 193 77 115 476 
282 8 561 307 501 465 300 28 344 44 
283 5 352 436 296 3 582 
284 9 419 424 38 492 576 118 514 97 422 
285 2 233 24 
286 7 513 250 243 464 469 136 35 
287 6 469 243 381 35 365 197 
288 5 234 148 245 54 589 
289 9 517 205 88 43 350 346 172 536 437 
290 6 217 157 483 236 34 384 
291 9 593 16 59 113 315 168 280 309 298 
292 5 122 126 96 65 196 
293 5 532 478 458 24 133 
294 5 506 558 251 52 361 
295 7 586 186 184 135 361 334 90 
296 6 3 352 283 105 98 347 
297 9 61 459 260 146 528 488 42 374 102 
298 7 168 387 315 575 16 59 113 
299 6 418 159 179 583 78 217 
300 6 307 238 28 344 358 44 
301 7 109 178 100 431 19 149 328 
302 9 550 468 579 402 15 259 242 520 562 
303 9 176 317 450 272 405 321 32 262 55 
304 7 412 201 316 410 53 487 211 
305 6 538 359 422 97 314 38 
306 9 309 240 575 280 315 80 416 113 59 
307 8 300 282 561 28 344 44 238 501 
308 9 356 223 410 542 391 83 316 541 53 
309 9 280 240 306 315 575 113 59 593 16 
310 8 147 108 254 79 544 231 529 505 
311 3 203 17 578 
312 9 389 557 128 9 11 92 467 504 449 
313 7 101 334 186 21 90 486 263 
314 8 97 305 538 38 118 359 392 422 
315 9 575 113 59 309 306 16 168 280 298 
316 8 223 410 304 541 201 412 53 308 
317 9 303 176 405 450 321 435 272 341 12 
318 6 461 554 140 475 56 261 
319 7 92 128 11 225 312 557 389 
320 8 325 498 376 195 55 321 272 274 
321 9 272 55 320 498 325 303 317 274 376 
322 5 326 237 503 494 33 
323 5 251 360 572 69 110 
324 8 335 60 420 10 551 212 333 348 
325 8 320 195 376 498 321 55 272 274 
326 6 322 237 503 494 36 33 
327 6 382 18 338 206 474 452 
328 7 493 95 19 149 564 100 301 
329 5 502 255 268 203 49 
330 7 139 470 512 86 453 160 546 
331 9 228 490 119 150 473 390 51 29 519 
332 6 214 580 565 584 8 534 
333 8 253 574 212 347 420 60 335 529 
334 8 186 135 184 90 21 313 101 295 
335 8 324 420 212 60 10 551 333 253 
336 7 102 385 444 224 208 509 89 
337 3 355 99 25 
338 9 206 452 64 327 18 416 382 240 280 
339 8 85 428 590 526 181 581 132 455 
340 9 374 42 488 91 260 459 570 595 155 
341 7 435 446 405 47 12 317 303 
342 6 369 491 182 127 39 591 
343 4 543 383 103 2 
344 9 28 44 409 300 307 561 238 358 45 
345 5 559 474 197 365 35 
346 9 88 517 289 411 524 205 545 43 439 
347 8 333 525 212 3 574 296 420 253 
348 9 10 107 462 505 551 324 151 246 377 
349 9 204 232 22 499 215 384 162 406 34 
350 8 172 536 289 205 43 517 437 482 
351 7 508 530 142 76 75 522 14 
352 6 296 3 283 105 347 98 
353 4 480 9 373 198 
354 7 112 15 468 579 242 70 259 
355 6 25 337 99 143 266 50 
356 9 308 391 223 410 83 53 434 542 201 
357 9 151 41 261 56 408 29 377 318 107 
358 5 238 300 553 28 44 
359 7 538 305 422 97 38 314 514 
360 7 251 323 558 52 161 506 429 
361 8 586 120 184 135 295 497 90 294 
362 6 415 175 244 89 509 511 
363 9 432 37 57 213 386 194 379 445 500 
364 9 118 492 419 284 38 97 314 424 576 
365 8 197 381 35 474 287 559 243 345 
366 4 158 13 273 403 
367 7 71 183 235 111 588 23 464 
368 7 227 174 229 73 441 463 380 
369 6 342 491 182 127 591 39 
370 8 61 297 102 457 146 336 459 385 
371 9 104 472 466 130 63 51 249 125 440 
372 8 86 66 512 470 180 153 200 267 
373 9 198 504 427 9 82 389 480 353 312 
374 9 42 340 488 260 459 91 61 155 595 
375 8 454 429 160 30 114 31 161 453 
376 8 195 320 325 498 274 55 378 456 
377 9 29 408 151 119 261 357 56 348 490 
378 8 36 456 566 376 195 494 320 325 
379 9 239 386 37 500 194 596 156 140 363 
380 9 463 73 8 441 229 174 565 584 227 
381 9 35 197 243 365 287 559 469 345 250 
382 6 327 18 338 206 474 452 
383 7 103 543 2 343 277 177 438 
384 8 34 236 232 483 349 217 215 290 
385 7 102 336 91 444 61 459 224 
386 9 37 379 239 500 194 363 213 445 140 
387 6 298 168 521 16 507 315 
388 5 137 451 101 202 33 
389 9 312 557 128 9 467 11 92 449 504 
390 9 156 569 596 119 331 29 408 56 490 
391 8 356 397 53 434 201 412 308 410 
392 5 152 578 49 314 582 
393 8 539 81 423 170 6 173 207 568 
394 6 481 400 533 31 453 87 
395 6 585 577 171 555 82 535 
396 6 556 221 271 515 439 7 
397 4 391 434 53 115 
398 9 58 220 162 499 22 164 533 204 87 
399 3 219 40 106 
400 7 453 30 394 139 31 454 481 
401 8 570 595 521 222 5 155 241 340 
402 9 520 550 302 468 70 15 579 547 527 
403 9 13 278 125 519 273 130 246 462 466 
404 9 68 191 407 269 230 26 241 507 549 
405 9 435 341 317 446 303 47 12 176 321 
406 9 215 499 22 349 258 204 34 58 483 
407 9 26 189 549 191 269 507 404 145 68 
408 9 29 261 377 56 151 119 569 357 390 
409 9 44 344 28 300 45 515 238 307 358 
410 9 201 412 53 223 316 308 304 356 391 
411 8 545 516 457 138 346 88 205 517 
412 8 201 53 410 304 316 391 223 356 
413 7 509 224 208 511 444 89 244 
414 8 46 573 433 163 11 171 504 577 
415 6 362 244 175 89 509 511 
416 9 64 448 80 306 452 240 309 206 280 
417 9 482 485 124 72 587 438 226 536 172 
418 6 299 159 583 179 78 540 
419 9 284 38 118 492 424 97 576 364 514 
420 8 212 335 324 60 333 253 551 10 
421 5 148 442 116 245 67 
422 9 359 538 305 38 97 514 284 419 314 
423 6 207 170 393 539 6 81 
424 9 576 284 419 492 514 167 38 118 4 
425 7 20 445 199 77 193 213 194 
426 5 185 115 57 397 434 
427 9 216 69 198 572 373 110 323 82 480 
428 4 590 339 581 85 
429 7 375 160 454 161 114 30 165 
430 4 458 532 74 293 
431 6 109 301 178 149 100 19 
432 9 363 57 213 37 115 185 77 194 386 
433 9 46 414 573 504 11 577 82 163 395 
434 5 391 397 356 83 426 
435 9 341 446 405 47 12 317 303 176 321 
436 4 283 582 352 49 
437 9 43 187 439 536 517 172 289 350 221 
438 9 226 177 72 277 587 103 2 252 124 
439 9 556 187 524 43 437 221 517 346 88 
440 9 249 63 568 472 6 371 104 466 130 
441 9 229 174 73 380 463 162 368 227 565 
442 7 116 67 567 148 471 421 245 
443 5 14 134 75 227 368 
444 6 224 208 336 509 413 89 
445 7 194 213 500 425 20 37 77 
446 7 435 341 405 47 12 317 303 
447 3 460 592 74 
448 9 518 192 416 591 145 80 18 64 39 
449 6 467 131 557 389 9 312 
450 9 262 176 32 303 317 594 272 55 12 
451 7 202 137 33 388 494 503 195 
452 9 64 206 338 416 240 280 18 306 309 
453 9 400 30 139 454 31 375 160 330 394 
454 8 375 30 160 429 31 453 114 139 
455 6 581 526 85 132 590 270 
456 8 566 378 36 265 274 376 498 275 
457 8 516 138 411 370 346 545 88 175 
458 6 532 74 430 293 133 592 
459 9 260 61 297 42 488 374 340 528 146 
460 3 447 592 74 
461 6 318 554 140 475 56 261 
462 9 246 273 348 278 13 10 324 377 403 
463 9 73 380 8 229 174 441 565 227 368 
464 5 588 111 23 495 235 
465 8 501 561 146 282 528 307 297 45 
466 9 130 371 104 125 472 51 63 519 403 
467 6 449 131 9 557 389 312 
468 9 15 579 550 302 259 112 242 354 402 
469 7 287 243 381 35 197 365 250 
470 8 86 512 372 330 139 66 546 180 
471 9 67 245 116 442 567 179 148 54 421 
472 9 371 104 466 63 130 249 440 51 125 
473 9 51 228 150 331 125 490 519 104 130 
474 5 345 365 559 197 35 
475 5 461 318 41 357 108 
476 6 199 489 479 193 20 281 
477 1 47 
478 5 24 256 293 233 532 
479 6 199 476 489 193 425 20 
480 3 353 9 198 
481 9 533 394 220 87 164 58 31 398 400 
482 9 417 72 124 226 438 587 172 485 536 
483 9 34 384 236 217 290 232 406 157 215 
484 6 270 132 188 526 85 455 
485 9 124 417 27 587 482 72 560 40 438 
486 4 263 141 21 90 
487 7 200 247 211 180 66 304 153 
488 9 42 374 260 340 459 155 61 297 595 
489 7 193 476 199 479 281 77 20 
490 9 228 331 119 519 473 377 150 51 29 
491 8 182 127 342 369 39 496 591 62 
492 9 419 284 118 364 424 576 38 97 514 
493 6 328 149 564 19 95 543 
494 9 503 237 33 326 322 202 451 378 36 
495 6 154 23 588 111 464 71 
496 6 553 62 39 182 491 127 
497 9 120 537 190 90 361 184 135 506 52 
498 9 320 55 274 376 272 325 321 195 265 
499 9 22 204 162 215 349 398 58 406 232 
500 8 194 445 140 386 37 554 213 379 
501 8 465 561 282 307 146 528 28 344 
502 5 329 255 268 203 49 
503 7 494 237 322 33 326 202 451 
504 9 433 373 11 82 46 414 573 577 312 
505 9 107 551 10 79 529 60 108 348 544 
506 6 558 294 52 251 497 360 
507 7 269 549 191 407 189 26 521 
508 8 530 351 142 8 14 75 76 522 
509 9 89 208 224 413 244 444 415 175 362 
510 8 523 123 84 210 94 531 4 167 
511 6 244 415 413 509 89 362 
512 8 86 470 372 330 139 66 180 400 
513 5 250 286 136 243 35 
514 9 284 424 576 422 38 419 359 527 167 
515 6 271 409 396 44 344 7 
516 7 138 457 411 175 545 362 89 
517 9 289 88 43 205 346 437 350 172 536 
518 8 192 591 448 39 145 127 62 182 
519 9 125 278 403 51 490 473 13 228 130 
520 9 402 547 550 70 527 4 302 468 167 
521 7 222 401 5 507 241 269 595 
522 4 142 76 129 351 
523 8 510 123 84 210 94 531 4 167 
524 9 556 439 7 346 88 43 187 517 396 
525 6 347 98 333 3 105 574 
526 8 85 581 132 455 270 484 339 590 
527 9 547 70 167 4 514 576 424 520 402 
528 8 146 297 260 465 230 61 459 155 
529 9 544 79 253 574 108 60 551 310 505 
530 8 508 351 142 8 14 75 463 76 
531 9 123 84 4 167 510 523 547 576 424 
532 5 458 293 430 74 478 
533 9 220 481 87 164 58 398 394 499 31 
534 8 114 87 31 164 584 375 165 533 
535 5 571 577 82 395 585 
536 8 172 350 437 43 289 482 517 205 
537 8 190 497 120 141 90 52 263 21 
538 6 305 359 422 97 314 38 
539 9 81 393 6 568 423 170 207 440 173 
540 9 589 54 159 78 179 542 583 541 288 
541 8 583 78 223 316 159 308 540 410 
542 9 83 589 308 540 54 144 356 223 78 
543 7 383 343 103 277 493 2 177 
544 9 529 79 108 310 253 147 574 551 60 
545 8 205 411 88 346 289 517 516 256 
546 6 209 470 330 86 512 65 
547 9 4 527 167 70 520 531 576 424 514 
548 4 276 218 183 71 
549 7 507 269 407 189 191 26 404 
550 9 302 468 402 579 15 259 520 70 242 
551 9 60 10 505 107 324 529 335 544 79 
552 5 594 12 450 47 262 
553 6 496 238 358 300 62 307 
554 6 140 318 461 500 56 569 
555 6 171 585 106 257 395 48 
556 8 439 524 396 221 187 7 43 437 
557 9 389 312 128 9 467 92 11 449 319 
558 7 506 52 294 251 360 165 161 
559 6 345 197 35 381 474 365 
560 8 27 169 48 106 257 264 485 555 
561 8 501 282 307 465 28 344 44 300 
562 5 259 242 579 112 15 
563 8 93 279 121 50 143 25 63 248 
564 4 95 328 493 19 
565 9 584 8 380 463 73 441 229 174 332 
566 8 456 378 36 265 274 376 275 498 
567 6 116 67 442 471 245 157 
568 9 6 539 440 81 170 249 393 423 63 
569 9 56 408 29 156 261 390 596 119 554 
570 9 595 401 340 374 42 488 5 155 91 
571 3 535 82 577 
572 7 69 216 427 110 323 198 571 
573 9 46 414 433 171 585 577 395 82 163 
574 8 253 333 529 544 60 212 79 347 
575 9 315 306 309 113 168 240 280 59 80 
576 9 424 284 167 514 419 492 38 4 118 
577 8 82 535 395 585 573 46 433 504 
578 4 392 152 49 255 
579 9 468 15 259 550 242 302 112 354 562 
580 4 214 332 565 8 
581 7 455 526 85 590 132 339 270 
582 6 152 49 436 392 283 255 
583 7 78 541 159 418 540 299 179 
584 9 565 380 441 73 463 164 8 229 162 
585 6 395 171 555 577 573 46 
586 7 295 361 184 135 120 186 90 
587 9 72 124 438 2 226 177 417 482 485 
588 7 111 464 23 495 154 71 367 
589 9 540 54 542 159 78 179 288 234 583 
590 5 428 581 339 85 455 
591 8 192 518 127 39 182 491 448 62 
592 4 447 460 74 117 
593 9 59 16 113 291 315 280 309 168 575 
594 8 552 450 262 12 176 32 47 303 
595 9 5 155 570 401 488 222 42 340 374 
596 9 156 569 239 390 379 140 554 56 386 
DEPOT_SECTION
   1
   -1
EOF
