NAME :  X-n876-kX-w350-c7.cctp
COMMENT : 	Adapted by Maziero, Usberti and Cavellucci from the Uchoa, Pecin, Pessoa, Poggi, Subramanian, and Vidal (2013)
TYPE :  CCTP
DIMENSION :    864
EDGE_WEIGHT_TYPE : 	EUC_2D	
CAPACITY : 	764
VERTICES_WITHIN_COVERAGE :  7
VERTICES_WITH_DEMAND : 	350
NODE_COORD_SECTION
1 0 0
2 205 638
3 893 161
4 191 775
5 444 871
6 225 445
7 226 456
8 301 566
9 140 746
10 196 791
11 356 894
12 876 165
13 56 653
14 845 153
15 139 808
16 418 823
17 94 422
18 928 162
19 341 981
20 209 815
21 172 705
22 374 765
23 291 847
24 890 163
25 250 591
26 970 235
27 251 857
28 260 618
29 162 764
30 906 149
31 247 471
32 191 464
33 587 796
34 198 622
35 878 157
36 346 812
37 435 818
38 61 783
39 362 765
40 612 859
41 194 515
42 17 446
43 903 248
44 224 732
45 225 847
46 397 945
47 215 418
48 226 733
49 972 221
50 142 476
51 168 895
52 200 480
53 119 633
54 336 808
55 499 899
56 777 171
57 476 870
58 792 163
59 288 812
60 198 613
61 336 674
62 137 629
63 325 333
64 504 837
65 230 635
66 152 785
67 280 381
68 157 615
69 919 211
70 292 398
71 222 739
72 828 150
73 208 442
74 197 773
75 877 170
76 143 623
77 99 543
78 389 437
79 161 762
80 252 631
81 57 741
82 186 706
83 167 827
84 198 737
85 150 707
86 205 347
87 38 861
88 986 232
89 348 608
90 209 620
91 45 650
92 123 656
93 189 796
94 745 402
95 223 504
96 371 909
97 173 748
98 300 680
99 519 907
100 912 247
101 486 851
102 351 603
103 361 802
104 345 809
105 300 669
106 184 781
107 95 678
108 341 854
109 850 357
110 277 718
111 398 817
112 595 938
113 251 511
114 256 570
115 139 720
116 439 977
117 152 784
118 239 824
119 204 615
120 203 430
121 201 538
122 305 605
123 257 811
124 210 654
125 896 5
126 469 802
127 608 873
128 456 878
129 298 404
130 364 459
131 193 936
132 225 517
133 878 171
134 889 224
135 246 643
136 903 67
137 188 667
138 74 625
139 891 34
140 166 625
141 352 593
142 852 122
143 738 166
144 226 451
145 289 331
146 902 312
147 290 350
148 949 143
149 853 187
150 331 440
151 388 908
152 379 421
153 113 576
154 443 857
155 228 825
156 223 473
157 236 677
158 276 929
159 935 243
160 948 144
161 420 893
162 296 718
163 265 621
164 750 158
165 163 734
166 138 677
167 706 133
168 494 871
169 431 620
170 785 201
171 59 888
172 200 544
173 62 591
174 248 791
175 450 874
176 66 681
177 304 891
178 716 135
179 902 193
180 271 663
181 143 633
182 264 607
183 125 615
184 903 146
185 192 766
186 920 407
187 207 406
188 368 628
189 258 369
190 496 929
191 802 23
192 198 597
193 883 141
194 253 331
195 928 241
196 475 920
197 217 778
198 827 143
199 758 327
200 9 757
201 164 879
202 584 811
203 880 217
204 208 811
205 891 43
206 712 541
207 222 501
208 435 700
209 561 983
210 203 458
211 841 201
212 399 849
213 405 922
214 466 714
215 413 793
216 122 590
217 134 553
218 246 457
219 506 813
220 286 652
221 851 207
222 172 387
223 274 658
224 298 692
225 279 442
226 280 567
227 186 782
228 286 764
229 171 696
230 590 986
231 271 633
232 308 909
233 941 128
234 119 877
235 125 758
236 413 530
237 102 856
238 440 612
239 503 909
240 200 669
241 311 931
242 270 504
243 846 9
244 857 70
245 198 543
246 67 565
247 240 696
248 34 561
249 886 161
250 205 442
251 209 600
252 253 812
253 251 877
254 251 355
255 907 166
256 410 893
257 475 886
258 846 170
259 799 232
260 307 561
261 281 561
262 356 706
263 685 879
264 213 97
265 221 776
266 766 256
267 139 792
268 504 966
269 188 458
270 462 208
271 990 280
272 425 862
273 132 617
274 317 742
275 264 341
276 324 634
277 469 950
278 27 749
279 219 393
280 351 815
281 921 173
282 449 874
283 256 693
284 669 859
285 903 164
286 159 801
287 175 650
288 323 607
289 891 152
290 440 836
291 210 737
292 191 758
293 108 780
294 900 213
295 828 139
296 181 452
297 359 351
298 178 757
299 283 436
300 44 689
301 186 659
302 314 859
303 102 737
304 658 1
305 453 791
306 425 948
307 173 424
308 149 514
309 790 64
310 214 648
311 277 686
312 516 905
313 278 844
314 787 72
315 461 796
316 78 694
317 144 616
318 41 715
319 213 755
320 158 408
321 205 785
322 157 504
323 166 607
324 66 652
325 400 881
326 242 589
327 385 910
328 153 665
329 67 514
330 228 344
331 579 475
332 614 815
333 735 79
334 810 90
335 4 658
336 330 500
337 427 846
338 19 918
339 327 672
340 956 153
341 224 587
342 392 748
343 886 154
344 249 734
345 812 115
346 733 302
347 414 635
348 283 479
349 608 925
350 397 947
351 217 460
352 214 448
353 164 620
354 230 662
355 935 216
356 201 694
357 94 787
358 461 857
359 171 743
360 35 898
361 856 88
362 264 895
363 292 579
364 316 750
365 557 864
366 192 747
367 790 501
368 859 177
369 202 584
370 418 862
371 154 613
372 278 613
373 116 568
374 367 501
375 355 974
376 270 414
377 199 663
378 753 185
379 611 937
380 389 841
381 493 814
382 467 883
383 196 686
384 979 283
385 671 251
386 299 613
387 175 481
388 246 965
389 78 763
390 292 719
391 303 526
392 452 889
393 255 855
394 412 741
395 179 436
396 420 960
397 899 140
398 248 445
399 365 372
400 378 855
401 567 731
402 826 202
403 250 767
404 139 394
405 513 894
406 881 116
407 370 942
408 750 291
409 104 402
410 31 560
411 417 940
412 798 198
413 495 914
414 894 162
415 154 817
416 94 373
417 287 483
418 528 792
419 835 226
420 234 636
421 260 750
422 461 894
423 56 594
424 140 517
425 234 489
426 318 719
427 994 143
428 77 565
429 224 758
430 464 893
431 281 604
432 443 852
433 961 214
434 183 785
435 186 551
436 158 602
437 978 344
438 230 446
439 271 713
440 286 851
441 571 979
442 287 648
443 344 511
444 828 52
445 38 560
446 243 482
447 309 469
448 198 727
449 162 732
450 11 367
451 875 159
452 172 772
453 522 762
454 204 654
455 844 215
456 953 250
457 343 611
458 373 950
459 535 887
460 456 964
461 131 688
462 125 751
463 429 875
464 230 449
465 207 652
466 188 430
467 186 661
468 72 422
469 464 984
470 79 664
471 765 213
472 284 425
473 450 818
474 110 733
475 84 781
476 178 864
477 863 164
478 993 250
479 176 591
480 161 837
481 930 143
482 189 469
483 217 803
484 229 622
485 459 776
486 950 81
487 201 599
488 236 408
489 222 762
490 198 340
491 119 621
492 157 367
493 844 132
494 362 469
495 376 725
496 68 519
497 914 192
498 316 406
499 313 830
500 169 799
501 866 82
502 447 48
503 231 439
504 155 565
505 926 70
506 884 109
507 857 163
508 378 718
509 598 885
510 430 709
511 484 848
512 360 441
513 214 376
514 998 234
515 274 547
516 410 782
517 348 364
518 141 549
519 299 851
520 300 676
521 175 712
522 881 110
523 406 657
524 961 115
525 437 830
526 178 409
527 355 879
528 639 866
529 246 245
530 347 454
531 976 180
532 199 482
533 272 456
534 208 828
535 241 865
536 335 749
537 85 741
538 250 783
539 872 257
540 517 540
541 578 822
542 240 562
543 269 374
544 511 912
545 412 876
546 151 889
547 454 724
548 248 646
549 388 408
550 892 169
551 314 508
552 410 905
553 905 265
554 208 626
555 826 31
556 366 446
557 520 859
558 882 216
559 866 142
560 201 723
561 489 953
562 207 436
563 931 286
564 315 420
565 465 765
566 178 725
567 959 212
568 286 836
569 106 783
570 839 161
571 207 653
572 880 197
573 100 699
574 413 467
575 587 908
576 900 226
577 409 902
578 108 725
579 173 511
580 192 541
581 439 901
582 359 922
583 201 403
584 494 798
585 567 243
586 254 441
587 405 913
588 186 353
589 592 884
590 241 806
591 93 947
592 253 495
593 201 793
594 865 120
595 150 564
596 870 80
597 96 770
598 269 599
599 881 203
600 173 844
601 326 854
602 840 141
603 153 454
604 302 878
605 347 728
606 182 600
607 235 375
608 94 682
609 476 900
610 127 659
611 250 889
612 165 659
613 822 95
614 328 818
615 562 462
616 894 76
617 237 482
618 824 116
619 266 674
620 336 376
621 301 679
622 193 527
623 105 922
624 449 905
625 456 866
626 192 347
627 432 995
628 183 480
629 192 660
630 472 711
631 187 859
632 581 666
633 144 458
634 310 462
635 506 672
636 309 439
637 129 762
638 182 351
639 193 763
640 69 514
641 978 382
642 291 445
643 360 980
644 253 694
645 121 840
646 254 614
647 255 472
648 229 456
649 187 667
650 242 459
651 295 602
652 247 488
653 248 604
654 62 657
655 229 502
656 141 521
657 906 287
658 84 662
659 18 916
660 255 564
661 310 815
662 345 904
663 215 593
664 464 806
665 161 464
666 392 457
667 608 839
668 417 815
669 257 751
670 409 779
671 211 656
672 438 990
673 941 191
674 357 627
675 207 488
676 298 756
677 217 656
678 139 755
679 163 715
680 68 718
681 770 153
682 927 408
683 894 196
684 185 765
685 135 490
686 462 963
687 90 548
688 464 630
689 179 821
690 794 244
691 415 844
692 183 692
693 852 76
694 421 782
695 911 258
696 220 422
697 22 663
698 115 875
699 395 921
700 476 787
701 258 531
702 59 511
703 160 758
704 243 815
705 100 547
706 350 659
707 290 496
708 202 526
709 834 185
710 179 431
711 831 192
712 48 759
713 420 813
714 17 690
715 76 737
716 135 595
717 670 983
718 339 453
719 283 751
720 143 945
721 18 770
722 284 822
723 469 797
724 188 429
725 866 252
726 240 763
727 368 807
728 135 728
729 946 170
730 223 936
731 262 582
732 488 315
733 466 885
734 171 610
735 781 308
736 204 837
737 240 317
738 310 479
739 812 120
740 173 655
741 150 951
742 208 651
743 991 264
744 572 917
745 158 650
746 179 716
747 124 629
748 31 691
749 306 444
750 186 627
751 435 842
752 247 809
753 591 791
754 152 737
755 382 828
756 292 231
757 180 671
758 282 357
759 184 786
760 179 972
761 991 236
762 861 165
763 178 631
764 168 595
765 361 801
766 445 783
767 905 182
768 420 492
769 232 684
770 836 157
771 208 436
772 202 676
773 366 385
774 186 381
775 191 251
776 320 398
777 440 871
778 258 785
779 234 547
780 912 151
781 250 390
782 936 66
783 68 604
784 760 76
785 346 276
786 178 751
787 213 655
788 106 789
789 531 949
790 185 662
791 495 886
792 277 823
793 271 387
794 228 881
795 816 221
796 893 185
797 238 980
798 215 871
799 119 397
800 166 588
801 91 782
802 238 440
803 139 814
804 332 800
805 305 717
806 27 398
807 194 401
808 305 676
809 466 826
810 256 531
811 153 742
812 262 837
813 268 447
814 923 23
815 442 792
816 846 349
817 193 755
818 224 543
819 627 869
820 972 244
821 209 903
822 266 665
823 275 565
824 128 462
825 487 879
826 110 751
827 168 744
828 837 152
829 172 880
830 496 803
831 215 624
832 992 152
833 218 497
834 960 163
835 249 552
836 156 649
837 237 830
838 229 818
839 261 498
840 350 941
841 419 930
842 887 318
843 57 375
844 432 935
845 226 708
846 178 634
847 200 453
848 452 696
849 155 636
850 304 808
851 265 655
852 522 889
853 199 348
854 268 963
855 966 105
856 315 324
857 197 285
858 485 935
859 398 221
860 214 630
861 244 736
862 230 784
863 177 772
864 205 796
DEMAND_SECTION
2 25
3 94
4 71
5 59
6 35
7 5
8 45
9 40
10 6
11 72
12 23
13 93
14 13
15 83
16 26
17 11
18 6
19 91
20 68
21 7
22 75
23 31
24 33
25 86
26 42
27 43
28 77
29 35
30 74
31 37
32 55
33 49
34 18
35 72
36 69
37 72
38 72
39 65
40 51
41 71
42 69
43 23
44 58
45 28
46 91
47 4
48 2
49 62
50 11
51 94
52 1
53 76
54 56
55 21
56 57
57 24
58 95
59 84
60 54
61 6
62 55
63 10
64 87
65 94
66 55
67 42
68 14
69 70
70 79
71 40
72 32
73 1
74 57
75 21
76 78
77 33
78 82
79 8
80 54
81 11
82 49
83 23
84 83
85 26
86 21
87 86
88 83
89 82
90 14
91 54
92 67
93 93
94 13
95 75
96 72
97 7
98 15
99 71
100 9
101 44
102 84
103 49
104 42
105 71
106 50
107 30
108 85
109 99
110 15
111 11
112 35
113 98
114 99
115 43
116 17
117 47
118 97
119 42
120 64
121 100
122 75
123 20
124 20
125 87
126 78
127 45
128 62
129 28
130 74
131 23
132 57
133 84
134 14
135 5
136 32
137 23
138 25
139 18
140 84
141 17
142 19
143 29
144 98
145 64
146 38
147 20
148 4
149 29
150 14
151 2
152 53
153 20
154 58
155 46
156 15
157 77
158 78
159 38
160 11
161 98
162 12
163 66
164 60
165 81
166 99
167 24
168 58
169 96
170 60
171 49
172 77
173 77
174 21
175 76
176 96
177 48
178 44
179 19
180 50
181 64
182 98
183 84
184 3
185 81
186 41
187 99
188 57
189 54
190 40
191 69
192 72
193 57
194 7
195 63
196 23
197 26
198 65
199 23
200 70
201 31
202 34
203 90
204 67
205 70
206 50
207 68
208 83
209 93
210 97
211 7
212 55
213 42
214 78
215 4
216 67
217 25
218 1
219 43
220 47
221 10
222 92
223 52
224 98
225 47
226 36
227 82
228 48
229 9
230 41
231 16
232 24
233 68
234 25
235 5
236 58
237 86
238 33
239 22
240 12
241 38
242 73
243 48
244 25
245 53
246 82
247 75
248 98
249 92
250 17
251 46
252 89
253 35
254 63
255 5
256 42
257 7
258 78
259 87
260 38
261 22
262 55
263 20
264 72
265 50
266 11
267 61
268 53
269 17
270 99
271 53
272 35
273 23
274 50
275 8
276 62
277 89
278 39
279 15
280 50
281 22
282 67
283 71
284 87
285 19
286 81
287 43
288 58
289 79
290 11
291 44
292 97
293 53
294 36
295 50
296 66
297 15
298 69
299 23
300 54
301 52
302 75
303 76
304 5
305 91
306 8
307 54
308 68
309 39
310 76
311 39
312 76
313 57
314 29
315 86
316 43
317 53
318 73
319 80
320 97
321 2
322 13
323 19
324 27
325 95
326 11
327 21
328 61
329 5
330 79
331 56
332 66
333 83
334 91
335 7
336 77
337 81
338 24
339 50
340 48
341 95
342 21
343 62
344 28
345 37
346 81
347 55
348 60
349 27
350 69
351 34
COVERAGE_SECTION
2 7 554 860 310 742 465 571 454 
3 7 414 24 249 550 289 285 343 
4 7 74 106 185 227 639 684 434 
5 7 777 282 175 625 128 154 463 
6 7 438 144 464 503 7 352 648 
7 7 648 144 464 351 6 438 352 
8 7 260 363 226 261 823 515 651 
9 7 678 811 754 462 235 637 728 
10 7 593 93 864 321 227 759 434 
11 7 527 662 96 582 327 151 108 
12 7 75 133 451 35 249 477 24 
13 7 654 324 91 470 658 176 138 
14 7 828 570 770 602 507 72 258 
15 7 803 267 415 286 66 117 500 
16 7 668 713 37 525 111 691 337 
17 7 409 468 799 416 824 404 843 
18 7 281 481 780 729 255 285 30 
19 7 375 643 840 458 407 241 582 
20 7 204 534 483 864 838 155 593 
21 7 521 229 679 746 82 692 566 
22 7 39 342 670 765 103 495 516 
23 7 440 519 568 313 302 722 499 
24 7 3 249 414 550 343 289 35 
25 7 326 653 731 182 598 114 646 
26 7 820 49 88 761 433 456 567 
27 7 393 535 253 812 45 313 837 
28 7 163 646 182 80 653 231 372 
29 7 79 703 452 298 863 97 786 
30 7 184 780 397 285 289 255 3 
31 7 647 446 650 218 617 652 425 
32 7 482 269 210 847 296 52 628 
33 7 753 202 541 332 667 418 40 
34 7 60 119 90 554 750 2 831 
35 7 451 12 249 343 24 75 133 
36 7 104 280 54 103 804 614 765 
37 7 525 473 713 16 668 290 751 
38 7 475 389 712 801 357 597 81 
39 7 22 536 342 765 103 605 495 
40 7 127 819 667 528 509 589 332 
41 7 622 708 579 121 580 245 172 
42 7 806 468 702 450 17 843 329 
43 7 100 695 553 576 195 134 159 
44 7 48 71 291 861 845 319 344 
45 7 837 155 736 535 534 798 118 
46 7 350 411 213 699 458 396 407 
47 7 696 187 120 771 562 583 488 
48 7 44 71 291 861 344 429 845 
49 7 433 26 567 88 820 761 514 
50 7 685 633 824 665 603 322 387 
51 7 201 829 546 476 631 821 131 
52 7 532 675 482 628 32 210 156 
53 7 747 491 62 183 273 92 181 
54 7 104 804 36 614 280 103 765 
55 7 239 791 405 413 312 544 99 
56 7 58 681 378 164 170 412 143 
57 7 825 257 382 168 733 358 625 
58 7 56 681 412 72 170 198 164 
59 7 722 792 850 661 568 123 499 
60 7 119 34 90 487 192 554 251 
61 7 339 706 808 621 98 105 520 
62 7 181 76 273 747 317 53 183 
63 7 856 145 297 147 517 620 758 
64 7 101 511 219 381 557 168 830 
65 7 420 484 860 135 831 310 548 
66 7 117 267 286 500 29 452 79 
67 7 793 543 70 758 189 129 781 
68 7 371 353 323 140 317 436 734 
69 7 355 294 497 576 179 683 673 
70 7 129 67 793 498 376 472 776 
71 7 44 48 291 319 429 861 489 
72 7 198 828 295 770 602 570 14 
73 7 250 562 771 352 120 847 6 
74 7 4 185 639 227 321 684 106 
75 7 133 12 451 35 249 24 477 
76 7 317 62 181 273 371 68 849 
77 7 705 687 373 428 153 217 246 
78 7 152 666 556 512 549 130 574 
79 7 29 703 452 97 298 827 863 
80 7 135 28 163 548 646 231 420 
81 7 715 712 680 537 389 278 318 
82 7 746 521 21 692 229 356 566 
83 7 480 689 415 600 286 500 803 
84 7 448 291 366 560 817 292 319 
85 7 679 115 21 229 521 728 461 
86 7 853 490 626 588 330 638 513 
87 7 171 360 659 338 237 698 38 
88 7 761 514 26 49 820 478 433 
89 7 102 457 141 674 288 188 276 
90 7 554 119 831 34 860 60 2 
91 7 13 654 324 697 176 470 138 
92 7 610 53 166 747 62 181 328 
93 7 10 759 593 434 227 106 864 
94 7 199 346 735 367 408 109 816 
95 7 207 655 833 132 425 675 617 
96 7 327 151 582 11 662 699 407 
97 7 359 786 827 298 703 165 79 
98 7 621 520 808 105 224 311 339 
99 7 312 544 405 239 852 55 413 
100 7 43 695 195 553 159 576 134 
101 7 511 57 168 64 358 825 809 
102 7 89 141 457 674 288 188 276 
103 7 765 727 280 104 36 54 804 
104 7 36 280 54 804 103 765 614 
105 7 520 808 621 98 220 224 442 
106 7 227 434 759 4 863 74 452 
107 7 608 658 470 573 316 176 92 
108 7 601 302 527 400 499 614 280 
109 5 816 842 146 735 186 
110 7 439 390 162 805 311 344 224 
111 7 668 755 16 713 380 215 212 
112 7 379 349 575 744 230 441 509 
113 7 592 839 242 701 810 652 655 
114 7 660 731 542 835 823 25 226 
115 7 728 85 754 679 9 449 811 
116 7 672 627 460 396 469 686 306 
117 7 66 267 286 29 452 500 79 
118 7 837 704 155 838 752 252 590 
119 7 60 90 34 554 831 251 487 
120 7 562 771 250 73 466 724 47 
121 7 172 245 580 708 622 435 41 
122 7 386 651 288 431 372 363 276 
123 7 252 752 704 590 118 174 792 
124 7 671 571 787 465 742 454 310 
125 7 139 814 205 243 136 616 505 
126 7 723 664 315 700 305 809 473 
127 7 40 509 589 819 528 667 575 
128 7 175 282 382 392 625 733 5 
129 7 70 498 564 776 472 67 376 
130 7 494 556 512 530 718 666 78 
131 7 730 821 760 741 51 720 388 
132 7 95 207 655 833 708 818 113 
133 7 75 12 451 249 24 35 550 
134 7 203 558 576 294 599 43 572 
135 7 548 80 420 65 851 354 231 
136 7 616 505 205 782 139 596 501 
137 7 649 467 790 301 629 757 240 
138 7 783 324 13 654 173 423 91 
139 7 205 125 814 136 616 244 505 
140 7 353 68 763 846 734 849 371 
141 7 102 89 457 288 674 188 122 
142 7 493 594 602 559 295 618 406 
143 7 164 378 681 178 56 167 58 
144 7 464 7 6 438 648 352 351 
145 7 147 275 758 856 63 194 254 
146 6 842 657 563 553 695 539 
147 7 758 145 275 543 67 856 189 
148 7 160 340 233 481 834 729 18 
149 7 368 211 258 709 221 711 762 
150 7 718 530 636 749 564 512 634 
151 7 327 699 96 587 213 552 577 
152 7 549 78 512 556 666 773 130 
153 7 373 216 716 217 705 77 687 
154 7 432 5 777 625 751 175 282 
155 7 838 837 118 704 534 20 45 
156 7 351 7 617 648 425 144 446 
157 7 769 354 247 644 283 677 619 
158 7 241 854 362 232 177 388 611 
159 7 195 456 100 355 695 43 26 
160 7 148 340 233 481 834 729 18 
161 7 256 577 552 545 463 581 325 
162 7 390 805 110 426 439 224 274 
163 7 28 231 646 182 372 80 598 
164 7 143 681 378 56 178 58 167 
165 7 449 754 827 359 811 97 566 
166 7 461 328 610 92 85 612 836 
167 7 178 143 164 333 681 378 784 
168 7 825 791 57 101 257 511 55 
169 7 238 347 688 523 188 674 848 
170 7 412 471 56 259 378 795 58 
171 7 360 87 338 659 237 623 698 
172 7 245 121 580 435 622 708 818 
173 7 423 783 246 428 138 445 248 
174 7 538 778 590 752 862 123 252 
175 7 282 5 128 625 777 392 154 
176 7 316 470 300 654 658 608 107 
177 7 604 232 302 362 519 241 601 
178 7 167 143 164 681 333 378 56 
179 7 683 767 497 796 294 572 599 
180 7 822 223 851 619 220 442 311 
181 7 62 76 849 317 273 747 836 
182 7 598 28 646 163 372 653 431 
183 7 273 491 747 62 53 317 76 
184 7 30 397 780 289 3 285 414 
185 7 639 684 292 4 74 817 863 
186 7 682 641 109 437 816 842 146 
187 7 583 47 807 279 696 120 488 
188 7 674 89 102 457 706 141 276 
189 7 543 254 781 793 607 67 758 
190 7 858 413 239 196 544 561 55 
191 7 555 444 309 243 314 334 784 
192 7 487 251 369 60 606 663 119 
193 7 343 289 397 35 559 249 451 
194 7 275 737 254 330 145 189 758 
195 7 159 100 695 43 355 456 69 
196 7 858 609 413 190 430 239 422 
197 7 265 321 862 489 74 429 593 
198 7 295 72 602 828 770 493 14 
199 6 735 346 408 266 94 690 
200 7 721 278 712 81 318 38 714 
201 7 829 51 546 476 631 600 480 
202 7 541 33 753 332 667 40 365 
203 7 558 134 599 294 572 576 683 
204 7 20 483 864 534 593 838 10 
205 7 139 136 616 125 814 244 596 
206 6 367 94 331 615 632 540 
207 7 95 833 655 132 425 675 617 
208 7 510 848 547 214 630 394 523 
209 7 441 230 789 112 268 744 379 
210 7 847 32 351 269 352 250 73 
211 7 221 711 455 402 709 149 419 
212 7 380 691 400 370 755 337 272 
213 7 587 699 841 552 577 151 411 
214 7 630 547 848 208 510 565 635 
215 7 516 694 670 713 668 111 815 
216 7 716 153 373 183 273 491 317 
217 7 518 595 373 504 153 656 705 
218 7 650 398 31 647 648 464 586 
219 7 381 830 584 64 418 126 700 
220 7 442 223 180 851 105 231 822 
221 7 455 211 149 402 419 711 709 
222 7 774 526 320 492 807 583 404 
223 7 180 851 822 220 442 619 231 
224 7 98 621 520 808 311 105 162 
225 7 299 642 813 533 472 586 749 
226 7 823 261 363 8 515 731 114 
227 7 106 434 759 4 10 863 74 
228 7 719 676 421 669 364 778 403 
229 7 21 692 521 82 679 746 85 
230 7 441 209 112 379 349 789 744 
231 7 163 28 80 372 442 851 220 
232 7 177 241 604 662 158 362 11 
233 7 148 160 481 524 340 855 18 
234 7 698 237 546 645 201 623 51 
235 7 637 462 678 826 9 293 474 
236 7 768 374 574 443 666 494 130 
237 7 698 645 234 171 803 546 15 
238 7 169 688 347 523 188 674 848 
239 7 413 544 55 312 99 405 190 
240 7 377 772 137 629 649 454 467 
241 7 232 158 840 177 662 582 604 
242 7 839 592 113 707 417 348 652 
243 7 555 191 444 125 139 205 244 
244 7 693 501 596 361 444 616 205 
245 7 172 121 580 435 622 708 818 
246 7 428 173 445 687 423 248 410 
247 7 644 769 283 845 157 619 354 
248 7 410 445 246 423 173 428 496 
249 7 24 3 343 414 35 289 550 
250 7 73 562 771 352 120 847 210 
251 7 487 663 192 119 60 369 90 
252 7 123 752 704 590 118 174 837 
253 7 611 535 27 362 393 794 798 
254 7 189 275 194 330 543 607 758 
255 7 285 414 3 550 281 767 780 
256 7 577 161 552 325 545 587 463 
257 7 382 733 430 609 825 57 422 
258 7 570 507 368 762 770 14 149 
259 7 690 795 170 412 419 471 402 
260 7 8 363 261 226 823 391 515 
261 7 226 823 515 8 363 260 660 
262 7 605 508 495 61 426 339 706 
263 7 284 528 819 40 127 509 667 
264 6 529 756 775 857 737 785 
265 7 197 862 489 321 429 319 726 
266 7 690 408 259 471 735 346 170 
267 7 66 117 15 286 803 415 500 
268 7 561 789 858 190 277 686 469 
269 7 32 296 482 847 210 250 628 
270 7 859 732 585 785 502 756 297 
271 7 384 743 478 820 761 514 88 
272 7 370 463 337 777 154 545 5 
273 7 183 317 62 76 491 747 181 
274 7 364 536 426 676 805 162 605 
275 7 194 254 758 145 147 189 543 
276 7 288 457 386 674 89 122 706 
277 7 686 460 561 858 196 190 469 
278 7 200 712 721 81 318 38 715 
279 7 187 513 583 488 607 47 807 
280 7 36 104 103 54 765 727 614 
281 7 18 255 767 285 497 780 729 
282 7 175 5 128 777 625 392 154 
283 7 644 247 619 311 439 157 769 
284 7 263 528 819 40 127 667 332 
285 7 255 414 3 550 24 30 780 
286 7 500 66 415 117 15 267 803 
287 7 740 612 301 467 790 846 745 
288 7 122 457 89 386 276 102 651 
289 7 343 3 249 414 24 184 35 
290 7 525 751 337 432 37 154 473 
291 7 71 84 44 48 448 560 319 
292 7 817 639 185 684 366 298 786 
293 7 569 788 357 597 801 475 235 
294 7 576 134 558 683 69 179 203 
295 7 198 72 602 828 493 770 14 
296 7 269 32 395 482 847 710 210 
297 7 517 399 620 773 63 856 776 
298 7 786 97 684 292 817 863 359 
299 7 225 472 642 813 533 749 376 
300 7 748 176 318 714 316 697 654 
301 7 467 790 629 137 649 757 287 
302 7 601 519 604 23 108 440 499 
303 7 474 578 826 537 715 462 235 
304 7 333 784 167 178 191 309 314 
305 7 315 766 815 485 723 126 664 
306 7 411 396 844 841 46 350 116 
307 7 710 395 466 526 724 320 296 
308 7 424 656 322 579 685 518 50 
309 7 314 784 334 444 191 613 555 
310 7 124 742 787 465 571 671 677 
311 7 619 224 283 98 180 822 520 
312 7 99 544 405 239 852 55 413 
313 7 440 568 23 812 792 519 722 
314 7 309 784 334 613 444 345 191 
315 7 723 305 126 664 700 815 485 
316 7 176 608 107 573 680 470 658 
317 7 76 371 273 68 62 181 183 
318 7 300 748 680 81 714 278 715 
319 7 429 489 71 291 817 265 292 
320 7 526 307 404 222 710 395 466 
321 7 593 10 864 74 197 4 265 
322 7 308 579 424 656 685 387 50 
323 7 734 436 68 764 353 371 606 
324 7 654 13 470 91 658 138 176 
325 7 545 256 161 577 370 552 151 
326 7 25 653 341 731 114 542 663 
327 7 151 96 699 587 213 552 577 
328 7 612 745 836 166 740 287 610 
329 7 640 496 702 687 77 705 246 
330 7 86 254 194 853 490 737 607 
331 6 615 540 206 768 574 236 
332 7 667 202 33 753 541 40 819 
333 7 784 314 309 178 167 334 164 
334 7 613 345 314 618 739 309 444 
335 7 697 714 91 748 300 13 654 
336 7 443 551 738 374 391 447 707 
337 7 751 691 272 290 432 370 154 
338 7 659 360 171 87 591 623 237 
339 7 61 808 706 105 520 621 98 
340 7 834 148 160 729 481 18 233 
341 7 663 326 251 369 25 487 192 
342 7 394 22 495 508 39 670 516 
343 7 289 249 35 3 24 414 451 
344 7 861 421 669 48 44 71 439 
345 7 739 618 613 334 295 198 493 
346 7 408 199 735 266 385 690 471 
347 7 169 523 238 188 688 674 208 
348 7 417 707 533 738 242 447 647 
349 7 379 112 575 744 509 589 127 
350 7 46 411 458 213 396 699 407 
351 7 7 352 144 648 156 210 6 
352 7 73 6 250 144 351 771 7 
353 7 140 68 371 734 323 763 849 
354 7 677 157 787 671 310 124 769 
355 6 69 567 195 433 673 159 
356 7 383 692 772 82 240 560 845 
357 7 801 475 788 569 293 597 389 
358 7 625 154 432 57 175 282 5 
359 7 827 97 786 165 449 298 811 
360 7 659 171 338 87 623 591 237 
361 7 501 693 596 244 522 594 142 
362 7 611 253 158 535 794 27 177 
363 7 8 226 261 823 260 651 431 
364 7 274 536 676 426 228 719 805 
365 7 459 557 589 852 509 541 127 
366 7 817 292 84 786 639 298 97 
367 7 206 94 109 186 816 682 199 
368 7 149 762 477 507 258 75 133 
369 6 192 487 663 251 341 606 
370 7 272 545 463 337 691 212 777 
371 7 68 317 353 436 323 76 140 
372 7 431 163 182 598 28 651 231 
373 7 153 216 217 705 77 518 687 
374 7 443 494 336 130 530 666 551 
375 7 643 19 458 840 407 350 46 
376 4 472 299 70 793 
377 7 240 629 454 137 467 571 649 
378 7 143 164 56 471 170 681 58 
379 7 349 112 575 744 230 509 589 
380 7 212 755 400 111 691 16 370 
381 7 830 219 584 64 126 723 664 
382 7 733 257 430 128 422 57 392 
383 7 356 772 692 240 137 649 82 
384 7 271 743 478 820 456 563 26 
385 7 346 408 266 471 585 378 143 
386 7 122 651 431 372 288 276 598 
387 7 628 482 665 32 532 52 269 
388 7 797 854 730 158 131 760 362 
389 7 475 597 537 801 38 715 357 
390 7 162 805 110 439 426 224 719 
391 7 551 707 260 515 336 8 242 
392 7 422 128 430 175 282 733 382 
393 7 27 535 812 253 313 45 440 
394 7 342 510 670 495 508 516 694 
395 7 710 466 724 307 296 269 120 
396 7 306 411 116 350 46 844 841 
397 7 184 30 289 193 780 343 3 
398 7 586 802 218 650 438 464 503 
399 7 773 517 297 620 549 152 776 
400 7 380 212 755 527 325 108 691 
401 7 453 753 632 33 418 202 635 
402 7 711 211 709 795 455 221 419 
403 7 726 538 669 421 778 174 862 
404 7 799 320 492 222 409 526 307 
405 7 852 312 99 55 239 544 791 
406 7 522 506 594 193 142 397 559 
407 7 458 840 582 46 350 96 699 
408 7 346 735 199 266 690 259 471 
409 7 799 17 416 404 468 320 843 
410 7 248 445 246 423 173 428 496 
411 7 841 306 844 396 46 350 213 
412 7 170 402 795 56 259 711 58 
413 7 239 190 55 544 196 312 858 
414 7 3 24 550 249 285 289 343 
415 7 803 83 15 286 480 500 689 
416 7 409 799 843 17 404 468 492 
417 7 348 707 738 447 242 839 533 
418 7 219 453 830 584 381 64 700 
419 6 455 795 221 211 402 711 
420 7 65 135 484 548 80 860 831 
421 7 669 344 403 861 719 726 228 
422 7 430 392 733 382 257 609 624 
423 7 173 783 246 138 428 445 248 
424 7 656 308 322 685 518 579 217 
425 7 617 446 652 655 207 833 95 
426 7 805 162 274 390 605 364 224 
427 7 832 340 834 531 524 148 160 
428 7 246 687 705 173 77 423 153 
429 7 489 319 726 265 71 197 48 
430 7 422 733 382 257 392 609 128 
431 7 372 598 651 182 386 163 122 
432 7 154 751 290 337 5 358 625 
433 6 567 49 26 355 673 88 
434 7 759 106 227 4 93 10 863 
435 6 580 245 172 121 622 708 
436 7 323 371 764 68 734 800 353 
437 7 641 384 271 563 743 146 682 
438 7 464 6 144 503 648 802 7 
439 7 110 390 162 283 644 311 344 
440 7 23 313 519 568 812 302 722 
441 7 209 230 112 789 379 744 349 
442 7 220 223 180 231 851 105 822 
443 7 336 374 551 391 494 738 447 
444 7 555 244 693 191 309 334 613 
445 7 248 410 246 423 173 428 496 
446 7 617 652 425 31 592 647 156 
447 7 634 738 749 417 348 636 642 
448 7 560 84 291 566 366 746 82 
449 7 165 754 811 827 359 566 679 
450 7 806 843 42 468 416 409 17 
451 7 35 12 75 249 133 343 477 
452 7 863 29 79 106 684 298 227 
453 7 418 584 830 700 219 401 565 
454 7 571 465 742 124 671 787 377 
455 7 221 211 419 402 711 149 795 
456 7 159 820 26 195 49 433 88 
457 7 89 102 141 288 674 188 276 
458 7 407 350 46 840 375 582 643 
459 7 852 405 99 312 365 557 544 
460 7 686 277 116 469 672 306 561 
461 7 166 85 610 328 92 115 573 
462 7 235 637 678 826 9 474 728 
463 7 777 272 5 370 545 161 282 
464 7 438 144 6 648 7 503 802 
465 7 571 742 124 454 671 787 310 
466 7 724 710 395 120 307 562 250 
467 7 790 301 137 629 649 757 377 
468 7 17 409 843 806 799 416 42 
469 7 686 460 116 672 277 627 561 
470 7 658 324 654 107 176 608 13 
471 7 170 378 412 259 690 266 56 
472 6 299 225 376 642 129 813 
473 7 37 525 664 809 290 126 315 
474 7 578 303 826 462 728 537 235 
475 7 801 357 597 389 569 38 788 
476 7 631 829 201 600 480 51 546 
477 7 762 507 12 451 368 75 35 
478 7 743 761 514 88 820 26 271 
479 6 764 800 606 323 734 436 
480 7 83 600 415 689 476 803 631 
481 7 160 18 148 233 780 30 184 
482 7 32 269 628 52 532 210 387 
483 7 204 20 864 593 838 321 862 
484 7 65 831 420 860 90 554 80 
485 7 565 305 766 315 700 723 815 
486 7 782 505 855 524 233 136 616 
487 7 192 251 60 369 663 119 606 
488 4 696 47 279 781 
489 7 429 319 265 197 726 71 862 
490 7 853 626 86 588 638 330 513 
491 7 183 747 53 273 62 76 317 
492 7 222 638 404 588 774 626 320 
493 7 602 142 295 198 14 828 72 
494 7 130 530 556 512 718 374 666 
495 7 508 262 342 605 394 22 39 
496 7 329 640 702 687 77 705 246 
497 7 179 767 69 281 683 796 294 
498 7 776 564 129 70 636 620 150 
499 7 661 614 850 519 601 23 568 
500 7 286 93 434 759 66 106 117 
501 7 596 361 244 693 616 506 522 
502 7 270 859 304 585 264 756 785 
503 7 438 802 6 464 144 648 7 
504 5 595 518 217 800 479 
505 7 782 136 486 616 205 814 139 
506 7 522 406 594 193 501 596 397 
507 7 762 477 258 368 14 451 570 
508 7 495 262 342 605 394 22 39 
509 7 589 127 575 40 819 349 744 
510 7 208 848 547 214 394 630 508 
511 7 101 57 64 168 358 809 825 
512 7 556 130 530 718 152 494 78 
513 7 279 607 774 86 583 187 807 
514 7 761 88 478 26 820 49 743 
515 7 261 823 226 701 810 660 835 
516 7 670 215 694 713 668 815 766 
517 7 297 620 399 773 63 776 856 
518 6 217 595 504 656 373 424 
519 7 23 440 302 568 313 499 601 
520 7 621 98 808 105 224 311 339 
521 7 746 21 679 82 566 229 692 
522 7 506 406 594 142 193 501 596 
523 7 347 169 188 208 238 706 510 
524 7 855 233 148 160 486 340 481 
525 7 290 37 751 473 337 16 432 
526 7 307 807 320 710 724 222 466 
527 7 11 662 108 400 96 601 327 
528 7 819 40 284 127 667 509 263 
529 6 756 775 857 737 194 145 
530 7 718 130 512 150 494 556 634 
531 6 834 729 832 340 567 433 
532 7 52 675 482 628 32 210 387 
533 7 813 225 642 299 586 647 348 
534 7 736 20 204 155 838 45 483 
535 7 27 253 393 794 45 611 798 
536 7 274 364 605 39 426 676 22 
537 7 715 303 389 474 826 81 578 
538 7 174 778 403 862 726 590 752 
539 4 725 43 553 134 
540 7 331 615 236 688 238 768 169 
541 7 202 33 667 753 332 365 40 
542 7 835 660 779 114 818 326 341 
543 7 189 67 793 758 781 254 147 
544 7 99 239 312 413 55 405 190 
545 7 325 370 256 463 161 272 577 
546 7 201 51 829 234 476 698 631 
547 7 214 630 510 848 208 565 394 
548 7 135 80 420 851 65 354 231 
549 7 152 78 773 399 512 556 666 
550 7 24 414 3 249 285 133 75 
551 7 336 391 707 738 443 417 447 
552 7 577 587 256 161 213 151 699 
553 7 695 43 100 657 195 563 539 
554 7 90 831 860 34 2 119 60 
555 7 444 191 243 309 244 693 314 
556 7 512 130 530 494 78 152 666 
557 7 64 168 852 459 101 405 365 
558 7 203 134 599 294 572 576 683 
559 7 193 35 451 477 594 343 507 
560 7 448 84 291 82 566 746 44 
561 7 858 268 277 190 686 460 196 
562 7 771 73 250 120 352 847 696 
563 7 657 553 695 146 456 100 159 
564 7 498 636 129 776 150 749 472 
565 7 485 700 766 305 315 723 815 
566 7 746 521 165 449 679 359 448 
567 6 433 49 355 26 673 88 
568 7 313 23 722 440 792 519 59 
569 7 293 788 357 801 597 475 235 
570 7 770 828 14 258 72 507 602 
571 7 465 742 124 454 671 787 310 
572 7 599 683 796 558 203 179 133 
573 7 608 107 316 578 461 474 680 
574 7 666 768 78 130 494 556 152 
575 7 744 509 589 349 112 379 127 
576 7 134 294 558 43 203 69 100 
577 7 552 256 587 161 213 151 325 
578 7 474 303 826 573 728 537 115 
579 7 322 41 308 622 387 628 708 
580 7 245 121 172 435 622 708 41 
581 7 624 392 161 422 430 463 128 
582 7 96 840 407 662 11 327 458 
583 7 187 807 47 279 526 120 696 
584 7 830 381 219 700 126 723 664 
585 7 385 732 270 859 346 167 178 
586 6 398 813 802 218 650 503 
587 7 213 552 577 699 151 327 256 
588 7 638 626 853 490 86 774 492 
589 7 509 127 575 40 819 744 365 
590 7 752 704 252 123 174 838 118 
591 7 623 720 741 171 234 698 360 
592 7 652 839 113 446 242 425 617 
593 7 10 864 321 93 759 204 227 
594 7 142 406 522 506 559 493 193 
595 5 504 518 217 800 373 
596 7 501 244 361 693 616 506 522 
597 7 801 293 475 569 357 389 788 
598 7 182 431 372 731 25 28 646 
599 7 572 558 203 683 294 134 796 
600 7 480 83 476 631 689 736 415 
601 7 302 108 499 519 604 23 614 
602 7 493 828 295 14 198 72 770 
603 7 633 665 50 824 296 395 269 
604 7 177 302 519 440 232 23 601 
605 7 262 536 495 426 274 508 364 
606 7 479 734 764 192 323 487 800 
607 7 513 781 189 279 254 330 488 
608 7 107 573 316 658 470 176 461 
609 7 257 430 422 733 382 196 55 
610 7 92 166 53 328 461 747 181 
611 7 253 362 794 535 27 393 798 
612 7 740 745 287 328 836 757 790 
613 7 334 618 345 739 361 693 142 
614 7 54 661 804 36 104 499 280 
615 7 331 540 768 574 236 732 206 
616 7 136 596 501 205 505 506 522 
617 7 446 425 652 31 156 592 647 
618 7 345 739 613 295 493 198 142 
619 7 822 180 311 223 851 283 644 
620 7 517 776 399 773 297 498 63 
621 7 98 520 808 105 224 311 339 
622 7 708 41 121 580 245 172 435 
623 7 591 720 234 698 741 171 546 
624 7 581 392 422 430 733 609 128 
625 7 175 358 282 128 5 154 777 
626 7 853 588 490 638 86 774 330 
627 7 672 116 469 396 460 686 306 
628 7 387 482 532 52 32 269 675 
629 7 301 467 790 137 377 649 240 
630 7 214 547 848 208 510 635 565 
631 7 476 600 829 736 201 798 480 
632 6 401 635 453 630 688 214 
633 7 603 824 50 665 685 296 387 
634 7 447 738 749 636 642 150 718 
635 7 630 214 688 848 547 632 208 
636 7 749 642 564 150 634 299 472 
637 7 235 462 678 9 826 293 569 
638 7 588 626 853 490 86 492 774 
639 7 185 292 684 817 74 4 298 
640 7 329 496 702 687 77 705 246 
641 7 437 682 186 384 146 271 563 
642 7 225 299 749 636 472 533 813 
643 7 375 19 458 407 840 350 46 
644 7 283 247 769 157 619 311 439 
645 7 237 803 698 15 234 415 480 
646 7 28 182 653 163 80 598 25 
647 7 31 446 218 650 652 617 533 
648 7 7 144 464 438 6 351 650 
649 7 137 790 467 301 757 629 240 
650 7 218 31 648 398 7 464 144 
651 7 122 386 431 372 363 598 288 
652 7 446 592 617 425 31 839 647 
653 7 646 25 182 326 28 598 163 
654 7 324 13 91 470 658 176 138 
655 7 95 207 833 425 132 617 652 
656 7 424 308 322 518 685 217 579 
657 7 553 146 563 695 842 43 100 
658 7 470 107 324 608 654 176 13 
659 7 338 360 171 87 591 623 237 
660 7 114 835 542 731 823 226 515 
661 7 850 499 614 59 54 722 804 
662 7 11 582 96 527 232 840 327 
663 7 251 341 487 369 192 119 60 
664 7 126 315 723 473 305 809 700 
665 7 603 633 50 387 296 628 269 
666 7 78 574 130 556 494 512 152 
667 7 40 332 127 541 819 202 528 
668 7 713 16 37 111 215 525 691 
669 7 421 403 344 861 726 719 228 
670 7 516 694 215 342 815 713 766 
671 7 124 787 571 465 677 742 454 
672 7 627 116 469 460 396 686 306 
673 6 729 355 281 497 567 69 
674 7 188 89 457 102 706 141 276 
675 7 532 52 833 207 156 95 628 
676 7 228 719 364 274 390 162 421 
677 7 787 671 124 310 571 742 465 
678 7 9 637 235 462 811 703 754 
679 7 521 21 85 746 449 566 165 
680 7 715 81 316 318 537 176 573 
681 7 56 164 58 143 378 170 412 
682 7 186 641 437 109 842 146 816 
683 7 179 796 572 599 294 767 497 
684 7 185 639 292 298 863 4 817 
685 7 50 322 424 308 824 656 633 
686 7 460 277 469 116 561 672 858 
687 7 77 705 428 246 373 153 496 
688 7 238 169 347 635 523 848 208 
689 7 83 480 500 600 415 93 286 
690 7 259 266 795 471 170 419 412 
691 7 337 212 370 751 16 272 290 
692 7 229 82 383 21 356 757 521 
693 7 244 361 501 596 444 613 616 
694 7 516 670 215 815 766 713 305 
695 7 553 100 43 195 159 657 563 
696 7 47 771 120 562 503 187 488 
697 7 335 91 714 748 300 13 654 
698 7 234 237 645 546 623 201 51 
699 7 213 587 151 327 552 46 577 
700 7 723 126 315 485 584 664 305 
701 7 810 113 515 835 779 242 660 
702 7 329 640 496 687 77 445 246 
703 7 79 29 97 827 811 298 452 
704 7 752 590 118 252 838 123 837 
705 7 77 687 373 428 153 217 246 
706 7 61 339 674 188 276 262 808 
707 7 417 348 242 738 551 839 391 
708 7 622 121 41 245 172 580 132 
709 7 711 211 149 258 402 570 368 
710 7 395 307 466 724 296 526 120 
711 7 709 402 211 149 221 455 258 
712 7 81 278 38 389 721 715 200 
713 7 668 16 37 215 111 525 290 
714 7 748 300 697 318 335 91 176 
715 7 537 81 680 303 389 474 578 
716 7 216 183 273 317 436 371 76 
717 7 379 230 349 112 441 263 209 
718 7 530 150 512 130 494 556 634 
719 7 228 676 421 669 364 390 110 
720 7 741 623 760 591 131 51 546 
721 7 200 278 712 38 81 318 389 
722 7 792 59 568 313 850 23 661 
723 7 126 315 664 700 305 485 584 
724 7 466 710 395 120 307 562 250 
725 4 539 134 43 203 
726 7 403 429 489 669 538 265 862 
727 7 103 765 280 36 104 755 54 
728 7 115 9 754 811 462 474 85 
729 6 834 18 340 673 281 160 
730 7 131 821 388 797 854 158 611 
731 7 114 25 598 660 326 823 226 
732 7 585 270 859 297 399 549 773 
733 7 382 430 257 422 128 392 57 
734 7 323 353 68 436 606 764 140 
735 6 199 408 346 266 690 816 
736 7 534 20 45 204 155 631 689 
737 7 194 330 275 254 86 490 145 
738 7 447 634 417 707 348 336 551 
739 7 345 618 295 198 613 334 72 
740 7 287 612 301 467 790 745 757 
741 7 720 760 131 623 591 51 546 
742 7 465 571 124 454 671 787 310 
743 7 478 271 384 761 820 514 88 
744 7 575 112 349 589 509 379 459 
745 7 836 612 849 328 740 287 181 
746 7 521 566 82 21 679 229 448 
747 7 53 491 62 183 273 181 76 
748 7 300 714 318 697 176 91 335 
749 7 636 642 634 299 150 447 564 
750 7 763 846 34 60 140 2 119 
751 7 290 337 525 432 154 691 272 
752 7 252 590 704 123 118 174 838 
753 7 33 202 332 541 667 418 401 
754 7 811 165 449 9 827 728 359 
755 7 380 111 727 212 400 103 280 
756 7 529 785 856 145 737 775 859 
757 7 649 137 790 467 301 629 740 
758 7 147 543 67 275 145 189 254 
759 7 434 227 106 93 4 10 863 
760 7 741 131 720 730 797 388 821 
761 7 88 514 478 26 820 49 743 
762 7 477 507 368 12 451 258 75 
763 7 846 750 140 353 287 34 734 
764 6 800 479 323 436 606 734 
765 7 103 727 280 104 36 54 804 
766 7 815 305 485 315 694 565 723 
767 7 179 796 497 255 281 285 550 
768 7 574 236 666 374 494 78 130 
769 7 157 247 354 644 845 283 772 
770 7 570 828 14 72 258 602 198 
771 7 562 73 250 120 352 696 6 
772 7 240 383 377 137 649 356 629 
773 7 399 517 620 549 297 152 776 
774 7 222 807 583 513 588 526 638 
775 6 857 529 737 490 626 86 
776 7 498 129 564 620 70 636 67 
777 7 5 282 175 463 154 128 272 
778 7 538 174 403 123 752 252 590 
779 7 818 542 835 660 810 701 132 
780 7 30 184 255 285 397 18 481 
781 5 607 793 189 488 543 
782 7 505 486 136 616 814 855 205 
783 7 173 423 138 246 428 324 13 
784 7 333 314 309 334 345 613 191 
785 7 856 63 756 297 859 145 517 
786 7 97 298 359 827 292 366 684 
787 7 671 124 677 571 742 310 465 
788 7 569 293 357 801 597 475 267 
789 7 268 190 544 561 99 209 312 
790 7 467 301 649 137 629 757 377 
791 7 825 55 168 257 405 239 609 
792 7 722 59 568 313 812 123 252 
793 6 67 543 781 189 70 376 
794 7 798 535 253 611 821 27 45 
795 7 259 419 402 412 455 211 690 
796 7 683 179 767 550 572 133 24 
797 7 388 854 730 760 131 158 821 
798 7 794 45 535 631 821 253 736 
799 7 409 404 17 416 320 492 468 
800 5 764 479 436 323 606 
801 7 357 475 597 569 293 788 389 
802 7 503 438 398 464 6 144 586 
803 7 15 415 267 286 83 66 480 
804 7 54 104 36 614 280 661 103 
805 7 162 390 426 224 110 274 439 
806 7 450 843 42 468 17 416 409 
807 7 583 187 526 774 222 279 47 
808 7 520 621 98 105 224 339 311 
809 7 473 664 126 290 511 525 723 
810 7 701 113 835 515 779 242 660 
811 7 754 165 449 9 827 703 359 
812 7 313 393 792 27 568 118 123 
813 7 533 225 586 299 398 642 218 
814 7 125 139 205 782 505 136 616 
815 7 766 305 315 485 694 664 37 
816 4 109 842 146 735 
817 7 292 366 639 185 684 298 786 
818 7 779 121 172 542 132 245 835 
819 7 528 40 127 509 667 589 284 
820 7 26 88 456 761 478 49 514 
821 7 794 798 730 131 51 611 829 
822 7 180 619 851 223 220 311 548 
823 7 226 261 515 114 660 731 363 
824 7 633 50 603 685 665 322 387 
825 7 168 791 57 257 382 733 55 
826 7 462 303 235 474 637 597 578 
827 7 359 97 165 786 449 811 298 
828 7 770 14 72 570 602 198 295 
829 7 201 51 476 546 631 600 480 
830 7 584 381 219 700 126 723 664 
831 7 860 90 554 119 484 2 34 
832 7 427 531 834 340 148 160 524 
833 7 207 95 655 675 425 132 532 
834 6 340 729 160 148 531 18 
835 7 542 660 779 114 810 701 515 
836 7 745 612 849 328 740 287 181 
837 7 118 155 838 704 45 752 252 
838 7 155 118 704 837 590 483 20 
839 7 592 242 113 652 446 647 425 
840 7 407 582 458 375 662 96 241 
841 7 411 844 213 306 587 699 46 
842 6 146 657 816 109 563 553 
843 7 416 806 450 468 409 17 799 
844 7 841 306 411 396 213 624 581 
845 7 247 44 48 769 356 560 644 
846 7 763 750 140 287 353 740 34 
847 7 210 250 269 32 73 352 351 
848 7 208 214 630 510 547 635 394 
849 7 181 836 745 140 76 353 62 
850 7 661 59 499 722 614 804 792 
851 7 223 180 822 548 619 220 135 
852 7 405 459 312 99 55 544 791 
853 7 86 626 490 588 638 330 513 
854 7 388 797 158 730 241 232 362 
855 7 524 486 233 148 160 427 340 
856 7 63 145 147 758 297 517 275 
857 6 775 737 490 626 86 529 
858 7 190 196 561 277 413 239 544 
859 7 270 785 756 732 856 63 297 
860 7 831 554 90 2 65 484 34 
861 7 344 48 44 669 421 71 726 
862 7 265 197 174 538 483 489 726 
863 7 452 106 684 227 4 434 298 
864 7 593 10 321 483 204 93 20 
DEPOT_SECTION
   1
   -1
EOF
