NAME :  X-n856-kX-w342-c7.cctp
COMMENT : 	Adapted by Maziero, Usberti and Cavellucci from the Uchoa, Pecin, Pessoa, Poggi, Subramanian, and Vidal (2013)
TYPE :  CCTP
DIMENSION :    727
EDGE_WEIGHT_TYPE : 	EUC_2D	
CAPACITY : 	9
VERTICES_WITHIN_COVERAGE :  7
VERTICES_WITH_DEMAND : 	342
NODE_COORD_SECTION
1 500 500
2 440 732
3 221 348
4 117 545
5 493 645
6 135 12
7 775 997
8 745 444
9 950 311
10 530 150
11 900 508
12 48 519
13 269 217
14 722 349
15 480 733
16 977 422
17 999 220
18 636 332
19 851 162
20 559 567
21 389 69
22 529 835
23 303 427
24 400 638
25 894 904
26 482 109
27 579 800
28 184 82
29 669 753
30 906 424
31 374 692
32 174 613
33 75 37
34 38 563
35 838 157
36 710 709
37 176 67
38 449 326
39 71 389
40 710 115
41 237 547
42 530 27
43 631 223
44 171 342
45 226 65
46 6 998
47 24 635
48 668 165
49 318 608
50 429 82
51 212 237
52 853 126
53 387 47
54 677 144
55 111 790
56 957 32
57 511 647
58 457 561
59 86 687
60 290 456
61 473 563
62 807 725
63 461 468
64 739 235
65 257 340
66 588 545
67 6 311
68 268 976
69 552 414
70 994 946
71 452 534
72 422 545
73 248 611
74 43 366
75 977 96
76 822 580
77 940 650
78 86 263
79 715 99
80 668 981
81 424 638
82 297 607
83 251 282
84 237 413
85 202 573
86 181 385
87 126 528
88 386 811
89 978 846
90 70 99
91 333 357
92 49 870
93 157 734
94 627 268
95 818 433
96 738 555
97 350 909
98 337 926
99 978 59
100 42 595
101 870 933
102 19 120
103 165 679
104 131 984
105 232 755
106 319 417
107 187 376
108 251 482
109 657 219
110 209 397
111 800 377
112 228 116
113 566 559
114 490 156
115 216 547
116 964 677
117 85 897
118 292 807
119 600 893
120 938 222
121 543 747
122 572 976
123 569 59
124 712 574
125 971 515
126 616 306
127 695 837
128 421 821
129 604 995
130 537 957
131 1000 653
132 282 817
133 380 874
134 778 101
135 462 74
136 87 682
137 441 228
138 608 430
139 511 313
140 710 300
141 630 24
142 626 650
143 531 719
144 598 824
145 995 622
146 258 981
147 358 281
148 279 169
149 286 268
150 259 659
151 782 132
152 862 518
153 457 603
154 210 438
155 44 44
156 527 818
157 164 156
158 23 86
159 342 930
160 39 282
161 269 848
162 436 886
163 323 340
164 237 891
165 333 488
166 517 137
167 591 972
168 541 888
169 122 280
170 159 655
171 200 158
172 446 283
173 107 315
174 588 270
175 158 374
176 26 353
177 959 76
178 852 328
179 927 736
180 437 138
181 53 938
182 333 192
183 922 499
184 407 948
185 970 664
186 237 738
187 8 561
188 747 852
189 989 908
190 100 860
191 10 960
192 842 190
193 595 716
194 286 965
195 199 373
196 159 67
197 979 25
198 488 479
199 804 620
200 742 853
201 528 160
202 223 342
203 503 159
204 711 681
205 339 340
206 342 509
207 931 593
208 766 953
209 710 172
210 521 451
211 172 159
212 685 836
213 639 155
214 763 656
215 269 241
216 825 761
217 330 177
218 901 124
219 713 860
220 619 926
221 692 19
222 96 876
223 949 178
224 79 795
225 833 852
226 336 444
227 877 0
228 296 597
229 566 735
230 940 377
231 349 269
232 939 827
233 908 120
234 50 741
235 670 569
236 753 744
237 577 351
238 141 616
239 97 625
240 64 875
241 496 160
242 515 598
243 344 803
244 274 510
245 291 170
246 800 300
247 74 609
248 365 207
249 791 396
250 453 848
251 405 191
252 395 290
253 525 743
254 260 385
255 408 837
256 1 346
257 231 504
258 837 572
259 606 473
260 900 729
261 346 868
262 123 80
263 477 169
264 383 59
265 510 410
266 890 101
267 952 635
268 825 722
269 68 598
270 234 841
271 911 720
272 172 367
273 569 289
274 84 19
275 694 916
276 454 412
277 261 233
278 693 375
279 588 854
280 276 538
281 599 569
282 142 158
283 338 805
284 324 194
285 739 325
286 845 639
287 638 182
288 858 93
289 40 923
290 37 599
291 638 39
292 218 714
293 568 674
294 288 840
295 439 570
296 325 801
297 587 278
298 992 674
299 597 608
300 174 865
301 65 330
302 872 434
303 620 129
304 339 681
305 178 811
306 478 966
307 469 749
308 475 791
309 799 594
310 692 130
311 59 223
312 811 2
313 5 946
314 219 305
315 759 951
316 656 889
317 582 18
318 97 885
319 888 467
320 899 286
321 512 358
322 188 776
323 220 951
324 503 801
325 483 402
326 685 904
327 483 722
328 13 301
329 387 976
330 607 709
331 857 739
332 51 422
333 818 797
334 302 646
335 474 101
336 817 66
337 573 973
338 948 686
339 922 552
340 586 899
341 153 503
342 47 817
343 740 970
344 216 852
345 261 776
346 935 540
347 920 879
348 642 623
349 268 373
350 409 940
351 374 176
352 894 60
353 539 352
354 605 457
355 4 240
356 340 303
357 563 524
358 861 875
359 700 810
360 160 753
361 985 455
362 981 276
363 708 646
364 575 249
365 777 725
366 724 888
367 853 773
368 4 27
369 743 430
370 301 574
371 38 983
372 575 209
373 10 683
374 878 342
375 745 333
376 616 311
377 537 110
378 70 839
379 531 647
380 157 736
381 609 356
382 450 852
383 534 11
384 436 279
385 340 578
386 41 809
387 971 282
388 389 628
389 171 951
390 821 278
391 633 578
392 158 858
393 374 163
394 219 471
395 586 937
396 546 923
397 619 737
398 700 50
399 722 223
400 112 450
401 857 66
402 81 295
403 314 964
404 829 981
405 723 590
406 645 700
407 318 800
408 277 268
409 459 81
410 573 211
411 391 259
412 368 81
413 262 451
414 629 44
415 390 264
416 842 703
417 780 254
418 653 177
419 882 625
420 763 432
421 615 183
422 62 855
423 629 543
424 27 83
425 822 574
426 355 86
427 519 683
428 111 12
429 957 366
430 265 184
431 985 701
432 215 888
433 945 515
434 76 204
435 553 988
436 22 32
437 938 553
438 441 911
439 120 85
440 551 214
441 422 750
442 373 976
443 196 122
444 870 353
445 25 46
446 470 958
447 184 140
448 890 462
449 841 551
450 82 88
451 979 491
452 439 811
453 199 182
454 239 151
455 960 334
456 67 99
457 253 120
458 124 84
459 421 756
460 862 440
461 170 166
462 408 787
463 845 522
464 350 875
465 732 438
466 322 797
467 569 889
468 286 3
469 19 558
470 482 967
471 271 127
472 921 499
473 513 901
474 541 920
475 41 240
476 876 405
477 449 871
478 786 558
479 467 684
480 827 446
481 625 441
482 321 913
483 378 902
484 95 48
485 939 576
486 991 561
487 887 479
488 822 451
489 137 252
490 556 988
491 769 375
492 445 848
493 925 421
494 674 544
495 117 30
496 388 987
497 119 18
498 134 297
499 614 521
500 887 325
501 467 903
502 772 461
503 423 944
504 379 846
505 916 509
506 983 447
507 667 885
508 465 911
509 96 17
510 93 201
511 132 93
512 671 926
513 901 468
514 93 287
515 795 581
516 741 514
517 119 223
518 503 964
519 80 58
520 116 81
521 123 266
522 683 363
523 77 114
524 872 520
525 187 62
526 918 677
527 909 427
528 937 395
529 80 88
530 25 87
531 421 825
532 855 443
533 468 802
534 2 112
535 647 389
536 876 475
537 705 454
538 151 897
539 853 420
540 883 484
541 27 44
542 154 38
543 285 921
544 50 196
545 259 863
546 702 637
547 422 975
548 432 847
549 112 263
550 908 625
551 783 344
552 422 744
553 372 987
554 168 96
555 358 850
556 476 813
557 539 970
558 278 215
559 854 616
560 46 207
561 466 816
562 688 555
563 826 582
564 401 805
565 384 826
566 320 775
567 204 336
568 866 515
569 397 949
570 724 356
571 414 830
572 131 31
573 318 200
574 1 157
575 542 729
576 245 352
577 539 905
578 827 317
579 376 836
580 878 519
581 212 724
582 876 516
583 939 557
584 380 841
585 149 149
586 104 67
587 283 883
588 138 48
589 814 455
590 970 535
591 450 898
592 220 93
593 208 26
594 921 488
595 903 248
596 180 59
597 69 98
598 199 69
599 884 460
600 879 525
601 57 102
602 978 705
603 929 486
604 691 634
605 391 789
606 442 872
607 754 759
608 854 615
609 820 450
610 326 986
611 315 718
612 377 938
613 44 74
614 290 921
615 899 478
616 142 147
617 437 837
618 742 549
619 288 844
620 792 425
621 262 65
622 533 687
623 213 160
624 860 414
625 884 459
626 4 153
627 140 44
628 521 878
629 575 779
630 442 900
631 893 487
632 73 13
633 394 886
634 511 949
635 474 772
636 812 425
637 684 471
638 458 971
639 797 351
640 386 268
641 953 616
642 382 794
643 548 895
644 861 525
645 372 780
646 967 425
647 534 912
648 82 60
649 856 523
650 12 90
651 497 721
652 120 69
653 347 868
654 296 934
655 896 547
656 884 450
657 926 500
658 380 921
659 423 888
660 716 514
661 871 532
662 529 867
663 852 522
664 406 859
665 919 577
666 824 407
667 274 236
668 854 533
669 336 959
670 813 702
671 210 304
672 460 867
673 315 915
674 454 857
675 905 380
676 831 580
677 399 106
678 904 561
679 420 930
680 876 448
681 102 164
682 74 112
683 139 43
684 370 995
685 849 441
686 405 938
687 78 81
688 170 77
689 959 379
690 347 913
691 316 803
692 115 74
693 538 906
694 939 530
695 235 819
696 463 971
697 847 370
698 200 145
699 769 970
700 712 624
701 910 566
702 867 531
703 352 966
704 490 865
705 451 831
706 341 453
707 10 127
708 1 25
709 918 775
710 277 884
711 884 435
712 745 448
713 118 13
714 222 755
715 695 341
716 25 18
717 380 843
718 436 877
719 912 446
720 405 857
721 486 866
722 568 430
723 935 513
724 821 687
725 367 814
726 33 97
727 411 722
DEMAND_SECTION
2 1
3 1
4 1
5 1
6 1
7 1
8 1
9 1
10 1
11 1
12 1
13 1
14 1
15 1
16 1
17 1
18 1
19 1
20 1
21 1
22 1
23 1
24 1
25 1
26 1
27 1
28 1
29 1
30 1
31 1
32 1
33 1
34 1
35 1
36 1
37 1
38 1
39 1
40 1
41 1
42 1
43 1
44 1
45 1
46 1
47 1
48 1
49 1
50 1
51 1
52 1
53 1
54 1
55 1
56 1
57 1
58 1
59 1
60 1
61 1
62 1
63 1
64 1
65 1
66 1
67 1
68 1
69 1
70 1
71 1
72 1
73 1
74 1
75 1
76 1
77 1
78 1
79 1
80 1
81 1
82 1
83 1
84 1
85 1
86 1
87 1
88 1
89 1
90 1
91 1
92 1
93 1
94 1
95 1
96 1
97 1
98 1
99 1
100 1
101 1
102 1
103 1
104 1
105 1
106 1
107 1
108 1
109 1
110 1
111 1
112 1
113 1
114 1
115 1
116 1
117 1
118 1
119 1
120 1
121 1
122 1
123 1
124 1
125 1
126 1
127 1
128 1
129 1
130 1
131 1
132 1
133 1
134 1
135 1
136 1
137 1
138 1
139 1
140 1
141 1
142 1
143 1
144 1
145 1
146 1
147 1
148 1
149 1
150 1
151 1
152 1
153 1
154 1
155 1
156 1
157 1
158 1
159 1
160 1
161 1
162 1
163 1
164 1
165 1
166 1
167 1
168 1
169 1
170 1
171 1
172 1
173 1
174 1
175 1
176 1
177 1
178 1
179 1
180 1
181 1
182 1
183 1
184 1
185 1
186 1
187 1
188 1
189 1
190 1
191 1
192 1
193 1
194 1
195 1
196 1
197 1
198 1
199 1
200 1
201 1
202 1
203 1
204 1
205 1
206 1
207 1
208 1
209 1
210 1
211 1
212 1
213 1
214 1
215 1
216 1
217 1
218 1
219 1
220 1
221 1
222 1
223 1
224 1
225 1
226 1
227 1
228 1
229 1
230 1
231 1
232 1
233 1
234 1
235 1
236 1
237 1
238 1
239 1
240 1
241 1
242 1
243 1
244 1
245 1
246 1
247 1
248 1
249 1
250 1
251 1
252 1
253 1
254 1
255 1
256 1
257 1
258 1
259 1
260 1
261 1
262 1
263 1
264 1
265 1
266 1
267 1
268 1
269 1
270 1
271 1
272 1
273 1
274 1
275 1
276 1
277 1
278 1
279 1
280 1
281 1
282 1
283 1
284 1
285 1
286 1
287 1
288 1
289 1
290 1
291 1
292 1
293 1
294 1
295 1
296 1
297 1
298 1
299 1
300 1
301 1
302 1
303 1
304 1
305 1
306 1
307 1
308 1
309 1
310 1
311 1
312 1
313 1
314 1
315 1
316 1
317 1
318 1
319 1
320 1
321 1
322 1
323 1
324 1
325 1
326 1
327 1
328 1
329 1
330 1
331 1
332 1
333 1
334 1
335 1
336 1
337 1
338 1
339 1
340 1
341 1
342 1
343 1
COVERAGE_SECTION
2 7 552 441 459 727 307 15 327 
3 7 202 567 576 195 65 314 107 
4 7 87 341 269 12 238 247 34 
5 7 57 379 427 479 242 153 622 
6 7 497 713 572 428 495 683 542 
7 7 699 343 208 315 404 80 101 
8 7 712 369 465 420 502 537 620 
9 7 455 387 362 429 320 500 230 
10 7 201 166 203 241 114 377 263 
11 6 505 631 472 183 580 582 
12 7 34 469 187 4 100 87 269 
13 7 558 277 667 215 430 148 245 
14 7 570 375 715 285 278 522 140 
15 7 327 307 651 635 2 253 479 
16 3 646 506 361 
17 7 362 120 223 387 595 9 320 
18 7 376 126 381 522 535 715 237 
19 7 35 192 52 218 288 233 266 
20 7 113 66 281 357 242 299 499 
21 7 264 53 412 426 677 50 409 
22 6 156 662 324 628 704 721 
23 7 106 60 226 706 413 254 349 
24 7 388 81 31 153 304 295 479 
25 7 347 101 358 225 232 189 404 
26 7 335 409 135 166 114 241 180 
27 7 629 144 156 279 22 121 229 
28 7 688 37 525 598 554 596 196 
29 7 397 406 36 359 330 193 204 
30 6 527 493 719 711 656 302 
31 7 304 727 24 611 388 552 81 
32 7 238 170 85 103 73 115 239 
33 7 274 519 484 632 648 509 155 
34 7 469 187 100 290 12 269 247 
35 7 19 192 52 151 288 218 266 
36 7 204 236 29 363 406 607 365 
37 7 596 525 688 28 196 598 554 
38 7 172 384 139 252 321 325 276 
39 7 74 332 176 301 400 173 256 
40 7 79 310 54 209 48 398 134 
41 7 115 280 257 85 244 73 108 
42 7 383 123 317 135 377 409 335 
43 7 109 287 421 94 418 372 410 
44 7 272 567 175 107 195 86 3 
45 7 598 592 621 525 593 28 596 
46 7 371 191 313 181 289 104 117 
47 7 290 100 373 247 269 34 239 
48 7 418 54 213 287 310 209 109 
49 7 82 228 385 370 334 73 388 
50 7 409 135 677 21 335 264 53 
51 7 277 215 453 13 83 667 671 
52 7 288 35 19 266 218 233 401 
53 7 264 21 412 426 50 677 135 
54 7 310 48 213 418 209 40 287 
55 7 224 360 378 342 305 190 380 
56 7 197 99 177 75 352 227 266 
57 7 5 379 427 622 242 479 293 
58 7 61 295 71 72 153 242 81 
59 7 136 239 234 373 103 247 170 
60 7 413 23 108 226 106 706 165 
61 7 58 295 71 153 72 242 5 
62 7 268 670 365 216 724 416 331 
63 7 198 276 210 71 325 265 72 
64 7 399 417 209 140 109 246 285 
65 7 576 202 349 3 254 314 567 
66 7 113 281 357 499 20 423 391 
67 7 328 256 160 176 301 74 355 
68 7 146 194 403 654 323 543 610 
69 7 722 265 210 138 353 237 354 
70 7 189 347 89 25 101 232 358 
71 7 58 72 61 295 198 63 153 
72 7 295 71 58 61 153 63 206 
73 7 82 150 228 85 334 41 370 
74 7 176 39 301 256 332 67 328 
75 7 177 99 56 197 233 218 223 
76 7 563 425 676 258 309 515 449 
77 7 267 185 526 116 641 338 550 
78 7 514 549 402 521 169 311 160 
79 7 40 310 398 54 134 209 151 
80 7 512 129 275 343 220 167 326 
81 7 24 388 153 479 5 295 31 
82 7 228 49 370 334 73 385 150 
83 7 408 149 314 215 671 277 667 
84 7 110 254 154 413 349 195 394 
85 7 115 41 32 73 238 257 280 
86 7 107 272 195 175 110 44 3 
87 7 4 341 12 400 85 238 269 
88 6 565 564 642 725 605 579 
89 7 232 189 347 709 70 25 179 
90 6 597 456 601 682 529 450 
91 7 205 163 356 106 349 23 65 
92 7 240 422 378 117 222 318 190 
93 7 380 360 322 103 581 292 714 
94 7 174 126 297 376 43 364 109 
95 7 636 480 609 488 589 620 666 
96 7 618 124 405 516 660 478 562 
97 7 690 98 159 482 483 658 464 
98 6 159 690 97 482 673 669 
99 7 177 56 197 75 352 233 266 
100 7 290 269 34 247 47 469 187 
101 7 25 358 404 347 225 208 699 
102 4 707 534 726 650 
103 7 170 93 380 292 581 32 238 
104 7 389 538 181 371 323 117 318 
105 7 714 186 345 581 292 322 695 
106 7 23 226 706 60 91 413 254 
107 7 86 195 272 175 110 44 567 
108 7 257 413 394 244 60 154 280 
109 7 43 287 418 48 421 94 399 
110 7 195 86 107 84 154 272 3 
111 7 249 639 491 551 666 697 620 
112 7 592 457 443 454 698 471 623 
113 7 20 66 281 357 299 499 242 
114 7 241 203 263 166 201 10 26 
115 7 41 85 257 280 244 73 108 
116 7 185 338 298 602 431 77 131 
117 7 318 222 240 190 92 422 181 
118 7 132 691 407 466 294 296 619 
119 7 340 467 220 279 395 643 316 
120 7 595 223 17 387 362 320 9 
121 7 253 575 229 143 629 651 193 
122 7 337 167 490 435 557 129 130 
123 7 317 42 383 377 414 141 291 
124 7 405 562 96 618 235 494 700 
125 7 590 451 433 694 723 346 657 
126 7 376 18 94 297 174 273 381 
127 7 212 359 219 200 188 507 366 
128 7 531 571 255 452 617 564 548 
129 7 167 122 337 490 435 395 80 
130 7 557 634 396 435 518 490 474 
131 7 298 145 185 116 431 267 602 
132 7 118 294 619 161 691 407 466 
133 4 633 483 504 464 
134 7 151 336 79 40 52 288 35 
135 7 409 335 50 26 180 677 21 
136 7 59 239 234 247 170 373 103 
137 7 384 251 172 411 415 640 263 
138 7 481 354 722 259 535 69 381 
139 7 321 353 38 273 172 237 384 
140 7 285 715 375 14 570 522 64 
141 7 291 414 317 221 123 398 383 
142 7 348 299 406 330 293 604 391 
143 7 575 253 121 622 651 229 427 
144 7 27 279 629 119 22 156 467 
145 7 131 641 267 185 298 486 77 
146 7 68 194 323 403 654 543 610 
147 7 231 356 640 415 252 411 205 
148 7 245 430 471 454 558 13 573 
149 7 408 215 667 83 277 13 558 
150 7 334 73 82 292 228 49 581 
151 7 134 35 52 40 19 79 336 
152 7 568 644 649 524 663 582 702 
153 7 295 58 61 81 5 242 24 
154 7 394 84 110 413 86 108 107 
155 6 541 445 436 613 33 716 
156 7 22 324 662 556 27 308 628 
157 7 211 461 585 282 616 447 171 
158 5 530 424 650 726 613 
159 6 98 690 97 482 669 673 
160 7 328 475 67 402 78 514 301 
161 7 545 619 294 132 270 710 587 
162 6 718 659 606 630 591 477 
163 7 205 91 356 349 65 147 231 
164 7 432 545 710 344 587 270 161 
165 7 206 706 226 60 244 23 106 
166 7 10 201 203 241 114 377 26 
167 7 337 122 129 395 490 435 557 
168 7 643 577 693 628 662 647 467 
169 7 521 549 498 514 489 173 78 
170 7 103 238 32 239 136 93 59 
171 7 623 698 447 453 211 461 157 
172 7 384 38 252 137 415 411 640 
173 7 514 498 402 169 301 521 549 
174 7 297 364 273 94 126 376 410 
175 7 272 86 107 44 195 110 567 
176 7 74 256 301 67 328 39 160 
177 7 99 75 56 197 233 352 266 
178 7 578 374 444 500 697 246 390 
179 7 271 260 709 338 526 602 431 
180 7 677 263 335 26 114 50 409 
181 7 289 371 191 313 117 240 92 
182 7 284 217 573 248 351 245 393 
183 7 472 657 594 505 603 723 11 
184 5 350 569 686 503 679 
185 7 116 298 338 131 77 267 431 
186 7 105 714 581 292 345 322 360 
187 7 469 34 100 290 12 269 47 
188 7 200 219 366 127 359 212 326 
189 7 70 89 347 25 232 101 358 
190 7 222 318 378 422 240 117 92 
191 7 313 371 46 181 289 92 117 
192 7 19 35 52 151 595 218 417 
193 7 330 397 229 293 406 575 121 
194 7 68 403 146 654 543 614 610 
195 7 107 86 110 272 3 567 202 
196 7 688 37 596 525 588 28 542 
197 7 56 99 177 75 352 227 266 
198 7 63 210 71 265 276 325 61 
199 7 309 515 76 563 286 676 425 
200 7 188 219 366 127 212 359 326 
201 7 10 166 203 241 114 377 263 
202 7 3 567 576 65 314 195 671 
203 7 241 114 201 166 10 263 26 
204 7 36 363 546 604 700 214 406 
205 7 163 91 356 147 231 252 349 
206 7 165 706 226 244 385 280 60 
207 6 485 665 641 701 583 550 
208 7 315 699 343 7 404 366 275 
209 7 48 54 310 399 40 418 64 
210 7 265 198 69 722 63 325 276 
211 7 461 157 447 585 171 282 698 
212 7 127 359 219 507 200 316 188 
213 7 418 287 48 303 421 54 310 
214 7 199 363 204 700 546 724 670 
215 7 667 277 13 408 558 149 83 
216 7 367 333 268 331 62 365 416 
217 7 182 284 573 245 351 248 393 
218 7 233 266 52 288 19 352 35 
219 7 127 200 366 188 212 326 359 
220 7 395 119 340 316 512 167 467 
221 7 398 291 141 414 79 40 317 
222 7 318 190 117 240 422 378 92 
223 7 120 17 233 218 595 75 266 
224 7 55 342 386 378 234 422 190 
225 7 358 333 25 367 188 101 200 
226 7 706 106 23 165 60 206 413 
227 7 352 312 401 56 336 288 266 
228 7 82 370 49 385 334 73 280 
229 7 575 121 193 143 253 629 330 
230 7 528 689 429 675 493 455 646 
231 7 147 356 640 415 411 252 149 
232 7 89 347 709 25 179 358 189 
233 7 218 266 52 288 352 177 19 
234 7 224 59 386 136 373 342 55 
235 7 562 494 391 124 423 405 348 
236 7 607 365 36 62 670 216 268 
237 7 381 353 376 126 18 273 321 
238 7 32 170 239 103 247 4 85 
239 7 247 269 238 136 59 100 290 
240 7 92 422 117 222 318 378 190 
241 7 114 203 263 166 201 10 26 
242 7 57 5 379 20 61 153 113 
243 7 283 296 466 725 407 691 645 
244 7 280 108 257 41 60 413 165 
245 7 148 430 217 573 284 182 471 
246 7 390 578 551 417 639 178 375 
247 7 269 239 100 290 47 34 238 
248 7 351 182 251 284 393 217 573 
249 7 111 620 491 666 636 639 95 
250 7 382 492 674 705 617 672 548 
251 7 351 393 248 137 180 411 182 
252 7 640 415 411 147 384 172 231 
253 7 121 575 143 651 229 15 327 
254 7 349 84 576 65 110 3 202 
255 7 571 531 720 128 664 548 565 
256 7 176 67 74 328 301 160 39 
257 7 108 394 41 244 115 280 413 
258 5 676 425 563 76 449 
259 7 354 481 138 499 722 357 66 
260 7 271 179 331 709 526 338 367 
261 7 653 464 555 133 504 97 717 
262 7 458 439 520 692 652 511 586 
263 7 114 241 203 166 180 201 10 
264 6 21 53 412 426 677 50 
265 7 325 69 210 321 276 722 353 
266 7 218 233 288 352 52 401 19 
267 7 77 641 185 116 145 550 207 
268 7 62 670 416 724 331 216 365 
269 7 247 100 290 239 34 47 469 
270 7 344 695 545 161 164 432 132 
271 7 260 179 526 338 709 331 116 
272 7 175 107 86 44 195 567 110 
273 7 297 174 364 126 376 94 139 
274 7 509 632 33 428 484 495 497 
275 7 326 512 366 507 316 219 80 
276 7 325 63 265 198 210 321 38 
277 7 215 667 13 558 408 149 51 
278 7 522 715 570 14 535 375 285 
279 7 144 467 119 340 27 643 168 
280 7 244 41 370 257 108 115 228 
281 7 66 113 391 299 20 423 499 
282 5 585 616 157 461 211 
283 7 243 296 466 407 691 725 566 
284 7 573 182 217 245 248 148 558 
285 7 375 14 570 140 715 551 491 
286 6 559 608 419 199 724 563 
287 7 418 421 213 48 43 109 54 
288 7 401 52 266 336 352 218 233 
289 7 181 313 191 117 92 240 371 
290 7 100 269 34 47 247 469 187 
291 7 414 141 221 317 398 123 303 
292 7 581 186 714 105 93 103 380 
293 7 622 379 193 427 330 143 229 
294 7 619 161 132 118 545 587 710 
295 7 58 72 61 71 153 81 388 
296 7 466 407 691 283 243 566 118 
297 7 174 273 364 126 94 376 410 
298 7 131 185 116 431 602 338 145 
299 7 281 348 391 142 20 113 66 
300 7 392 538 344 432 305 270 164 
301 7 402 74 173 176 514 160 39 
302 7 460 711 680 532 656 624 539 
303 7 213 421 287 418 54 48 310 
304 7 31 611 334 388 24 49 150 
305 7 322 392 300 344 695 360 270 
306 5 470 446 696 638 518 
307 7 15 635 327 2 651 308 441 
308 7 533 635 556 561 324 452 307 
309 7 515 199 76 425 563 676 478 
310 7 54 40 79 48 209 213 418 
311 5 560 434 475 544 510 
312 7 336 227 401 352 288 134 221 
313 7 191 289 181 371 46 92 240 
314 7 671 567 202 83 3 65 576 
315 7 208 699 343 7 366 275 404 
316 7 507 326 512 275 220 119 212 
317 7 123 141 383 42 414 291 377 
318 7 222 117 190 240 422 92 378 
319 7 448 599 625 487 513 536 615 
320 7 595 500 9 374 178 387 444 
321 7 353 139 265 325 237 69 38 
322 7 305 360 714 105 380 93 581 
323 7 146 389 68 164 432 194 543 
324 7 156 308 556 533 561 635 22 
325 7 265 276 321 210 63 69 353 
326 7 275 507 512 316 366 219 127 
327 7 15 651 307 479 2 253 143 
328 7 67 160 256 176 301 355 475 
329 7 496 442 553 684 569 184 547 
330 7 193 397 406 229 293 142 575 
331 7 367 268 216 416 260 62 271 
332 7 39 74 400 176 256 301 12 
333 7 216 367 225 331 62 607 268 
334 7 82 49 150 228 304 73 370 
335 7 26 409 135 50 180 166 114 
336 7 401 288 134 312 52 151 352 
337 7 122 167 490 435 557 129 395 
338 7 116 185 526 602 77 431 298 
339 7 437 346 583 701 678 665 655 
340 7 119 467 395 643 220 279 168 
341 7 87 4 400 394 115 257 85 
342 7 386 378 224 422 92 240 190 
343 7 315 699 208 7 275 80 512 
344 7 270 432 695 164 300 545 161 
345 7 105 118 714 186 132 695 566 
346 7 694 437 583 339 433 723 590 
347 7 25 232 358 89 101 189 225 
348 7 142 391 299 604 235 546 281 
349 7 254 576 65 84 3 202 23 
350 5 686 184 503 569 679 
351 7 393 248 251 182 217 284 573 
352 7 401 266 288 227 233 218 177 
353 7 321 237 139 69 265 273 381 
354 7 259 481 138 722 499 69 357 
355 4 475 560 160 311 
356 7 147 231 205 163 91 252 640 
357 7 66 113 20 499 281 259 423 
358 7 225 25 101 347 333 232 367 
359 7 127 212 219 200 188 29 607 
360 7 380 93 322 581 55 305 714 
361 4 506 16 646 451 
362 7 387 9 17 455 120 320 595 
363 7 546 604 700 204 214 405 36 
364 7 174 297 410 273 372 440 94 
365 7 62 236 607 670 268 724 216 
366 7 219 200 275 326 188 507 127 
367 7 216 331 333 268 260 709 62 
368 7 708 436 716 445 541 155 424 
369 7 8 465 712 420 502 537 620 
370 7 228 82 49 385 280 73 41 
371 7 46 191 181 313 289 104 117 
372 7 410 440 364 421 43 174 201 
373 7 47 234 59 136 290 100 247 
374 5 444 500 178 697 675 
375 7 285 14 570 551 140 491 715 
376 7 126 18 94 297 381 174 273 
377 7 166 10 201 26 123 203 335 
378 7 422 342 240 92 190 386 222 
379 7 57 5 427 622 293 242 143 
380 7 93 360 322 581 103 292 714 
381 7 237 18 376 126 535 353 138 
382 7 250 492 674 672 477 548 617 
383 7 42 317 123 135 141 377 414 
384 7 172 252 415 38 411 137 640 
385 7 49 370 228 82 206 388 280 
386 7 342 224 378 422 92 234 240 
387 7 362 9 455 17 120 320 595 
388 7 24 81 31 385 153 304 49 
389 7 323 104 538 432 300 164 146 
390 7 246 578 417 178 551 639 320 
391 7 281 423 235 348 299 494 66 
392 7 300 538 305 190 344 432 222 
393 7 351 251 248 217 182 284 677 
394 7 108 154 257 413 84 244 60 
395 7 167 220 337 340 122 396 119 
396 7 474 647 577 693 643 130 168 
397 7 330 193 406 29 229 629 27 
398 7 221 79 291 40 414 141 310 
399 7 64 209 109 417 140 48 418 
400 7 332 341 39 87 175 12 4 
401 7 288 352 336 266 52 227 218 
402 7 514 78 173 301 160 169 549 
403 6 669 610 194 654 703 98 
404 7 7 699 101 208 315 343 25 
405 7 124 700 96 618 562 546 604 
406 7 330 397 193 142 29 36 204 
407 7 691 466 296 283 566 243 118 
408 7 149 215 83 667 277 13 558 
409 7 135 335 50 26 180 677 21 
410 7 372 440 364 421 43 174 201 
411 7 415 640 252 147 231 384 248 
412 5 426 21 264 53 677 
413 7 60 108 84 394 23 154 244 
414 7 291 141 317 123 221 398 303 
415 7 411 640 252 147 231 384 172 
416 7 268 724 670 331 62 216 260 
417 7 64 390 246 399 578 285 140 
418 7 287 48 213 421 54 109 43 
419 4 550 559 608 286 
420 7 369 8 712 502 620 465 249 
421 7 287 213 418 43 372 410 303 
422 7 378 92 240 190 222 342 318 
423 7 499 391 281 66 494 235 562 
424 5 530 158 726 650 613 
425 7 76 563 676 258 515 309 449 
426 5 412 21 264 677 53 
427 7 622 57 143 379 651 5 293 
428 7 713 497 509 495 6 274 572 
429 7 689 230 455 528 675 9 16 
430 7 148 245 13 558 454 277 667 
431 7 602 298 116 185 338 131 77 
432 7 164 344 300 270 545 710 323 
433 7 723 694 657 125 346 183 472 
434 5 510 311 544 560 517 
435 7 490 122 557 337 130 167 129 
436 7 541 445 716 368 708 155 613 
437 7 583 346 339 485 694 665 701 
438 4 630 591 508 162 
439 6 458 262 520 692 511 652 
440 7 410 372 364 201 10 174 421 
441 5 459 552 2 727 462 
442 7 553 329 496 684 703 569 612 
443 7 447 698 112 171 554 592 28 
444 5 374 697 178 500 675 
445 7 541 436 155 368 716 708 613 
446 4 306 470 696 638 
447 7 698 211 443 171 157 461 623 
448 7 319 599 625 513 656 487 615 
449 6 258 668 463 425 663 676 
450 4 529 687 90 597 
451 3 125 361 433 
452 7 128 531 705 617 561 533 571 
453 7 171 623 461 211 698 157 447 
454 7 623 457 112 698 171 471 430 
455 7 9 429 689 230 387 362 528 
456 5 597 90 601 682 529 
457 7 471 112 454 592 148 621 443 
458 6 262 439 520 511 692 652 
459 5 441 552 2 462 727 
460 5 532 302 685 680 539 
461 7 211 157 585 282 447 171 453 
462 5 605 564 642 88 459 
463 5 663 649 668 644 152 
464 7 261 653 555 133 97 690 483 
465 7 8 369 712 537 420 502 637 
466 7 296 407 691 283 566 243 118 
467 7 340 643 168 119 577 693 279 
468 3 621 593 45 
469 7 187 34 100 290 12 269 247 
470 5 306 446 696 518 638 
471 6 457 454 148 112 245 430 
472 7 183 657 505 594 603 723 11 
473 5 628 647 693 577 168 
474 6 396 647 693 577 643 168 
475 5 311 560 355 160 544 
476 5 624 539 302 711 30 
477 7 606 672 718 674 382 162 250 
478 2 515 309 
479 7 327 5 651 15 427 2 57 
480 4 488 609 95 589 
481 7 138 354 259 535 722 637 69 
482 7 673 98 690 159 97 614 654 
483 4 658 633 133 97 
484 7 519 648 586 33 495 274 509 
485 7 207 583 665 437 339 701 346 
486 7 590 125 583 437 485 346 145 
487 7 540 631 319 536 615 448 513 
488 4 609 480 589 95 
489 7 521 549 169 517 498 78 514 
490 7 435 122 337 557 130 167 129 
491 7 249 111 551 639 375 570 14 
492 7 382 250 548 674 617 705 477 
493 4 527 30 719 528 
494 7 562 235 423 124 660 391 499 
495 7 497 572 713 428 6 509 683 
496 6 329 553 442 684 547 569 
497 7 713 428 495 6 572 509 683 
498 7 169 173 521 549 514 489 402 
499 7 423 66 259 281 357 391 113 
500 7 374 444 178 320 675 697 578 
501 6 508 591 630 438 162 477 
502 6 420 712 8 620 369 589 
503 4 679 350 184 686 
504 7 717 584 579 555 565 133 720 
505 7 472 183 657 11 723 594 603 
506 3 361 16 646 
507 7 316 326 275 512 212 219 127 
508 5 501 591 438 630 162 
509 7 274 428 713 497 632 495 33 
510 5 434 517 681 311 544 
511 4 458 439 262 520 
512 7 275 326 316 507 220 80 366 
513 7 615 319 448 487 599 625 631 
514 7 402 78 169 173 549 521 498 
515 6 309 478 76 425 563 676 
516 4 660 618 96 502 
517 7 489 510 549 521 434 78 169 
518 7 634 470 306 446 130 557 696 
519 5 648 484 33 687 586 
520 6 439 262 692 458 652 586 
521 7 549 169 489 498 78 514 517 
522 7 278 715 14 570 535 18 285 
523 4 682 90 456 597 
524 7 580 582 568 600 152 644 661 
525 7 596 37 598 28 688 196 45 
526 7 338 77 271 116 550 185 267 
527 6 30 493 719 711 656 302 
528 7 230 689 493 429 675 30 646 
529 5 450 687 90 597 456 
530 5 158 424 650 726 613 
531 7 128 571 255 617 452 548 564 
532 4 685 460 302 680 
533 7 308 556 561 452 635 705 324 
534 7 707 102 650 158 530 726 424 
535 7 522 278 381 481 138 18 715 
536 4 540 487 319 599 
537 7 637 465 712 8 369 660 420 
538 7 300 392 318 389 222 190 432 
539 6 624 685 460 532 302 476 
540 5 487 631 536 615 319 
541 7 445 436 155 716 368 708 613 
542 7 627 683 588 572 196 6 596 
543 7 614 654 673 482 587 710 194 
544 3 560 434 311 
545 7 161 710 587 270 619 164 294 
546 7 363 604 700 204 405 348 124 
547 1 184 
548 7 617 492 382 250 674 531 571 
549 7 521 169 78 489 514 498 517 
550 5 419 207 77 267 641 
551 7 639 491 111 375 246 285 578 
552 6 441 459 2 727 462 307 
553 6 684 442 496 329 703 569 
554 4 688 28 37 196 
555 7 504 653 261 579 717 584 464 
556 7 561 533 308 324 705 452 635 
557 7 130 435 490 122 337 634 518 
558 7 13 667 277 215 430 573 148 
559 5 608 286 419 676 563 
560 4 544 311 434 475 
561 7 556 533 705 308 452 250 617 
562 7 494 235 124 405 96 660 618 
563 7 76 676 425 258 309 515 449 
564 6 88 462 605 642 128 565 
565 7 579 88 584 717 504 725 255 
566 7 466 407 296 691 283 243 118 
567 7 202 3 671 44 314 195 107 
568 7 152 524 582 644 580 649 600 
569 6 184 686 350 612 503 329 
570 7 14 375 715 285 278 522 491 
571 7 255 531 128 617 548 564 720 
572 7 495 683 627 497 588 6 713 
573 7 284 182 217 245 558 248 148 
574 3 626 707 102 
575 7 143 121 253 229 622 651 427 
576 7 65 3 202 349 254 567 195 
577 7 693 647 643 474 168 396 473 
578 7 178 246 390 639 551 444 374 
579 7 584 717 504 565 555 725 88 
580 7 582 524 600 568 661 152 702 
581 7 292 186 714 105 93 380 322 
582 6 580 524 600 568 152 644 
583 7 437 346 339 485 694 665 701 
584 7 717 504 579 565 555 255 720 
585 5 616 282 157 211 461 
586 5 692 652 520 484 262 
587 7 710 545 161 543 614 619 294 
588 7 627 683 572 542 196 495 652 
589 4 609 488 480 95 
590 7 125 694 433 486 346 437 583 
591 6 630 438 162 501 508 718 
592 7 112 45 598 28 443 457 525 
593 7 525 45 596 598 37 542 28 
594 6 603 183 472 657 505 615 
595 7 320 120 387 9 500 362 192 
596 7 525 37 598 688 196 28 542 
597 6 90 456 601 529 682 450 
598 7 525 28 596 37 45 688 592 
599 7 625 448 319 656 680 536 487 
600 7 580 524 582 661 702 568 152 
601 2 456 90 
602 7 431 116 298 338 185 131 179 
603 5 594 657 183 472 505 
604 7 546 363 700 348 204 405 124 
605 5 642 462 564 645 88 
606 7 477 718 162 672 674 382 492 
607 7 236 365 62 36 216 333 359 
608 5 559 286 419 676 563 
609 4 488 480 589 95 
610 6 403 669 703 194 684 553 
611 7 304 566 31 334 345 466 150 
612 6 658 569 686 184 350 159 
613 4 424 530 158 726 
614 7 543 654 673 482 587 710 194 
615 7 513 631 487 319 540 448 536 
616 3 585 282 157 
617 7 548 492 705 250 382 531 128 
618 6 96 516 124 660 405 478 
619 7 294 161 132 545 118 587 710 
620 7 636 95 249 420 589 666 609 
621 4 45 592 457 112 
622 7 427 143 293 379 575 57 651 
623 7 171 698 453 454 447 211 443 
624 5 539 476 302 460 532 
625 7 599 448 319 656 680 536 513 
626 4 574 707 102 534 
627 7 683 588 542 572 495 196 6 
628 6 662 168 473 577 643 693 
629 7 27 121 229 144 575 397 156 
630 5 591 438 162 659 718 
631 6 487 540 615 319 513 536 
632 7 274 509 33 428 484 155 713 
633 1 133 
634 5 518 130 470 557 306 
635 7 308 307 533 15 324 556 561 
636 7 95 620 666 480 609 488 589 
637 7 537 660 465 712 481 8 516 
638 3 696 446 306 
639 7 551 111 491 249 578 246 697 
640 7 415 411 252 147 231 384 356 
641 7 267 207 77 145 485 550 185 
642 5 605 88 645 564 725 
643 7 168 577 693 467 647 474 396 
644 7 649 152 702 663 568 668 524 
645 4 642 605 88 725 
646 3 16 506 361 
647 7 693 577 474 396 643 473 168 
648 5 519 484 687 586 33 
649 7 663 644 152 668 463 568 702 
650 6 158 530 424 726 534 102 
651 7 327 15 143 253 307 427 575 
652 7 692 262 520 439 458 586 511 
653 7 261 464 555 133 504 97 717 
654 7 614 543 673 194 482 403 98 
655 5 678 701 339 600 661 
656 7 680 625 599 448 711 319 302 
657 7 183 472 505 594 603 723 433 
658 4 612 483 686 97 
659 2 162 718 
660 7 516 618 96 562 494 637 124 
661 7 702 600 524 644 580 152 582 
662 6 628 168 22 643 473 577 
663 7 649 463 644 152 668 568 702 
664 3 720 255 548 
665 6 701 207 485 678 339 583 
666 6 636 95 539 249 620 624 
667 7 215 277 13 558 408 149 83 
668 6 649 644 663 702 463 152 
669 6 703 403 610 159 98 442 
670 7 724 268 62 416 365 331 216 
671 7 314 567 202 3 83 44 65 
672 7 477 674 382 606 250 492 718 
673 7 482 98 614 654 159 543 690 
674 7 382 250 672 492 477 606 548 
675 6 230 528 476 30 444 493 
676 7 563 76 258 425 449 309 515 
677 7 21 50 412 426 180 264 53 
678 4 701 655 339 665 
679 4 503 350 686 184 
680 7 656 599 625 302 711 460 448 
681 2 510 282 
682 5 523 90 456 597 601 
683 7 627 588 572 542 495 6 196 
684 6 553 442 496 329 703 610 
685 5 532 460 539 480 302 
686 5 350 184 569 679 503 
687 4 529 450 597 90 
688 7 37 28 196 554 596 525 598 
689 7 429 230 528 455 16 646 493 
690 7 97 98 159 482 673 483 658 
691 7 407 466 296 283 118 243 566 
692 6 520 652 262 439 458 586 
693 7 577 647 474 643 168 396 473 
694 7 346 433 723 437 583 339 505 
695 7 270 344 161 132 345 545 294 
696 3 638 446 306 
697 5 444 178 374 666 476 
698 7 171 447 623 443 211 453 461 
699 7 208 315 7 343 404 275 366 
700 7 546 363 604 405 124 204 214 
701 5 678 665 339 655 583 
702 7 661 644 524 600 668 152 649 
703 7 669 442 553 610 684 329 159 
704 6 721 672 628 674 662 250 
705 7 617 250 492 382 561 452 548 
706 7 226 165 106 23 60 206 413 
707 5 102 534 626 574 650 
708 7 368 436 716 445 541 155 424 
709 7 179 260 271 232 367 331 602 
710 7 587 545 161 543 614 164 619 
711 7 302 656 680 460 625 30 599 
712 7 8 465 369 420 502 537 620 
713 7 497 428 6 495 509 572 274 
714 7 105 186 581 322 292 345 360 
715 7 522 14 570 278 140 285 375 
716 7 436 368 708 541 445 155 632 
717 7 584 504 579 565 555 255 720 
718 6 606 162 477 659 630 591 
719 6 527 30 513 448 493 656 
720 4 664 255 504 571 
721 6 704 672 674 477 628 250 
722 7 69 138 354 210 259 481 265 
723 7 433 657 694 183 505 472 346 
724 7 670 416 268 62 286 365 331 
725 7 88 565 579 243 642 283 584 
726 3 530 158 424 
727 5 552 441 2 459 31 
DEPOT_SECTION
   1
   -1
EOF
