NAME :  X-n837-kX-w83-c9.cctp
COMMENT : 	Adapted by Maziero, Usberti and Cavellucci from the Uchoa, Pecin, Pessoa, Poggi, Subramanian, and Vidal (2013)
TYPE :  CCTP
DIMENSION :    462
EDGE_WEIGHT_TYPE : 	EUC_2D	
CAPACITY : 	44
VERTICES_WITHIN_COVERAGE :  9
VERTICES_WITH_DEMAND : 	83
NODE_COORD_SECTION
1 940 231
2 721 848
3 618 44
4 993 145
5 636 512
6 274 496
7 245 945
8 449 812
9 29 650
10 399 8
11 548 19
12 769 717
13 221 850
14 980 233
15 477 922
16 498 720
17 136 832
18 351 663
19 58 67
20 889 569
21 28 334
22 804 928
23 900 138
24 393 403
25 982 609
26 79 299
27 684 582
28 169 252
29 405 925
30 875 191
31 674 112
32 576 537
33 539 63
34 338 657
35 210 209
36 676 568
37 949 826
38 572 890
39 210 615
40 737 46
41 30 527
42 131 724
43 671 842
44 727 566
45 507 497
46 524 134
47 167 665
48 819 108
49 929 582
50 713 738
51 352 626
52 887 547
53 176 645
54 611 289
55 457 532
56 11 147
57 958 60
58 587 187
59 790 956
60 974 63
61 306 225
62 961 969
63 238 736
64 758 840
65 88 44
66 507 811
67 768 476
68 51 914
69 494 445
70 953 33
71 922 45
72 748 111
73 544 867
74 477 596
75 322 79
76 439 150
77 586 764
78 214 599
79 168 480
80 925 138
81 797 107
82 751 783
83 738 913
84 703 73
85 681 886
86 627 27
87 834 858
88 477 559
89 542 94
90 370 432
91 666 178
92 631 484
93 820 918
94 687 877
95 752 983
96 157 720
97 709 898
98 728 617
99 66 59
100 991 657
101 717 47
102 463 177
103 438 722
104 43 247
105 69 560
106 115 806
107 36 456
108 500 152
109 277 601
110 962 575
111 588 181
112 108 931
113 209 800
114 129 525
115 97 324
116 495 122
117 759 480
118 780 669
119 786 769
120 759 159
121 282 633
122 361 17
123 957 103
124 711 939
125 544 544
126 27 318
127 539 783
128 824 841
129 833 988
130 16 637
131 41 388
132 623 780
133 660 155
134 700 658
135 946 783
136 607 815
137 658 874
138 527 853
139 459 577
140 937 639
141 833 692
142 421 999
143 469 163
144 509 61
145 488 408
146 510 460
147 342 691
148 787 465
149 700 873
150 659 568
151 478 525
152 988 980
153 28 661
154 724 842
155 2 660
156 210 180
157 840 841
158 843 9
159 265 453
160 209 673
161 20 952
162 138 655
163 769 741
164 325 260
165 831 678
166 401 625
167 192 520
168 449 679
169 579 295
170 333 352
171 837 944
172 797 97
173 440 877
174 407 621
175 550 241
176 253 243
177 76 852
178 642 116
179 598 124
180 997 660
181 14 98
182 774 9
183 791 671
184 575 109
185 895 790
186 761 886
187 501 846
188 731 4
189 337 71
190 106 973
191 978 669
192 884 559
193 10 910
194 390 602
195 451 134
196 324 221
197 569 98
198 672 867
199 584 520
200 193 416
201 954 912
202 761 734
203 192 875
204 88 353
205 777 38
206 98 68
207 824 694
208 238 825
209 357 593
210 541 423
211 537 99
212 137 539
213 68 173
214 939 69
215 566 830
216 371 935
217 840 180
218 970 249
219 975 291
220 192 630
221 560 724
222 310 503
223 506 445
224 720 806
225 259 450
226 388 967
227 399 787
228 11 859
229 721 451
230 3 300
231 983 902
232 984 221
233 514 801
234 887 476
235 552 923
236 803 145
237 974 602
238 316 566
239 448 186
240 653 3
241 239 470
242 434 39
243 420 378
244 805 572
245 769 874
246 38 852
247 105 958
248 504 740
249 62 24
250 360 375
251 199 310
252 484 955
253 481 777
254 277 225
255 504 527
256 242 931
257 801 74
258 538 483
259 377 842
260 244 834
261 115 811
262 37 611
263 30 147
264 109 856
265 34 512
266 937 779
267 840 77
268 470 783
269 890 127
270 719 972
271 119 237
272 199 550
273 221 723
274 613 950
275 357 566
276 582 795
277 815 464
278 329 481
279 144 199
280 778 769
281 960 581
282 869 582
283 762 952
284 279 754
285 152 677
286 262 932
287 128 42
288 322 73
289 392 609
290 598 496
291 433 748
292 240 788
293 519 923
294 117 800
295 323 190
296 44 588
297 326 102
298 446 362
299 469 593
300 764 469
301 595 304
302 511 582
303 552 544
304 82 52
305 505 535
306 348 79
307 382 971
308 532 444
309 451 579
310 380 524
311 64 69
312 483 514
313 497 64
314 248 949
315 375 378
316 366 0
317 573 528
318 120 742
319 538 87
320 654 479
321 195 998
322 115 52
323 274 243
324 213 892
325 556 888
326 324 50
327 430 128
328 207 933
329 468 125
330 175 709
331 162 859
332 51 47
333 442 125
334 444 691
335 40 840
336 464 616
337 127 21
338 79 85
339 164 732
340 340 363
341 414 154
342 77 257
343 410 533
344 461 585
345 181 164
346 150 224
347 241 697
348 395 26
349 136 5
350 507 75
351 398 622
352 352 730
353 305 69
354 751 566
355 249 494
356 209 637
357 413 673
358 246 922
359 245 939
360 534 437
361 780 618
362 22 4
363 436 370
364 171 660
365 764 567
366 594 247
367 255 840
368 495 395
369 378 926
370 723 669
371 289 292
372 213 165
373 455 745
374 515 475
375 186 643
376 443 30
377 634 512
378 144 764
379 460 151
380 327 83
381 345 249
382 530 192
383 213 657
384 597 751
385 102 914
386 603 302
387 561 541
388 424 174
389 542 198
390 276 191
391 59 564
392 512 898
393 375 11
394 482 548
395 137 621
396 155 793
397 205 733
398 554 130
399 599 693
400 365 919
401 473 164
402 34 929
403 178 253
404 55 99
405 519 123
406 346 372
407 55 79
408 470 430
409 109 474
410 121 716
411 46 87
412 388 31
413 627 292
414 105 831
415 196 879
416 70 101
417 182 429
418 461 727
419 611 551
420 250 928
421 116 708
422 593 306
423 335 249
424 251 203
425 349 223
426 549 148
427 99 354
428 65 569
429 599 697
430 197 184
431 240 583
432 684 693
433 269 748
434 646 519
435 268 693
436 61 608
437 658 591
438 312 448
439 539 169
440 18 18
441 248 946
442 565 83
443 518 10
444 64 665
445 219 644
446 637 463
447 415 133
448 747 120
449 591 776
450 375 17
451 496 587
452 332 242
453 236 921
454 439 545
455 526 747
456 202 580
457 238 966
458 163 299
459 264 956
460 60 249
461 667 557
462 266 960
DEMAND_SECTION
2 7
3 9
4 6
5 7
6 6
7 8
8 9
9 5
10 8
11 10
12 7
13 5
14 7
15 10
16 6
17 5
18 5
19 7
20 6
21 10
22 8
23 10
24 9
25 6
26 10
27 10
28 10
29 10
30 5
31 7
32 8
33 9
34 5
35 7
36 10
37 9
38 6
39 7
40 6
41 7
42 7
43 9
44 6
45 8
46 6
47 5
48 7
49 6
50 7
51 6
52 10
53 6
54 7
55 6
56 7
57 5
58 6
59 9
60 7
61 7
62 8
63 9
64 10
65 10
66 8
67 8
68 5
69 9
70 9
71 10
72 9
73 7
74 10
75 5
76 5
77 10
78 8
79 8
80 10
81 6
82 6
83 8
84 8
COVERAGE_SECTION
2 9 154 149 64 224 94 43 97 198 85 
3 9 86 240 442 197 11 178 184 33 179 
4 9 123 80 232 60 14 57 23 214 269 
5 8 377 434 92 320 290 419 446 199 
6 9 355 222 159 241 225 278 438 238 167 
7 9 441 314 359 256 420 286 457 459 358 
8 9 268 253 227 66 187 173 233 291 373 
9 7 153 130 155 444 262 436 296 
10 8 348 393 412 450 316 122 242 376 
11 9 443 33 144 442 313 319 350 3 89 
12 9 202 163 118 183 280 119 50 207 370 
13 6 260 208 367 203 415 324 
14 6 232 218 219 4 80 30 
15 9 252 293 392 173 29 235 187 138 325 
16 9 248 418 455 373 253 103 334 221 168 
17 7 261 414 106 264 294 331 396 
18 9 34 147 51 351 166 357 352 289 174 
19 8 311 99 407 332 411 304 338 404 
20 9 192 52 282 49 281 110 244 140 237 
21 8 126 230 131 26 204 115 427 104 
22 9 93 59 171 283 186 245 129 83 87 
23 9 269 80 30 123 217 214 48 267 4 
24 8 315 90 243 250 363 406 340 298 
25 9 237 281 110 100 180 140 49 191 20 
26 8 115 342 460 126 204 427 21 104 
27 8 36 437 150 461 44 98 354 434 
28 8 403 346 458 271 35 279 251 430 
29 6 369 216 400 226 307 173 
30 7 217 23 269 80 236 48 218 
31 9 178 133 84 91 448 72 179 101 3 
32 7 317 387 199 303 125 419 290 
33 9 319 144 89 442 350 211 313 11 197 
34 8 18 51 147 121 209 351 166 289 
35 9 430 156 424 372 345 403 176 28 346 
36 8 461 27 150 437 44 434 419 5 
37 5 135 266 185 231 201 
38 9 325 73 235 138 215 392 293 274 136 
39 9 78 356 220 445 456 375 383 431 53 
40 9 101 205 188 84 182 72 257 448 172 
41 5 265 391 105 428 296 
42 5 410 318 421 96 339 
43 9 198 137 94 149 85 2 154 224 97 
44 9 354 365 27 36 98 461 150 437 361 
45 7 374 312 255 258 146 305 151 
46 8 405 426 108 398 116 211 439 89 
47 5 364 285 53 375 162 
48 9 81 172 267 257 236 72 269 448 217 
49 9 281 110 20 237 192 52 140 25 282 
50 8 202 432 163 82 12 224 370 280 
51 9 209 34 18 289 194 351 166 174 275 
52 8 192 20 282 49 234 110 281 244 
53 9 375 364 47 220 356 162 383 285 160 
54 6 386 413 301 422 169 366 
55 9 151 454 394 312 88 139 255 309 343 
56 7 263 181 213 404 411 416 407 
57 9 60 214 70 71 123 80 4 269 23 
58 9 111 389 439 426 382 366 179 175 398 
59 9 283 22 95 93 171 129 83 270 186 
60 9 57 214 70 123 71 4 80 23 269 
61 8 196 254 452 323 423 295 164 425 
62 9 152 201 231 171 129 37 93 22 87 
63 7 273 397 433 347 284 292 435 
64 9 154 245 2 186 224 82 128 149 280 
65 8 304 206 99 322 249 311 332 19 
66 9 233 187 127 253 268 138 8 215 73 
67 5 300 117 148 277 229 
68 9 402 193 161 385 112 246 177 228 247 
69 8 223 146 408 145 374 308 360 368 
70 9 57 71 60 214 123 80 158 269 23 
71 9 214 70 57 60 123 158 267 269 80 
72 9 448 81 120 172 84 236 257 40 48 
73 9 138 325 38 215 392 187 235 293 66 
74 8 299 344 451 336 139 309 88 302 
75 7 288 380 189 353 297 306 326 
76 9 195 379 327 333 341 388 447 143 102 
77 9 449 384 276 132 221 127 136 455 429 
78 9 39 456 431 220 356 445 272 375 383 
79 7 167 417 409 114 212 200 241 
80 9 23 269 123 4 214 30 57 60 71 
81 9 172 48 257 236 72 267 448 120 205 
82 9 280 119 224 163 202 64 50 154 12 
83 9 97 186 124 283 245 149 94 270 85 
84 9 101 40 31 72 448 188 178 205 240 
85 9 94 198 149 137 97 43 2 124 154 
86 9 3 240 11 442 84 178 101 197 33 
87 7 157 128 93 245 22 64 186 
88 9 394 139 344 309 55 151 451 299 74 
89 8 211 319 442 197 33 184 405 398 
90 8 24 315 250 438 278 406 243 340 
91 4 133 31 178 111 
92 6 446 320 5 377 290 434 
93 9 22 171 59 87 186 245 283 129 128 
94 9 85 149 198 137 97 43 2 154 83 
95 9 283 270 59 124 83 22 129 93 171 
96 6 339 330 42 410 285 318 
97 9 149 85 94 83 124 198 2 186 137 
98 8 134 44 361 370 27 354 365 36 
99 8 311 19 304 332 407 65 338 206 
100 7 180 191 25 140 237 281 110 
101 9 40 84 188 205 182 72 31 240 448 
102 6 143 401 239 379 76 388 
103 8 418 291 373 334 168 357 16 248 
104 4 460 342 26 230 
105 7 428 391 296 436 41 265 262 
106 4 261 294 414 17 
107 4 265 131 41 409 
108 5 46 116 401 143 405 
109 8 121 431 238 78 39 445 356 456 
110 9 281 237 49 25 140 20 52 192 100 
111 9 58 389 439 426 179 382 398 366 175 
112 5 385 247 190 68 402 
113 5 292 208 260 13 396 
114 4 212 409 79 167 
115 7 204 427 26 21 126 342 458 
116 6 405 329 108 46 379 195 
117 7 67 300 148 229 277 354 365 
118 9 183 12 207 361 165 370 141 202 163 
119 6 280 163 82 202 12 64 
120 7 448 236 72 81 172 48 217 
121 7 109 34 435 445 431 51 356 
122 6 450 393 316 412 348 10 
123 9 214 57 60 80 4 23 71 70 269 
124 9 270 83 97 283 95 85 94 149 186 
125 5 303 387 32 317 305 
126 8 21 230 26 115 204 131 104 460 
127 9 233 455 66 276 77 449 215 248 253 
128 6 157 87 245 64 93 186 
129 9 171 59 22 93 283 95 270 83 186 
130 7 9 153 155 262 436 296 444 
131 5 21 204 427 107 126 
132 8 449 136 384 77 276 215 43 127 
133 6 91 178 31 179 111 58 
134 5 370 432 98 27 437 
135 3 266 37 185 
136 9 276 132 449 215 77 384 43 127 137 
137 9 198 85 94 43 149 97 2 154 136 
138 9 73 187 215 325 66 392 233 38 293 
139 9 309 344 299 88 74 394 451 454 336 
140 7 191 237 25 100 49 281 180 
141 5 207 165 183 118 12 
142 6 226 307 29 252 216 369 
143 7 401 102 379 239 76 108 195 
144 7 313 350 33 319 89 211 443 
145 8 368 408 69 223 360 210 146 308 
146 8 223 374 69 308 360 258 45 210 
147 4 18 34 352 51 
148 5 67 300 277 117 229 
149 9 94 85 97 198 2 154 43 137 83 
150 7 461 36 437 27 419 434 5 
151 8 312 55 394 255 305 88 45 454 
152 9 62 201 231 129 171 37 93 22 87 
153 5 9 155 130 444 262 
154 9 2 64 224 149 94 43 245 186 97 
155 6 153 130 9 262 444 436 
156 5 430 372 35 345 424 
157 6 128 87 185 245 93 64 
158 9 267 182 205 257 71 172 48 81 40 
159 8 225 241 6 355 438 222 278 200 
160 9 383 445 356 375 347 364 47 53 220 
161 9 402 193 68 247 190 112 385 228 246 
162 2 285 47 
163 9 202 12 280 119 82 50 207 118 183 
164 6 423 452 381 196 61 425 
165 5 141 207 183 118 12 
166 8 351 174 289 194 51 357 209 18 
167 8 272 79 212 456 114 355 241 431 
168 8 334 357 103 418 16 336 373 291 
169 4 301 422 386 54 
170 6 340 406 250 315 371 24 
171 9 93 22 129 59 283 87 95 186 245 
172 9 81 257 48 267 236 72 448 205 120 
173 8 15 29 8 187 259 392 369 400 
174 9 166 351 289 194 357 51 209 336 309 
175 6 366 389 382 169 58 111 
176 9 323 254 424 35 61 390 371 164 196 
177 7 264 414 246 335 261 106 17 
178 9 31 133 179 91 184 84 197 3 442 
179 9 184 197 398 178 442 426 111 58 89 
180 7 100 191 25 237 140 281 110 
181 9 411 404 407 56 263 19 416 311 332 
182 9 205 188 40 101 158 257 172 267 84 
183 9 118 207 165 141 12 361 370 202 163 
184 9 197 179 442 398 89 211 319 426 46 
185 4 266 135 37 157 
186 9 245 83 64 97 2 154 22 149 283 
187 9 138 66 233 73 392 8 215 173 325 
188 9 40 182 101 205 84 240 257 86 72 
189 5 306 288 380 75 326 
190 6 247 112 385 68 402 161 
191 7 100 180 140 25 237 281 110 
192 9 20 52 282 49 281 110 244 234 140 
193 8 402 68 161 228 246 335 177 385 
194 8 289 351 166 174 209 51 275 309 
195 7 333 329 379 76 327 143 447 
196 6 61 452 425 423 295 381 
197 9 184 442 89 211 319 398 179 33 426 
198 9 137 94 85 43 149 97 2 154 224 
199 6 317 32 290 387 303 419 
200 4 417 79 241 225 
201 9 231 62 152 37 171 135 87 93 157 
202 9 163 12 280 119 50 82 118 183 207 
203 5 415 324 331 13 328 
204 6 427 115 26 131 21 126 
205 9 182 40 257 188 101 172 81 158 267 
206 6 304 322 338 65 99 311 
207 6 141 165 183 118 12 163 
208 5 260 367 13 292 113 
209 8 275 51 194 289 238 351 166 174 
210 5 360 308 223 146 69 
211 8 89 319 405 197 442 398 33 46 
212 5 114 167 272 79 105 
213 2 263 56 
214 9 57 71 60 123 70 80 269 23 4 
215 9 276 73 136 138 127 325 38 233 449 
216 5 369 400 29 226 307 
217 9 30 236 23 269 48 120 81 172 80 
218 3 14 232 219 
219 3 218 14 232 
220 9 375 356 53 39 445 383 364 78 47 
221 9 455 384 429 77 399 248 449 16 127 
222 8 278 6 438 355 238 159 310 225 
223 8 69 146 308 360 374 408 145 210 
224 9 154 82 2 64 43 50 280 149 119 
225 8 159 241 355 6 438 200 222 278 
226 6 307 216 369 29 142 400 
227 6 291 8 259 373 268 352 
228 6 246 335 193 177 68 402 
229 5 300 117 67 148 320 
230 6 126 21 104 26 460 342 
231 9 201 62 152 37 135 266 185 171 87 
232 6 14 218 219 4 80 30 
233 9 66 127 253 187 268 138 455 215 248 
234 4 52 277 192 20 
235 9 293 325 38 392 73 274 138 15 252 
236 9 81 48 120 172 217 448 72 257 267 
237 9 25 281 110 49 140 100 180 191 20 
238 8 275 209 109 222 51 121 310 431 
239 6 102 388 143 401 76 379 
240 9 86 3 101 188 84 40 11 31 178 
241 9 355 225 159 6 167 417 200 79 438 
242 4 376 348 10 412 
243 5 363 298 24 315 250 
244 9 365 361 354 282 44 192 20 52 98 
245 9 186 64 83 2 154 22 128 97 87 
246 6 335 228 177 68 193 414 
247 5 190 112 385 68 402 
248 9 16 455 253 418 373 127 268 221 233 
249 9 332 65 304 99 19 440 311 362 407 
250 8 406 315 340 170 24 90 243 363 
251 3 458 403 28 
252 9 15 293 392 235 142 29 173 226 325 
253 9 268 233 373 66 248 8 418 455 291 
254 9 323 61 176 390 424 196 295 452 164 
255 7 305 312 151 45 394 88 125 
256 8 359 420 358 453 7 441 314 286 
257 9 172 81 48 267 205 72 40 182 236 
258 4 374 45 146 308 
259 3 227 173 8 
260 4 208 367 13 292 
261 4 106 294 414 17 
262 9 296 436 130 9 428 153 391 105 155 
263 7 56 213 181 404 416 411 407 
264 6 414 177 17 261 106 331 
265 5 41 107 391 105 428 
266 3 135 185 37 
267 9 48 257 172 81 158 269 205 236 23 
268 9 253 8 373 66 233 291 248 418 455 
269 9 23 80 30 123 267 48 217 214 71 
270 9 124 95 283 83 59 97 85 22 186 
271 5 346 279 342 28 460 
272 8 456 167 78 431 212 39 114 355 
273 9 397 63 347 330 160 433 435 339 96 
274 9 235 38 325 137 85 293 124 198 94 
275 7 209 238 310 194 289 51 343 
276 9 449 77 136 215 132 127 384 233 221 
277 5 148 67 300 117 234 
278 8 222 438 6 90 310 159 225 355 
279 5 346 271 345 430 28 
280 7 119 163 82 202 12 224 50 
281 9 110 237 49 25 140 20 192 52 100 
282 8 20 192 52 49 244 140 281 110 
283 9 59 95 83 270 22 124 186 93 171 
284 3 433 63 292 
285 3 47 364 162 
286 8 420 359 358 256 441 7 314 459 
287 5 322 337 349 65 206 
288 7 75 380 189 353 326 306 297 
289 8 194 351 166 174 209 51 275 309 
290 5 199 92 377 5 317 
291 8 373 103 418 268 227 253 334 8 
292 5 113 208 260 433 63 
293 9 392 235 15 252 325 73 38 138 187 
294 4 106 261 414 17 
295 2 196 61 
296 8 262 436 391 428 105 130 41 9 
297 3 380 75 288 
298 5 363 243 368 145 24 
299 9 74 344 139 309 336 451 88 302 394 
300 5 67 117 148 229 277 
301 5 422 386 169 54 413 
302 2 451 74 
303 5 125 387 32 317 199 
304 8 65 99 206 311 19 332 322 338 
305 7 255 394 151 312 88 45 125 
306 3 189 380 75 
307 6 226 216 369 142 29 400 
308 7 360 210 223 146 374 69 258 
309 9 139 344 299 74 88 454 336 394 451 
310 7 343 275 454 278 209 222 55 
311 8 19 99 407 338 304 411 332 404 
312 7 151 255 45 305 55 394 88 
313 6 144 350 33 319 211 89 
314 9 441 7 359 459 256 457 420 462 286 
315 8 250 406 24 340 243 170 90 363 
316 6 393 122 450 10 412 348 
317 7 32 199 387 303 125 290 419 
318 4 42 410 378 421 
319 8 89 211 33 442 197 350 144 405 
320 5 446 92 5 377 434 
321 8 457 328 314 7 441 359 459 462 
322 5 287 206 65 304 337 
323 9 254 176 61 424 371 390 164 196 452 
324 5 415 203 453 328 13 
325 9 38 73 235 138 392 293 215 187 274 
326 5 288 189 353 75 380 
327 5 333 447 195 76 341 
328 7 453 256 359 7 324 358 420 
329 7 195 333 116 379 76 143 327 
330 6 96 339 397 285 47 42 
331 6 203 17 415 264 13 324 
332 9 99 19 249 311 304 407 65 411 440 
333 6 327 195 76 329 447 379 
334 8 168 103 357 418 373 291 16 248 
335 6 246 228 177 414 264 68 
336 7 74 299 344 139 309 451 174 
337 6 349 287 322 65 206 304 
338 7 416 311 206 407 19 404 99 
339 7 96 330 42 378 397 318 410 
340 7 406 170 250 315 24 90 243 
341 4 447 388 76 327 
342 4 460 104 26 271 
343 7 310 454 55 275 309 139 151 
344 9 139 299 309 74 88 336 451 394 454 
345 5 430 372 156 279 35 
346 6 279 28 271 403 35 430 
347 7 435 273 63 160 383 397 445 
348 7 412 10 450 393 122 316 242 
349 4 337 287 322 65 
350 7 144 313 319 33 211 89 116 
351 8 166 174 289 194 51 209 357 18 
352 2 147 18 
353 4 288 75 380 326 
354 9 365 44 244 98 361 27 36 461 117 
355 9 6 241 159 225 222 167 272 438 278 
356 9 445 220 383 39 375 53 160 78 364 
357 8 168 334 166 174 351 103 18 289 
358 8 420 256 453 359 286 7 441 314 
359 9 7 441 256 314 420 358 286 453 459 
360 6 308 210 223 146 69 374 
361 9 118 98 244 365 183 354 44 370 165 
362 9 440 249 332 99 19 65 304 311 407 
363 5 298 243 24 315 145 
364 7 47 53 375 285 162 220 160 
365 9 354 44 244 361 98 27 117 36 67 
366 8 175 54 169 386 413 301 422 58 
367 3 260 208 13 
368 7 145 408 69 223 210 360 298 
369 5 216 400 29 226 307 
370 7 134 432 98 118 12 183 50 
371 7 164 323 176 423 452 254 61 
372 5 156 430 345 35 424 
373 8 418 291 103 253 268 248 16 334 
374 7 146 45 258 223 308 69 360 
375 9 53 220 364 356 47 383 445 39 160 
376 4 242 348 10 412 
377 8 5 434 92 290 320 419 446 199 
378 5 396 318 339 42 294 
379 7 143 401 195 76 102 329 333 
380 6 75 288 189 297 306 353 
381 6 423 452 164 425 196 61 
382 6 389 439 426 108 175 58 
383 9 445 160 356 375 220 53 39 364 47 
384 8 77 449 132 221 276 429 399 136 
385 6 112 247 68 264 190 177 
386 6 301 422 54 169 413 366 
387 5 303 32 125 317 199 
388 4 341 239 76 102 
389 6 382 439 175 58 111 426 
390 5 424 254 61 295 323 
391 7 428 105 296 436 41 262 265 
392 9 293 15 73 325 138 235 187 38 252 
393 6 450 316 122 10 412 348 
394 7 88 151 305 55 255 312 139 
395 5 162 53 364 47 375 
396 5 378 294 106 17 261 
397 8 273 63 330 339 96 347 160 292 
398 9 426 46 184 197 211 405 89 439 179 
399 4 429 221 384 77 
400 3 369 216 29 
401 7 143 102 379 108 239 76 195 
402 9 68 161 193 385 112 228 246 247 190 
403 9 28 346 458 35 251 271 279 430 176 
404 8 411 416 407 338 311 19 99 181 
405 7 46 116 211 108 398 89 426 
406 7 340 250 170 315 24 90 243 
407 8 19 411 311 404 99 338 416 332 
408 8 69 145 223 368 146 308 360 374 
409 2 114 79 
410 4 421 42 318 96 
411 9 407 404 19 311 416 338 99 181 332 
412 6 348 450 393 10 122 316 
413 5 54 386 301 422 169 
414 6 261 264 106 17 294 177 
415 5 203 324 13 331 328 
416 7 404 338 407 411 311 19 99 
417 3 200 79 241 
418 8 373 103 291 16 334 248 168 253 
419 6 32 199 317 377 5 434 
420 8 358 256 359 286 453 7 441 314 
421 2 410 42 
422 5 301 386 169 54 413 
423 6 452 381 164 196 425 61 
424 7 390 254 176 35 323 156 372 
425 6 196 452 381 423 295 61 
426 9 398 439 46 405 184 382 108 211 389 
427 5 204 115 26 131 21 
428 6 391 105 296 436 262 41 
429 5 399 221 384 77 449 
430 7 156 372 345 35 279 424 346 
431 9 78 456 109 39 272 356 121 445 220 
432 5 134 370 50 399 429 
433 5 284 63 292 273 435 
434 9 5 377 92 320 461 419 150 290 36 
435 6 347 63 433 273 121 160 
436 7 262 296 428 391 105 9 130 
437 4 150 27 36 461 
438 8 278 159 225 222 90 6 241 355 
439 7 426 382 389 46 398 108 111 
440 9 362 249 332 19 99 311 407 304 411 
441 9 7 314 359 256 420 459 286 457 462 
442 9 197 89 319 184 211 33 398 179 350 
443 7 11 144 33 313 350 376 319 
444 2 153 9 
445 8 356 383 39 220 160 375 53 78 
446 5 92 320 5 377 290 
447 4 327 341 333 76 
448 9 72 120 81 172 236 84 257 31 48 
449 9 77 276 384 132 136 127 215 221 455 
450 6 393 122 316 412 348 10 
451 6 302 74 299 88 344 139 
452 6 423 381 164 196 425 61 
453 7 358 256 420 359 7 286 441 
454 8 55 343 309 139 88 394 151 344 
455 9 248 127 16 221 253 233 77 66 268 
456 9 78 272 39 431 220 356 167 375 445 
457 9 314 7 441 359 459 462 256 420 286 
458 6 251 28 403 115 271 346 
459 8 462 314 441 7 286 359 457 420 
460 4 104 342 26 271 
461 8 36 150 27 437 434 5 377 419 
462 8 459 314 441 7 286 457 359 420 
DEPOT_SECTION
   1
   -1
EOF
