NAME :  X-n895-kX-w178-c11.cctp
COMMENT : 	Adapted by Maziero, Usberti and Cavellucci from the Uchoa, Pecin, Pessoa, Poggi, Subramanian, and Vidal (2013)
TYPE :  CCTP
DIMENSION :    828
EDGE_WEIGHT_TYPE : 	EUC_2D	
CAPACITY : 	1816
VERTICES_WITHIN_COVERAGE :  11
VERTICES_WITH_DEMAND : 	178
NODE_COORD_SECTION
1 706 137
2 392 662
3 692 274
4 944 370
5 726 945
6 869 43
7 621 770
8 112 402
9 523 374
10 619 178
11 553 457
12 95 814
13 696 130
14 27 417
15 940 487
16 943 965
17 670 435
18 931 752
19 307 776
20 404 101
21 199 526
22 117 312
23 762 505
24 433 864
25 868 155
26 832 870
27 488 624
28 686 782
29 585 89
30 268 339
31 248 344
32 22 776
33 89 614
34 75 271
35 882 646
36 6 656
37 449 27
38 857 362
39 809 774
40 403 626
41 559 145
42 667 945
43 524 737
44 683 777
45 641 798
46 514 495
47 102 813
48 517 591
49 748 330
50 859 127
51 699 41
52 281 442
53 257 106
54 116 99
55 41 732
56 555 95
57 378 1
58 155 308
59 942 955
60 619 205
61 646 910
62 796 791
63 785 49
64 958 817
65 424 240
66 311 226
67 37 119
68 761 866
69 404 417
70 929 432
71 743 535
72 418 679
73 107 379
74 329 868
75 22 432
76 24 474
77 380 83
78 145 135
79 576 209
80 877 859
81 901 0
82 464 473
83 181 35
84 976 331
85 672 617
86 324 264
87 193 341
88 525 782
89 527 935
90 218 529
91 48 325
92 431 989
93 626 974
94 594 432
95 757 450
96 805 123
97 959 266
98 348 776
99 409 946
100 458 247
101 841 361
102 333 503
103 675 306
104 407 811
105 418 325
106 856 199
107 300 792
108 371 156
109 163 237
110 172 589
111 609 928
112 273 18
113 379 694
114 996 38
115 4 6
116 738 18
117 693 307
118 989 54
119 468 585
120 594 172
121 563 205
122 271 783
123 58 987
124 374 383
125 775 530
126 913 512
127 413 798
128 813 948
129 943 941
130 437 169
131 247 374
132 347 51
133 8 111
134 321 825
135 854 335
136 619 272
137 742 232
138 496 187
139 605 66
140 973 75
141 241 509
142 845 106
143 451 217
144 955 319
145 432 662
146 704 73
147 418 205
148 817 754
149 570 429
150 362 720
151 114 713
152 11 516
153 737 62
154 563 318
155 222 187
156 697 638
157 343 830
158 1 279
159 3 342
160 231 539
161 628 515
162 827 658
163 801 656
164 679 529
165 158 918
166 142 648
167 530 874
168 305 312
169 328 352
170 501 82
171 189 506
172 78 479
173 863 149
174 413 938
175 353 328
176 173 12
177 311 155
178 839 829
179 674 882
180 463 786
181 554 231
182 693 512
183 382 975
184 28 64
185 298 757
186 343 385
187 789 178
188 650 2
189 580 122
190 111 986
191 779 332
192 311 146
193 263 238
194 770 491
195 319 39
196 703 930
197 539 28
198 45 221
199 714 181
200 428 934
201 120 134
202 301 361
203 940 618
204 277 407
205 126 331
206 564 510
207 177 346
208 265 422
209 651 553
210 19 286
211 928 367
212 894 965
213 523 620
214 894 67
215 498 538
216 864 235
217 8 209
218 482 729
219 736 659
220 491 881
221 990 18
222 303 19
223 98 362
224 513 920
225 54 777
226 669 503
227 401 696
228 282 796
229 373 477
230 97 129
231 289 226
232 604 594
233 192 881
234 806 742
235 737 534
236 235 539
237 335 13
238 218 573
239 544 714
240 389 497
241 706 668
242 459 745
243 841 879
244 229 474
245 786 899
246 857 774
247 373 117
248 444 64
249 60 688
250 392 214
251 884 652
252 455 410
253 384 134
254 309 192
255 255 115
256 102 622
257 40 41
258 704 407
259 164 482
260 110 315
261 928 101
262 490 778
263 991 811
264 916 88
265 545 940
266 398 279
267 984 276
268 308 171
269 644 223
270 934 144
271 420 61
272 169 435
273 810 360
274 121 281
275 409 392
276 787 260
277 62 236
278 713 481
279 18 568
280 369 806
281 407 560
282 172 307
283 429 168
284 570 697
285 755 949
286 204 115
287 785 263
288 163 735
289 308 916
290 553 947
291 640 395
292 556 985
293 408 699
294 77 370
295 647 45
296 101 363
297 724 896
298 554 248
299 597 941
300 677 358
301 80 300
302 422 903
303 359 979
304 89 43
305 759 567
306 217 226
307 755 196
308 727 756
309 243 741
310 55 272
311 54 601
312 723 760
313 376 531
314 491 26
315 116 948
316 588 950
317 952 878
318 740 917
319 33 931
320 934 527
321 878 622
322 436 544
323 506 952
324 56 100
325 833 235
326 666 148
327 311 177
328 820 203
329 468 112
330 805 38
331 840 619
332 672 531
333 336 457
334 422 735
335 610 233
336 549 234
337 717 345
338 174 728
339 379 181
340 441 849
341 507 580
342 152 247
343 959 525
344 665 922
345 560 104
346 24 789
347 366 714
348 364 519
349 180 505
350 537 611
351 319 92
352 12 721
353 627 506
354 14 240
355 913 124
356 611 472
357 861 969
358 258 237
359 692 340
360 798 911
361 55 353
362 698 642
363 659 716
364 592 510
365 50 737
366 199 933
367 307 646
368 676 138
369 27 719
370 9 732
371 717 497
372 387 712
373 684 116
374 211 434
375 180 889
376 367 808
377 790 121
378 735 751
379 69 205
380 960 894
381 442 938
382 464 531
383 334 100
384 713 827
385 568 287
386 734 265
387 1 988
388 877 355
389 421 908
390 835 584
391 679 551
392 905 619
393 84 49
394 509 761
395 49 237
396 970 982
397 452 208
398 375 760
399 384 862
400 314 488
401 815 978
402 258 573
403 685 368
404 697 265
405 654 904
406 880 966
407 105 180
408 196 870
409 712 781
410 47 976
411 283 778
412 984 484
413 62 771
414 256 155
415 830 384
416 924 883
417 710 801
418 748 439
419 203 86
420 946 896
421 558 219
422 726 422
423 627 320
424 753 602
425 551 407
426 170 569
427 242 803
428 822 356
429 918 925
430 40 984
431 678 213
432 187 214
433 218 141
434 5 201
435 73 772
436 514 119
437 603 438
438 509 260
439 55 709
440 65 734
441 448 333
442 32 560
443 40 598
444 364 436
445 48 915
446 638 194
447 289 900
448 65 701
449 270 825
450 313 577
451 33 609
452 988 726
453 328 755
454 704 359
455 327 312
456 631 37
457 165 429
458 629 240
459 212 564
460 642 201
461 585 932
462 911 208
463 993 799
464 347 487
465 648 607
466 484 925
467 662 962
468 136 495
469 694 362
470 117 776
471 61 334
472 639 541
473 819 723
474 742 676
475 335 666
476 685 781
477 475 132
478 875 693
479 538 786
480 631 519
481 24 691
482 76 956
483 649 263
484 609 475
485 618 152
486 97 306
487 481 737
488 71 451
489 96 989
490 705 252
491 459 979
492 940 686
493 991 133
494 473 340
495 524 304
496 902 482
497 62 39
498 891 180
499 218 68
500 564 128
501 724 756
502 142 723
503 199 802
504 838 393
505 170 195
506 991 179
507 327 422
508 462 560
509 50 912
510 274 530
511 165 743
512 503 930
513 414 19
514 857 314
515 905 657
516 736 179
517 746 547
518 79 359
519 822 719
520 611 871
521 221 972
522 747 25
523 317 246
524 479 411
525 663 953
526 390 844
527 919 567
528 277 365
529 876 710
530 48 695
531 211 991
532 602 104
533 25 664
534 480 25
535 842 729
536 113 381
537 884 645
538 998 717
539 161 208
540 366 683
541 71 282
542 608 939
543 463 27
544 857 993
545 155 642
546 39 15
547 549 404
548 577 32
549 180 887
550 251 66
551 780 353
552 925 23
553 229 298
554 467 518
555 629 690
556 767 447
557 609 706
558 285 58
559 151 320
560 405 567
561 266 302
562 737 994
563 979 446
564 709 111
565 773 865
566 301 43
567 98 770
568 638 680
569 122 275
570 818 874
571 587 993
572 581 90
573 675 767
574 394 485
575 233 115
576 523 829
577 258 116
578 540 968
579 530 493
580 91 519
581 504 936
582 919 829
583 456 683
584 114 174
585 869 350
586 648 215
587 72 7
588 122 700
589 14 55
590 852 391
591 925 58
592 896 356
593 1000 181
594 740 435
595 171 685
596 414 107
597 319 3
598 428 407
599 649 573
600 287 377
601 345 908
602 260 775
603 455 930
604 395 17
605 29 545
606 515 475
607 76 518
608 397 332
609 249 19
610 84 948
611 619 511
612 55 952
613 110 785
614 245 598
615 767 266
616 689 850
617 524 721
618 408 696
619 215 198
620 559 740
621 850 248
622 813 23
623 113 360
624 5 103
625 150 678
626 24 381
627 564 946
628 948 682
629 439 83
630 120 789
631 383 989
632 444 944
633 780 460
634 291 865
635 884 797
636 580 354
637 597 359
638 39 789
639 105 650
640 974 818
641 772 641
642 278 318
643 277 353
644 705 598
645 10 683
646 376 850
647 709 481
648 554 851
649 349 880
650 654 921
651 287 871
652 507 121
653 651 137
654 885 710
655 978 127
656 108 383
657 796 535
658 324 120
659 680 848
660 741 55
661 567 356
662 948 484
663 384 849
664 898 609
665 333 274
666 48 119
667 162 955
668 755 16
669 680 28
670 905 694
671 516 164
672 815 264
673 145 502
674 370 139
675 147 867
676 413 855
677 725 215
678 382 152
679 465 342
680 207 306
681 362 832
682 450 698
683 76 260
684 689 652
685 456 653
686 166 505
687 297 183
688 674 941
689 360 125
690 698 567
691 641 61
692 806 739
693 879 332
694 328 738
695 60 626
696 771 498
697 773 764
698 782 446
699 246 489
700 44 716
701 125 308
702 465 68
703 471 311
704 586 559
705 690 839
706 703 363
707 61 613
708 959 114
709 505 443
710 236 226
711 591 180
712 298 472
713 808 917
714 80 442
715 534 945
716 971 304
717 508 967
718 318 272
719 826 605
720 884 385
721 664 720
722 527 864
723 516 762
724 853 785
725 686 79
726 990 418
727 775 966
728 52 500
729 972 304
730 504 998
731 173 863
732 580 766
733 130 459
734 639 292
735 688 616
736 926 405
737 683 889
738 590 217
739 80 441
740 949 339
741 366 878
742 5 325
743 189 316
744 213 379
745 248 724
746 489 309
747 435 486
748 484 727
749 224 242
750 94 504
751 231 474
752 516 264
753 832 385
754 900 15
755 127 103
756 176 136
757 160 67
758 346 693
759 584 219
760 495 809
761 383 299
762 947 391
763 705 505
764 822 909
765 976 477
766 799 545
767 610 193
768 46 858
769 752 779
770 505 89
771 483 553
772 525 251
773 585 737
774 759 448
775 553 402
776 300 459
777 867 678
778 77 562
779 499 201
780 492 616
781 690 820
782 310 386
783 956 549
784 803 123
785 354 770
786 134 392
787 6 687
788 8 147
789 859 27
790 553 65
791 695 997
792 465 120
793 407 480
794 399 411
795 510 499
796 608 240
797 906 910
798 900 358
799 448 970
800 466 485
801 845 701
802 763 376
803 76 538
804 899 267
805 950 497
806 161 440
807 693 594
808 768 305
809 449 937
810 154 151
811 148 376
812 474 526
813 265 553
814 617 328
815 417 672
816 781 526
817 11 580
818 128 92
819 351 810
820 669 575
821 843 769
822 740 767
823 304 526
824 298 862
825 966 953
826 37 837
827 711 961
828 534 28
DEMAND_SECTION
2 67
3 86
4 82
5 99
6 54
7 52
8 54
9 71
10 70
11 61
12 74
13 91
14 97
15 92
16 63
17 84
18 90
19 53
20 66
21 79
22 57
23 53
24 72
25 58
26 94
27 86
28 64
29 74
30 82
31 78
32 77
33 78
34 58
35 51
36 64
37 61
38 87
39 92
40 80
41 62
42 97
43 88
44 78
45 78
46 86
47 75
48 62
49 96
50 82
51 50
52 61
53 86
54 67
55 92
56 57
57 51
58 70
59 93
60 83
61 99
62 64
63 62
64 78
65 64
66 81
67 85
68 56
69 56
70 87
71 91
72 92
73 58
74 68
75 93
76 58
77 98
78 87
79 85
80 94
81 71
82 93
83 50
84 60
85 90
86 95
87 87
88 85
89 79
90 54
91 89
92 98
93 98
94 85
95 97
96 94
97 69
98 62
99 56
100 98
101 65
102 55
103 93
104 52
105 69
106 60
107 97
108 55
109 85
110 52
111 66
112 72
113 69
114 50
115 73
116 54
117 74
118 93
119 84
120 69
121 99
122 74
123 94
124 98
125 55
126 95
127 74
128 88
129 100
130 79
131 85
132 78
133 71
134 96
135 96
136 76
137 50
138 100
139 70
140 55
141 70
142 82
143 64
144 61
145 97
146 82
147 89
148 81
149 73
150 63
151 78
152 74
153 69
154 53
155 78
156 71
157 52
158 96
159 92
160 75
161 63
162 56
163 93
164 86
165 58
166 58
167 93
168 78
169 62
170 64
171 83
172 100
173 88
174 79
175 75
176 76
177 62
178 62
179 68
COVERAGE_SECTION
2 11 815 72 540 113 227 40 618 145 293 372 758 
3 11 404 490 117 103 386 483 734 431 137 359 677 
4 11 211 762 740 736 798 84 592 144 720 70 726 
5 11 827 196 285 318 297 562 688 727 42 791 525 
6 11 789 214 754 81 591 552 622 330 264 142 261 
7 11 45 732 773 573 44 476 557 28 363 721 620 
8 11 656 536 73 786 296 223 623 811 294 739 714 
9 11 547 775 425 661 524 494 636 679 154 495 709 
10 11 767 446 120 485 60 711 460 586 738 269 653 
11 11 149 606 579 94 425 709 437 547 46 206 775 
12 11 47 613 630 470 567 435 413 225 638 826 768 
13 11 373 368 564 326 653 725 199 146 516 153 485 
14 11 75 626 488 76 739 714 294 361 518 159 172 
15 11 662 805 126 765 496 320 343 412 70 563 783 
16 11 59 129 825 396 429 212 406 797 420 380 357 
17 11 258 291 422 647 278 437 226 403 356 594 484 
18 11 654 452 670 635 492 529 64 628 538 246 463 
19 11 107 185 411 453 228 122 98 694 602 785 134 
20 11 596 77 247 253 629 271 689 674 248 678 108 
21 11 90 171 349 160 236 686 459 141 238 426 259 
22 11 260 701 205 486 274 559 569 58 301 623 223 
23 10 696 194 125 816 71 235 517 657 371 633 
24 10 340 676 302 389 526 399 663 104 646 220 
25 11 173 50 498 106 142 355 270 328 462 96 784 
26 11 243 570 764 178 80 360 713 245 565 68 128 
27 11 780 213 685 48 119 341 350 583 145 508 771 
28 11 476 44 573 409 417 781 312 501 45 308 384 
29 11 572 532 345 139 56 189 790 500 548 41 691 
30 11 643 31 642 528 561 202 131 600 168 553 169 
31 11 30 131 643 528 642 561 744 553 600 87 202 
32 11 346 638 225 413 370 55 365 435 352 369 440 
33 10 256 707 695 311 639 443 778 451 166 545 
34 11 683 541 310 301 277 486 395 274 569 260 198 
35 11 537 251 321 515 392 777 664 478 331 670 162 
36 11 533 645 787 481 451 530 695 249 352 369 443 
37 11 543 534 513 248 314 702 271 604 629 57 170 
38 11 101 585 388 135 590 753 415 720 428 504 693 
39 11 62 148 234 821 692 697 724 246 473 535 519 
40 11 2 145 815 72 560 685 281 540 227 618 113 
41 11 500 189 345 120 671 711 56 436 652 485 532 
42 11 688 525 467 344 650 196 61 405 827 93 737 
43 11 617 723 394 239 620 748 218 487 88 479 262 
44 11 476 28 573 409 417 312 781 501 45 308 378 
45 11 7 573 44 476 28 781 659 705 417 732 616 
46 11 795 579 606 215 800 812 206 554 709 11 82 
47 11 12 613 630 470 567 435 413 225 638 826 675 
48 11 341 350 213 780 27 119 771 215 508 704 812 
49 10 191 808 337 551 802 454 706 359 117 469 
50 11 173 142 25 96 355 784 498 214 264 377 106 
51 11 669 146 725 153 660 116 522 295 668 691 188 
52 11 776 208 712 204 507 333 400 699 751 244 782 
53 11 255 577 575 550 414 433 286 499 558 419 351 
54 11 755 818 201 230 78 757 393 324 304 810 756 
55 11 365 700 369 440 439 352 370 530 448 413 481 
56 11 345 572 790 29 500 189 436 532 41 770 652 
57 11 604 513 237 132 597 195 271 37 222 77 566 
58 11 559 282 701 743 205 22 274 207 260 569 87 
59 11 16 129 825 429 396 212 797 420 406 380 416 
60 11 767 446 460 10 335 269 586 738 458 796 711 
61 11 405 650 344 179 42 111 688 737 525 542 520 
62 11 39 697 148 769 234 821 692 178 724 822 246 
63 11 330 622 660 522 668 153 116 377 784 96 789 
64 11 640 263 463 582 317 18 416 380 635 420 80 
65 11 100 143 147 250 397 266 130 283 761 339 105 
66 11 523 231 254 86 687 718 193 327 665 358 268 
67 11 666 324 133 624 788 184 230 589 257 54 201 
68 11 565 245 297 318 360 570 384 713 26 616 764 
69 11 794 275 598 444 124 252 793 229 186 574 524 
70 11 736 762 563 662 15 496 726 4 211 720 765 
71 11 235 517 125 23 305 816 371 696 763 194 657 
72 11 815 618 145 293 227 2 682 583 113 372 685 
73 11 656 536 296 223 623 8 786 294 518 811 205 
74 10 649 824 634 741 157 651 601 134 681 646 
75 11 14 76 626 488 714 739 172 728 294 152 361 
76 11 728 75 152 488 172 14 714 739 607 605 750 
77 11 20 247 596 132 271 689 383 253 674 629 351 
78 11 810 201 756 755 54 818 230 584 407 286 505 
79 11 759 121 738 421 181 711 336 767 120 335 60 
80 11 243 26 178 582 416 797 570 635 764 317 420 
81 11 754 552 789 6 591 214 264 221 622 114 118 
82 11 800 747 554 606 709 795 812 46 793 382 252 
83 11 176 757 499 419 609 550 818 286 755 54 304 
84 11 144 716 729 740 4 267 211 97 762 798 592 
85 11 735 465 807 156 362 644 684 820 599 690 241 
86 10 718 665 523 66 455 168 231 193 561 761 
87 11 207 743 680 282 744 559 58 31 553 811 131 
88 11 479 723 394 262 760 43 576 620 732 617 180 
89 11 715 265 224 581 512 323 290 578 717 627 466 
90 11 160 21 236 141 459 171 238 349 699 813 244 
91 11 471 361 301 742 518 159 210 541 310 486 294 
92 10 799 491 632 99 631 183 381 174 200 809 
93 11 467 542 525 571 299 316 111 42 688 461 650 
94 11 437 149 356 484 11 425 775 547 291 637 17 
95 10 774 556 418 594 633 698 422 194 696 278 
96 11 784 377 142 50 187 173 25 63 328 330 307 
97 10 267 716 729 144 804 84 740 462 506 593 
98 11 785 453 398 819 280 376 19 694 107 185 157 
99 11 174 200 381 632 183 389 809 302 799 92 603 
100 11 143 65 397 438 147 752 779 703 772 266 746 
101 11 38 428 415 753 135 585 273 504 590 388 693 
102 11 464 400 348 823 333 712 229 313 776 240 574 
103 11 117 3 359 734 404 423 483 300 337 469 454 
104 11 127 526 280 376 663 676 646 681 340 399 819 
105 11 608 441 761 266 679 703 494 175 275 124 746 
106 11 328 216 498 325 25 621 173 462 187 50 672 
107 11 19 228 411 122 185 134 602 449 453 98 819 
108 11 678 674 253 339 689 247 283 658 177 192 250 
109 11 342 539 432 505 306 569 274 749 619 58 282 
110 9 426 459 238 545 166 21 614 90 160 
111 11 542 299 461 316 61 650 627 93 405 344 520 
112 11 609 222 566 558 597 195 550 237 499 132 351 
113 11 540 372 227 347 293 618 150 758 2 72 815 
114 11 118 221 140 552 591 708 655 261 264 493 754 
115 11 546 257 589 184 497 587 393 304 624 133 324 
116 11 522 668 660 153 51 63 669 146 330 622 725 
117 11 103 3 359 404 337 300 454 469 490 734 706 
118 11 114 140 221 591 708 552 655 261 493 264 214 
119 11 508 771 341 780 27 48 322 382 215 812 213 
120 11 711 10 767 485 60 79 41 121 738 759 446 
121 11 79 421 759 181 738 336 711 298 120 767 335 
122 10 411 602 228 107 427 19 185 449 309 745 
123 11 410 430 612 482 489 610 190 387 319 315 445 
124 11 186 275 794 69 444 169 608 175 598 507 782 
125 10 816 657 23 766 71 696 517 235 194 305 
126 10 320 496 15 805 662 343 527 783 765 412 
127 11 104 280 376 180 526 398 676 340 663 681 819 
128 11 401 713 360 764 727 357 245 285 544 406 243 
129 11 59 16 825 429 420 797 396 380 212 416 317 
130 11 283 147 397 143 477 792 678 339 138 250 253 
131 11 31 528 744 643 600 30 204 208 202 87 642 
132 11 195 237 77 566 351 383 222 597 57 604 558 
133 11 624 67 788 666 324 184 589 257 434 497 230 
134 11 157 819 107 681 74 824 228 376 634 19 449 
135 11 514 585 693 38 101 388 428 592 273 798 415 
136 11 734 483 458 796 335 423 385 269 814 738 586 
137 11 677 386 307 490 615 276 287 516 404 199 3 
138 11 779 671 397 143 477 130 652 121 283 421 436 
139 11 29 572 691 532 456 548 295 790 56 345 189 
140 11 118 708 114 591 261 655 264 221 493 552 355 
141 11 699 90 236 160 751 244 510 21 813 171 349 
142 11 50 96 784 173 25 377 214 6 355 264 330 
143 11 397 100 65 147 130 779 138 283 250 438 339 
144 11 740 716 729 84 4 267 97 211 798 592 762 
145 11 815 72 685 583 2 682 618 293 40 227 113 
146 11 725 51 153 564 660 373 669 13 295 522 691 
147 11 250 397 143 65 283 130 339 100 678 108 266 
148 11 234 692 39 821 473 519 535 62 246 697 724 
149 11 94 425 775 11 547 437 356 484 709 9 606 
150 11 347 372 113 758 540 694 398 227 453 293 785 
151 11 588 502 448 625 440 288 439 511 567 249 338 
152 11 605 76 728 442 279 817 607 803 172 580 778 
153 11 660 146 522 51 116 668 63 725 564 669 330 
154 11 385 661 636 495 637 814 423 9 298 136 752 
155 11 619 306 710 432 433 414 505 749 358 193 539 
156 11 362 684 735 241 85 644 219 807 465 474 424 
157 11 681 819 134 376 280 646 74 663 526 649 399 
158 11 210 354 742 310 159 395 91 217 541 198 34 
159 11 742 626 91 361 210 471 158 518 14 294 310 
160 11 236 90 459 141 21 238 813 402 510 699 171 
161 11 480 353 611 472 364 226 209 484 356 332 164 
162 11 163 331 777 801 719 35 251 537 641 478 519 
163 11 162 641 331 719 474 801 219 519 473 777 424 
164 11 332 182 391 226 763 209 472 690 820 480 371 
165 11 375 667 549 366 233 315 675 731 408 610 190 
166 10 545 625 639 595 256 588 33 110 151 502 
167 10 722 648 220 576 224 89 512 581 265 466 
168 11 455 642 561 718 30 169 665 202 643 175 86 
169 11 202 175 186 782 455 168 600 643 528 124 642 
170 11 770 436 652 702 329 792 790 56 477 314 248 
171 10 349 21 686 259 90 673 244 141 160 751 
172 11 488 750 728 714 739 607 580 76 733 803 468 
173 11 25 50 498 142 106 355 96 784 328 270 462 
174 11 99 200 381 389 632 302 809 603 799 183 92 
175 11 455 169 761 608 168 186 665 124 202 105 718 
176 11 83 757 499 609 419 304 818 550 393 112 587 
177 11 192 268 327 687 254 658 414 689 108 383 674 
178 11 26 724 80 243 570 635 62 246 821 39 565 
179 11 737 405 616 659 61 344 650 705 297 196 688 
180 11 262 760 242 127 394 487 723 218 104 88 748 
181 11 336 421 298 121 79 759 772 738 752 438 796 
182 11 763 164 226 332 371 647 278 391 235 71 690 
183 9 631 303 99 174 92 200 799 632 381 
184 11 589 257 497 624 324 546 133 67 393 666 115 
185 11 19 411 453 107 694 122 228 602 98 309 785 
186 11 124 782 169 507 202 444 600 175 794 275 69 
187 11 307 328 516 96 377 784 106 137 325 677 199 
188 11 456 669 295 691 51 139 548 725 116 146 522 
189 11 500 345 532 41 572 29 56 485 120 711 139 
190 11 489 315 482 610 123 667 410 612 430 165 319 
191 9 551 808 49 273 802 428 337 615 101 
192 11 177 268 658 327 687 254 383 689 351 414 674 
193 9 358 231 710 749 306 66 523 619 561 
194 9 696 23 633 816 125 95 556 774 698 
195 11 566 222 132 237 597 558 112 351 383 57 550 
196 11 5 688 827 42 318 344 297 525 737 650 467 
197 11 828 548 790 314 534 170 56 770 572 29 139 
198 11 395 277 379 354 217 434 683 310 34 541 210 
199 11 516 677 307 431 13 368 137 326 564 373 490 
200 9 381 174 632 809 99 389 603 302 799 
201 11 230 78 755 54 810 584 818 407 756 324 666 
202 11 600 528 643 782 169 30 186 168 642 204 455 
203 7 392 664 515 527 321 537 35 
204 11 208 600 52 782 528 131 202 507 643 776 712 
205 11 22 260 701 559 623 58 486 296 223 274 811 
206 11 364 579 46 11 704 611 795 484 356 606 353 
207 11 87 743 559 282 811 58 744 680 205 786 701 
208 11 204 52 600 131 776 374 528 782 712 507 751 
209 11 472 599 391 820 332 164 480 161 690 226 353 
210 11 158 310 742 354 91 541 395 34 159 301 683 
211 11 4 798 762 592 740 736 720 388 144 84 693 
212 11 406 357 544 429 16 59 129 797 825 396 401 
213 10 350 48 780 27 341 119 685 771 232 215 
214 11 264 591 6 261 754 789 552 355 142 81 50 
215 11 771 812 382 554 795 508 341 46 579 48 119 
216 11 621 325 106 804 328 462 672 498 514 25 276 
217 11 434 354 198 395 277 379 788 158 210 310 683 
218 11 748 487 242 394 43 617 682 723 262 583 180 
219 10 474 241 641 362 156 684 424 735 163 644 
220 9 167 722 224 466 512 581 340 24 576 
221 11 114 118 140 552 591 754 81 708 264 261 214 
222 11 597 566 195 112 237 558 132 609 550 351 57 
223 11 296 623 73 518 294 656 536 8 205 361 471 
224 9 512 581 89 466 323 715 265 220 717 
225 11 413 638 435 32 346 365 440 567 55 12 613 
226 11 182 164 332 763 480 353 161 647 371 472 278 
227 11 618 293 372 113 72 815 2 540 347 334 145 
228 9 122 107 411 602 449 19 427 185 134 
229 10 574 240 464 793 333 444 348 102 313 400 
230 11 201 54 755 78 584 818 324 666 407 67 810 
231 9 66 193 358 523 254 687 86 710 327 
232 10 704 465 599 209 472 820 350 85 480 161 
233 7 408 549 375 731 675 165 366 
234 10 692 148 473 519 39 535 697 821 62 801 
235 11 71 517 23 125 305 371 763 816 182 696 690 
236 11 160 90 141 813 459 21 238 510 402 699 171 
237 11 597 195 222 132 57 566 604 112 558 513 351 
238 11 459 160 614 236 402 90 426 110 21 813 141 
239 11 617 43 620 284 773 723 394 748 732 218 557 
240 9 574 793 229 348 313 464 747 102 281 
241 10 684 362 156 219 474 735 85 363 721 568 
242 11 487 218 748 334 180 262 682 394 723 583 43 
243 11 26 570 764 80 178 713 360 245 565 797 128 
244 11 751 699 141 374 171 90 349 21 52 208 160 
245 11 360 713 565 764 68 570 318 26 128 243 285 
246 11 724 821 635 148 535 39 178 234 692 62 473 
247 11 689 253 674 20 77 678 108 596 383 658 351 
248 11 629 702 271 37 543 596 534 20 329 513 170 
249 11 448 530 439 700 481 533 369 440 55 365 645 
250 11 147 339 65 143 283 397 108 678 130 266 100 
251 11 35 537 515 321 777 392 478 664 670 331 162 
252 11 524 598 275 69 794 709 82 679 494 800 9 
253 11 674 678 247 108 689 20 596 339 77 283 383 
254 11 327 687 268 66 177 231 192 523 193 414 358 
255 11 577 53 575 414 433 550 286 419 499 192 558 
256 11 33 639 695 707 166 311 545 778 443 451 625 
257 11 497 184 546 589 393 587 304 115 324 624 133 
258 10 422 403 17 706 469 594 454 418 300 337 
259 10 686 349 673 468 171 733 806 272 457 21 
260 11 22 486 701 205 301 274 559 569 623 58 223 
261 10 264 355 708 270 591 214 140 655 493 50 
262 11 394 180 723 760 88 487 242 479 218 748 43 
263 11 463 640 64 582 317 18 452 380 538 420 416 
264 11 261 214 591 355 708 140 270 6 552 50 142 
265 11 290 715 89 627 578 224 323 461 581 512 316 
266 11 761 65 105 608 250 665 175 100 441 86 147 
267 11 97 729 716 144 84 740 804 593 506 462 4 
268 11 327 177 687 254 192 658 414 66 231 108 689 
269 11 586 460 458 446 60 335 431 483 796 767 10 
270 8 355 708 261 655 498 493 264 25 
271 11 248 629 513 20 37 77 596 702 604 543 329 
272 11 457 806 374 733 259 786 811 8 468 686 349 
273 9 428 101 415 551 753 191 504 38 802 
274 11 569 701 22 486 260 58 301 342 34 559 205 
275 11 794 598 69 124 252 608 444 186 105 441 524 
276 11 287 615 672 808 325 137 386 621 328 191 307 
277 11 395 198 683 379 34 310 541 354 217 210 301 
278 11 647 371 763 182 226 594 95 23 418 774 194 
279 11 817 442 605 443 451 311 152 778 707 803 695 
280 11 376 819 681 157 98 104 785 526 127 646 398 
281 9 560 322 313 508 348 382 40 119 240 
282 11 58 743 559 680 207 87 701 205 22 274 553 
283 11 130 147 397 678 339 143 253 477 108 250 792 
284 10 239 557 773 620 617 555 43 568 732 723 
285 11 727 5 318 827 562 196 360 128 245 297 713 
286 11 419 575 433 756 499 255 53 577 78 810 757 
287 11 276 615 672 808 386 137 325 621 191 328 307 
288 8 511 338 502 595 151 588 625 470 
289 4 447 601 651 74 
290 10 265 627 715 578 89 316 461 292 299 323 
291 11 17 300 403 637 437 94 469 258 706 814 454 
292 10 578 571 290 627 265 715 316 717 730 89 
293 11 618 227 72 372 815 113 334 2 682 145 347 
294 11 518 223 296 361 73 656 623 536 471 8 91 
295 11 691 456 669 188 139 51 725 146 548 532 29 
296 11 223 623 73 656 518 536 294 8 205 786 361 
297 11 318 196 737 68 5 179 565 616 285 245 344 
298 11 336 181 421 772 385 752 759 121 79 438 738 
299 11 542 316 461 111 627 93 290 265 571 61 292 
300 11 403 469 359 706 454 337 103 291 117 258 423 
301 11 486 541 34 260 310 22 471 683 91 274 701 
302 10 389 200 174 381 24 603 809 99 632 676 
303 5 183 631 99 174 601 
304 11 393 497 587 257 546 54 818 184 324 755 757 
305 11 517 71 424 125 235 766 816 657 690 23 644 
306 10 749 710 619 432 155 358 193 109 505 539 
307 11 516 677 137 187 199 328 615 276 386 287 490 
308 10 501 312 378 822 409 769 697 417 28 44 
309 5 745 602 122 411 185 
310 11 541 34 683 395 277 301 210 198 354 91 158 
311 11 443 707 451 695 33 778 442 817 279 256 605 
312 10 501 308 378 822 409 769 28 44 417 476 
313 9 348 240 281 560 574 102 464 229 793 
314 11 534 543 37 828 197 702 170 248 770 790 513 
315 10 610 190 482 489 667 165 612 123 410 509 
316 11 299 461 542 627 111 290 571 265 93 292 578 
317 11 380 420 416 797 429 582 64 129 640 825 80 
318 11 297 5 285 196 245 827 68 360 727 565 737 
319 10 445 509 612 410 482 430 610 123 387 768 
320 10 343 126 783 805 15 527 662 496 765 412 
321 11 35 537 664 392 251 331 515 719 390 777 162 
322 9 382 508 281 560 554 812 771 119 747 
323 9 717 581 512 89 715 224 466 578 265 
324 11 666 67 184 133 230 624 393 54 257 497 589 
325 11 621 216 672 328 106 276 287 187 615 804 498 
326 11 368 653 13 373 485 446 10 564 199 460 431 
327 11 268 254 687 177 192 66 231 658 414 108 339 
328 11 325 106 187 216 621 672 307 276 25 173 287 
329 11 792 477 652 629 702 770 170 436 248 596 20 
330 11 622 63 668 789 522 6 660 116 153 142 377 
331 11 719 390 321 162 35 537 163 251 664 392 777 
332 11 164 391 182 226 209 472 763 480 690 820 161 
333 11 464 444 507 776 400 712 229 102 52 574 240 
334 11 242 293 618 372 227 682 398 72 113 487 218 
335 11 796 458 738 60 759 269 136 767 79 586 460 
336 11 181 298 421 772 121 79 759 738 752 438 385 
337 10 454 706 359 469 49 403 300 117 802 103 
338 7 288 511 502 595 625 588 151 
339 11 108 678 250 674 147 253 283 130 689 247 327 
340 11 24 676 104 526 302 663 127 399 220 389 646 
341 11 48 771 119 780 213 215 350 27 508 812 382 
342 11 109 539 569 274 432 505 58 282 701 306 749 
343 9 783 320 805 15 662 126 412 765 527 
344 11 650 405 688 61 42 525 737 196 467 179 111 
345 11 56 500 572 189 29 790 41 532 436 652 770 
346 11 32 638 225 413 826 435 365 55 370 352 440 
347 11 150 372 113 758 540 227 293 694 618 398 453 
348 9 313 240 102 464 229 574 793 281 400 
349 9 171 686 21 259 673 90 468 244 751 
350 10 213 48 341 780 27 232 704 119 771 215 
351 11 383 658 558 132 566 195 689 192 247 77 53 
352 11 370 369 55 481 700 787 645 365 530 439 440 
353 11 161 611 480 364 484 472 356 226 332 209 164 
354 11 217 395 198 434 158 210 277 310 379 683 34 
355 9 261 270 264 708 50 25 173 214 498 
356 11 484 437 353 611 364 94 161 480 149 11 206 
357 11 406 544 212 401 128 429 764 713 797 16 59 
358 9 193 710 231 749 306 66 619 523 155 
359 11 454 469 300 337 706 403 117 103 49 3 258 
360 11 713 245 764 128 570 565 26 243 285 68 318 
361 11 471 518 294 91 626 223 296 159 742 73 623 
362 11 156 684 241 735 85 219 644 807 474 465 424 
363 10 721 555 568 557 573 7 44 241 476 28 
364 11 611 206 353 161 484 480 356 704 472 579 11 
365 11 55 440 700 439 369 413 448 225 352 370 435 
366 9 667 165 521 375 549 233 531 408 731 
367 6 475 758 450 540 614 2 
368 11 326 13 373 653 564 199 485 725 446 10 146 
369 11 352 700 55 370 481 365 439 530 787 645 440 
370 11 352 369 55 700 365 481 787 32 645 439 530 
371 11 763 278 647 182 235 23 71 226 164 194 696 
372 11 113 227 347 293 150 618 540 334 72 758 398 
373 11 13 368 564 326 725 653 146 691 199 485 51 
374 11 272 244 751 457 806 208 744 699 259 52 131 
375 8 549 233 408 731 165 675 366 667 
376 11 280 819 681 157 98 104 785 526 646 663 127 
377 11 784 96 142 187 50 63 173 153 516 564 660 
378 9 308 501 312 822 769 409 697 417 28 
379 11 198 277 395 407 584 683 217 434 354 34 310 
380 11 420 317 416 129 429 797 825 59 16 64 582 
381 9 632 809 200 603 174 799 99 389 302 
382 10 812 554 508 771 322 215 800 119 747 795 
383 11 351 658 689 247 77 132 192 674 177 253 195 
384 11 781 417 705 616 659 409 28 476 44 68 769 
385 11 154 298 495 136 336 772 752 181 796 814 438 
386 11 490 615 137 404 3 287 677 808 276 117 49 
387 11 430 410 123 319 612 482 445 509 610 489 190 
388 11 585 592 38 693 798 135 720 101 590 514 211 
389 10 302 200 174 381 99 603 809 632 24 676 
390 10 719 331 766 321 657 664 162 35 305 392 
391 11 332 164 690 820 209 599 182 472 807 226 763 
392 9 664 321 537 35 203 515 251 527 331 
393 11 304 497 587 257 546 184 324 54 818 755 589 
394 11 723 262 88 43 487 479 218 748 617 760 180 
395 11 277 198 354 683 310 379 34 217 541 210 434 
396 11 825 16 59 129 429 212 380 420 406 797 317 
397 11 143 147 100 130 65 283 779 138 250 438 339 
398 11 785 98 150 280 347 453 372 376 694 334 127 
399 11 663 646 526 741 676 681 649 24 157 74 104 
400 11 712 102 776 464 333 823 52 510 348 229 507 
401 11 128 727 544 357 713 406 285 360 764 212 562 
402 11 813 614 238 236 160 510 459 450 90 141 823 
403 10 469 300 706 454 359 337 258 291 117 103 
404 11 3 490 386 117 103 483 431 137 677 734 269 
405 11 61 650 344 179 737 688 42 525 111 520 196 
406 11 212 357 544 429 797 16 59 401 129 128 764 
407 11 584 379 201 230 810 78 539 505 277 198 395 
408 6 233 549 731 375 675 165 
409 11 417 312 28 476 501 44 308 822 378 573 769 
410 11 430 123 612 482 610 319 387 489 445 509 190 
411 11 122 228 107 602 19 185 427 449 453 309 134 
412 11 765 662 805 563 15 343 320 726 783 70 126 
413 11 225 435 638 365 567 440 32 346 55 613 12 
414 11 577 255 433 575 155 53 687 268 177 192 327 
415 8 753 504 590 101 428 273 38 585 
416 11 420 317 797 380 429 80 582 129 59 64 640 
417 11 409 384 781 28 476 44 312 705 822 501 769 
418 10 594 95 774 556 422 698 633 258 278 194 
419 11 499 286 575 757 550 83 433 756 53 255 577 
420 11 380 317 416 429 797 129 59 825 16 582 80 
421 11 181 121 336 79 759 298 738 772 711 335 796 
422 10 594 258 418 95 774 556 17 802 278 647 
423 11 814 734 136 637 103 636 483 300 154 117 359 
424 11 305 641 644 517 219 807 690 735 156 71 362 
425 11 547 775 149 9 11 94 661 709 636 437 637 
426 9 110 459 238 21 90 686 349 171 160 
427 8 602 122 449 228 503 411 107 309 
428 11 273 101 415 753 38 135 504 551 590 585 191 
429 11 797 129 59 420 416 16 212 380 406 825 317 
430 11 410 123 612 387 482 319 489 610 445 190 509 
431 11 586 269 460 446 490 677 199 404 458 483 60 
432 10 505 539 306 619 109 155 749 342 710 810 
433 11 286 575 414 756 255 155 577 53 419 619 810 
434 11 217 354 198 788 395 379 277 158 210 310 67 
435 11 413 225 567 638 440 613 365 470 12 47 630 
436 11 652 770 170 477 671 329 56 345 792 500 41 
437 11 94 149 356 484 11 291 425 775 547 17 353 
438 11 752 772 495 298 336 100 746 181 779 421 703 
439 11 448 700 530 249 55 440 365 369 481 352 370 
440 11 365 55 439 700 448 413 435 369 530 225 249 
441 11 679 494 105 703 746 608 275 761 266 252 598 
442 11 605 279 817 443 778 311 152 451 803 707 607 
443 11 451 311 707 695 817 279 442 33 778 605 256 
444 11 333 507 229 794 69 124 464 186 574 793 275 
445 10 509 319 612 610 482 768 410 430 123 315 
446 11 460 60 586 10 767 269 431 458 485 335 120 
447 5 289 651 634 824 74 
448 11 439 249 530 700 440 55 365 369 481 151 533 
449 8 228 427 122 107 634 824 411 651 
450 9 823 813 402 510 367 614 102 348 313 
451 11 443 311 707 695 817 279 442 36 33 533 605 
452 10 538 628 492 18 463 263 670 640 64 654 
453 11 694 98 19 185 785 107 398 150 411 347 819 
454 10 706 469 337 403 359 300 258 49 117 103 
455 11 168 175 665 169 718 86 642 202 761 561 30 
456 11 295 691 139 188 669 548 51 29 725 532 572 
457 11 272 806 374 733 786 259 811 8 744 536 468 
458 11 335 796 269 483 586 136 60 460 738 446 759 
459 11 238 160 236 90 21 426 110 402 614 813 141 
460 11 446 586 269 60 10 767 431 458 335 796 738 
461 11 299 316 111 542 627 290 265 715 89 578 93 
462 9 498 216 106 804 25 270 621 97 173 
463 11 263 640 64 452 18 582 538 317 380 420 416 
464 11 102 229 333 400 348 240 574 712 313 444 776 
465 11 85 599 820 735 232 807 209 156 644 362 684 
466 8 512 581 224 603 323 809 89 381 
467 11 525 42 688 93 344 650 791 827 196 61 405 
468 8 673 259 686 733 750 349 580 171 
469 10 706 454 403 300 359 337 258 117 103 49 
470 11 613 630 567 47 12 435 413 511 502 288 151 
471 11 91 361 518 294 301 223 486 296 260 541 742 
472 11 209 480 161 332 599 611 353 391 164 820 226 
473 11 519 692 234 535 148 801 39 821 529 697 246 
474 9 219 241 641 362 684 156 163 378 424 
475 8 758 367 540 113 2 347 150 372 
476 11 28 44 573 409 417 781 312 501 45 308 384 
477 11 792 329 652 436 671 770 130 170 283 138 629 
478 11 529 777 654 670 801 251 515 35 535 537 162 
479 11 88 723 394 576 732 262 760 43 620 617 648 
480 11 161 353 611 472 209 364 226 332 164 484 356 
481 11 645 787 530 533 369 352 700 249 439 36 448 
482 11 610 612 410 123 489 315 190 430 319 445 509 
483 11 458 136 734 269 3 796 404 586 335 103 490 
484 11 356 353 437 611 364 161 94 480 206 11 149 
485 11 10 120 653 711 767 446 189 326 532 60 460 
486 11 260 301 22 701 274 541 205 569 34 471 683 
487 11 218 748 242 394 262 43 723 617 682 180 334 
488 11 714 739 172 76 75 728 14 750 733 8 607 
489 11 190 123 482 610 315 410 612 430 667 319 445 
490 11 404 3 386 137 677 431 117 483 103 615 269 
491 9 799 92 632 809 381 603 730 717 323 
492 10 628 670 515 654 452 478 251 538 18 203 
493 8 655 708 506 593 270 140 261 118 
494 11 679 441 703 746 105 9 495 524 252 608 598 
495 11 746 154 752 438 385 703 772 494 298 661 9 
496 8 126 15 662 805 320 70 343 765 
497 11 257 393 304 546 587 184 589 324 115 54 666 
498 9 25 462 106 173 270 355 216 50 328 
499 11 419 550 286 575 83 53 609 757 255 577 558 
500 11 189 41 345 56 572 29 532 436 120 652 485 
501 10 308 312 378 822 409 769 28 44 476 417 
502 8 288 151 511 588 338 625 595 470 
503 6 427 731 602 408 511 122 
504 8 753 415 590 101 38 428 273 720 
505 11 539 432 109 619 810 155 342 306 756 584 78 
506 8 593 493 655 270 708 462 97 355 
507 11 333 186 444 782 776 52 204 712 600 124 208 
508 10 771 119 382 322 812 215 554 341 281 560 
509 10 445 319 612 610 482 768 410 430 123 315 
510 11 813 823 141 236 160 402 699 90 400 450 712 
511 8 288 338 502 470 595 151 588 630 
512 8 581 224 466 323 89 715 717 265 
513 11 604 37 57 271 543 248 534 629 702 77 132 
514 11 135 693 585 388 38 101 428 592 798 804 672 
515 10 251 537 35 670 392 777 321 492 478 664 
516 11 199 307 677 137 187 13 431 368 564 326 377 
517 11 71 235 305 125 816 23 657 690 766 424 696 
518 11 294 223 296 361 471 73 623 656 536 91 8 
519 11 473 535 692 234 801 148 821 529 39 478 162 
520 11 61 405 111 648 179 461 650 542 299 659 344 
521 6 531 366 667 165 375 549 
522 11 116 668 660 153 63 51 330 146 622 669 725 
523 10 86 66 718 665 231 193 254 358 687 168 
524 11 252 709 598 9 82 547 679 494 425 275 606 
525 11 42 467 688 344 650 93 61 196 827 405 791 
526 11 663 646 399 676 681 104 741 280 376 24 157 
527 9 783 320 664 392 126 203 343 321 805 
528 11 643 600 202 30 131 31 782 204 642 169 208 
529 11 654 478 801 670 777 535 519 473 251 515 35 
530 11 249 439 448 700 481 369 55 533 645 365 440 
531 6 521 366 667 165 190 315 
532 11 29 572 189 139 345 500 56 485 691 41 653 
533 11 36 645 481 787 530 249 695 439 448 369 700 
534 11 314 543 37 702 248 828 197 170 513 770 271 
535 11 519 473 801 148 692 234 529 821 246 654 478 
536 11 656 73 8 623 296 223 786 811 294 518 205 
537 11 35 251 321 515 392 777 664 478 331 670 162 
538 10 452 628 492 18 463 263 670 640 64 515 
539 11 505 432 109 342 619 810 584 306 407 155 749 
540 11 113 758 347 2 475 372 150 227 618 293 72 
541 11 34 310 301 683 486 277 91 274 395 260 569 
542 11 111 299 316 461 93 627 61 650 290 525 405 
543 11 37 534 314 702 248 513 271 629 170 604 828 
544 11 357 406 401 212 128 727 16 713 429 764 59 
545 10 166 625 595 639 110 256 588 33 426 151 
546 11 257 497 587 115 589 184 393 304 324 624 133 
547 11 425 775 149 9 661 11 94 636 709 437 637 
548 11 197 790 828 139 456 29 572 56 691 295 345 
549 8 375 233 408 731 165 675 366 667 
550 11 499 558 53 609 255 577 419 575 112 566 286 
551 8 191 802 273 49 428 808 415 753 
552 11 754 81 591 214 6 221 264 789 118 140 114 
553 9 680 561 743 31 642 87 749 30 282 
554 11 812 382 800 215 771 322 508 82 747 795 46 
555 9 568 557 363 721 284 773 684 7 241 
556 9 774 95 698 633 418 594 194 422 696 
557 10 555 568 773 284 363 721 620 7 239 732 
558 11 566 550 195 112 222 351 609 53 132 255 577 
559 11 58 282 205 701 22 207 743 260 87 274 569 
560 9 281 322 313 508 40 348 119 382 240 
561 9 642 30 553 168 31 643 680 718 455 
562 11 791 827 727 285 5 196 318 401 467 688 42 
563 11 726 765 412 662 70 15 805 762 736 343 4 
564 11 13 373 146 725 368 153 326 653 660 199 51 
565 11 68 245 570 360 297 26 318 713 764 243 384 
566 11 195 558 222 112 597 237 132 351 550 609 383 
567 11 613 470 435 630 413 47 12 225 440 365 151 
568 9 555 557 363 721 684 241 284 362 85 
569 11 274 701 22 486 342 260 34 58 683 301 541 
570 11 26 243 764 245 360 713 565 178 68 80 128 
571 10 292 93 316 627 299 578 290 542 461 265 
572 11 29 345 532 56 189 139 790 500 548 41 691 
573 11 44 476 28 409 45 721 312 417 501 308 363 
574 9 240 793 229 747 348 464 313 444 102 
575 11 255 577 53 286 433 419 414 499 550 756 155 
576 11 760 722 648 167 479 88 220 262 723 394 180 
577 11 255 53 575 414 433 550 286 192 499 419 558 
578 10 292 715 290 265 717 627 89 323 730 581 
579 11 46 795 606 206 11 215 709 364 800 812 554 
580 7 607 750 803 172 728 778 468 
581 8 512 323 224 89 466 715 717 265 
582 11 64 635 80 416 640 317 420 263 380 18 724 
583 11 682 685 145 72 815 618 293 748 218 227 487 
584 11 407 201 810 230 78 379 539 505 755 756 54 
585 11 388 38 135 693 592 101 798 514 720 590 428 
586 11 269 460 446 431 60 458 335 767 10 796 483 
587 11 497 546 304 393 257 115 184 589 324 176 54 
588 11 151 502 625 595 639 288 166 448 338 511 249 
589 11 184 257 546 624 115 497 133 324 67 393 666 
590 11 504 753 415 38 101 720 388 585 428 273 135 
591 11 264 214 552 261 754 140 6 81 118 708 355 
592 11 798 388 585 693 720 211 38 135 4 101 590 
593 8 506 493 655 270 708 462 97 267 
594 10 418 422 95 774 556 698 258 633 278 647 
595 7 625 338 545 166 502 288 588 
596 11 20 629 253 77 247 271 248 792 329 674 678 
597 11 237 222 195 566 112 132 57 558 609 604 351 
598 11 275 69 252 794 524 124 444 82 679 793 441 
599 11 209 820 465 472 391 332 690 807 85 232 164 
600 11 528 202 782 643 204 131 30 169 208 31 186 
601 7 649 741 289 74 447 399 646 
602 10 122 411 228 427 309 185 107 19 449 745 
603 8 809 381 632 200 466 389 799 174 
604 11 513 57 271 37 132 237 77 248 543 597 195 
605 11 442 279 152 817 803 728 778 443 607 311 451 
606 11 46 579 795 709 11 800 82 206 554 215 812 
607 8 580 803 750 728 172 778 605 442 
608 11 105 761 175 441 266 124 275 679 169 455 186 
609 11 112 550 558 222 566 499 83 597 195 176 419 
610 10 482 612 315 489 410 123 190 445 509 319 
611 11 353 161 480 364 472 484 356 226 209 206 332 
612 10 482 410 610 319 123 430 445 509 489 315 
613 11 470 630 567 47 12 435 413 225 440 511 502 
614 8 402 238 459 813 236 160 450 90 
615 11 287 276 386 808 137 672 490 677 49 191 404 
616 11 659 705 781 384 179 737 417 297 405 28 476 
617 11 43 239 620 748 723 218 394 487 284 88 773 
618 11 293 227 72 372 815 113 2 334 145 682 540 
619 11 155 306 432 710 505 749 539 433 358 414 193 
620 11 773 239 732 43 617 284 723 479 88 394 557 
621 11 216 325 672 106 804 328 276 514 287 462 498 
622 11 330 63 789 668 6 522 116 660 153 754 142 
623 11 296 223 73 536 656 205 518 294 786 811 8 
624 11 133 67 788 184 666 589 324 257 497 546 230 
625 9 595 166 545 588 502 151 639 338 288 
626 11 14 361 159 75 294 518 742 471 91 223 296 
627 10 290 265 316 461 715 299 578 89 292 542 
628 10 492 670 515 452 538 203 654 251 18 478 
629 11 248 271 702 596 20 329 792 37 77 477 543 
630 10 613 470 567 47 12 435 413 511 225 288 
631 9 183 303 92 99 174 799 200 632 491 
632 8 381 809 603 200 799 174 99 491 
633 9 698 556 774 95 194 418 696 594 23 
634 6 651 824 447 74 449 134 
635 11 724 246 582 821 178 80 18 64 39 148 535 
636 11 661 637 154 814 775 423 547 9 425 385 291 
637 11 636 661 814 423 154 291 775 425 547 94 149 
638 11 346 225 32 413 435 826 365 55 12 440 567 
639 11 256 166 33 545 695 588 625 707 249 151 448 
640 11 64 263 463 582 317 380 18 416 420 635 452 
641 11 163 219 424 474 162 719 241 331 362 156 305 
642 10 561 30 168 643 31 528 202 455 553 169 
643 11 528 30 202 600 31 642 131 782 168 169 561 
644 11 807 735 690 85 156 820 362 424 391 684 465 
645 11 787 481 533 36 352 369 530 700 370 249 439 
646 11 663 399 526 681 741 676 157 649 376 280 819 
647 11 278 371 763 182 226 594 95 164 418 23 17 
648 11 722 167 576 520 479 220 760 88 224 461 89 
649 10 741 74 601 399 646 663 157 681 824 289 
650 11 344 61 405 42 688 525 467 737 179 111 542 
651 6 634 824 447 74 449 289 
652 11 436 770 477 170 329 792 671 56 345 41 500 
653 11 326 368 485 373 13 10 446 532 564 460 120 
654 11 529 478 670 777 801 535 515 251 492 18 35 
655 8 493 708 270 140 506 261 593 355 
656 11 73 536 8 296 223 623 786 294 518 811 205 
657 7 766 816 125 23 696 305 194 
658 11 383 351 192 689 177 247 674 268 327 108 253 
659 11 616 705 781 179 384 737 417 405 45 297 28 
660 11 153 522 116 146 668 51 63 725 564 330 669 
661 11 636 637 154 9 775 547 425 814 495 385 423 
662 11 15 805 765 412 343 126 320 496 563 70 783 
663 11 526 646 399 681 676 741 104 376 157 280 649 
664 10 392 321 537 35 203 251 527 515 331 390 
665 10 86 718 523 455 168 66 761 175 231 266 
666 11 67 324 133 624 788 230 184 54 589 201 257 
667 11 165 366 315 190 521 531 375 549 489 610 233 
668 11 522 116 660 63 153 330 622 51 146 669 725 
669 11 51 295 188 456 146 691 725 116 153 522 660 
670 11 654 478 529 492 515 777 628 251 35 537 801 
671 11 138 779 652 436 41 477 500 121 792 421 329 
672 11 276 287 325 621 615 216 328 808 514 106 191 
673 8 468 686 259 349 171 733 750 580 
674 11 253 108 689 678 247 339 658 20 383 596 77 
675 9 731 549 375 233 408 165 47 12 503 
676 11 24 526 340 399 663 646 104 302 741 389 681 
677 11 137 199 307 516 490 431 386 404 615 3 187 
678 11 108 253 674 339 689 247 283 596 20 130 250 
679 11 494 441 703 746 105 9 252 608 495 524 275 
680 10 743 553 282 87 207 58 31 559 561 749 
681 11 157 646 376 819 280 663 526 399 134 741 74 
682 11 583 72 145 293 618 815 218 685 748 334 242 
683 11 34 541 310 277 395 301 569 198 274 486 379 
684 11 362 156 241 735 85 219 644 474 568 807 465 
685 11 145 583 27 815 682 72 780 40 618 2 293 
686 8 349 673 171 259 468 21 90 733 
687 11 254 327 268 177 192 231 66 414 193 523 358 
688 11 42 525 344 467 650 196 61 405 827 5 737 
689 11 247 674 253 108 678 383 658 77 20 192 351 
690 11 391 807 820 644 164 332 209 599 735 235 517 
691 11 295 456 139 725 669 532 188 51 29 146 572 
692 10 234 148 473 519 39 535 697 821 62 801 
693 11 585 388 135 514 592 798 38 101 720 211 428 
694 11 453 185 150 785 19 98 347 758 398 411 107 
695 11 707 311 33 451 443 256 639 533 36 249 778 
696 9 194 23 816 125 633 657 71 95 235 
697 10 769 822 62 39 234 378 692 148 308 312 
698 7 633 556 774 95 418 594 194 
699 11 141 751 244 90 510 236 160 712 52 171 21 
700 11 439 55 369 530 365 448 440 249 352 481 370 
701 11 22 260 205 274 486 559 58 569 301 282 623 
702 11 248 629 170 543 37 329 770 271 534 314 792 
703 11 746 494 441 679 495 105 438 100 752 608 266 
704 11 232 364 206 472 611 480 161 209 599 353 350 
705 11 616 659 781 384 417 179 737 28 476 44 409 
706 10 454 469 403 337 359 300 258 49 117 802 
707 11 695 311 443 33 451 256 778 639 442 817 279 
708 8 655 261 493 270 140 355 264 591 
709 11 606 524 11 82 46 579 795 800 425 547 252 
710 9 306 749 358 193 619 155 432 231 553 
711 11 120 767 10 79 738 60 121 485 759 41 446 
712 11 776 400 52 333 102 464 823 699 507 208 510 
713 11 360 764 245 128 570 243 26 727 401 285 565 
714 11 739 488 172 8 733 14 75 76 728 750 656 
715 11 89 265 290 578 323 627 581 224 512 717 292 
716 11 729 144 84 267 97 740 4 211 804 798 762 
717 8 323 581 730 578 715 89 512 265 
718 10 86 665 523 455 168 66 231 561 642 193 
719 10 331 390 162 321 163 641 766 35 537 664 
720 11 388 592 798 590 38 585 504 736 211 101 753 
721 10 363 555 568 573 557 44 476 7 28 241 
722 10 167 648 576 220 224 760 512 89 466 581 
723 11 394 88 43 262 479 617 487 218 748 620 760 
724 11 246 821 635 39 178 148 62 535 234 692 473 
725 11 146 373 564 51 691 669 13 295 153 368 660 
726 11 563 762 765 70 736 4 412 662 211 15 84 
727 11 285 128 401 562 5 713 318 360 827 245 764 
728 10 607 172 76 750 580 152 803 605 488 442 
729 11 716 144 84 267 97 740 4 211 804 798 762 
730 9 717 323 578 491 292 715 581 799 89 
731 7 408 549 233 675 375 165 503 
732 11 773 620 7 479 88 43 239 723 557 45 284 
733 10 468 806 259 272 457 673 714 739 172 686 
734 11 136 423 483 103 814 458 3 117 796 404 335 
735 11 85 807 156 644 362 684 465 820 690 241 599 
736 11 762 70 211 4 720 798 592 726 563 388 740 
737 11 179 405 344 616 659 297 61 650 196 705 688 
738 11 759 79 335 796 121 60 767 421 711 181 336 
739 11 714 488 172 8 733 14 75 656 76 728 750 
740 11 144 84 4 211 716 729 762 798 592 693 736 
741 11 649 399 646 663 601 74 526 681 676 157 302 
742 11 159 210 91 158 361 471 626 310 301 541 518 
743 11 282 680 87 207 58 559 553 701 31 205 744 
744 11 131 87 31 207 374 811 528 208 743 30 457 
745 4 309 602 185 122 
746 11 703 494 495 679 441 752 438 772 100 9 105 
747 9 793 800 82 574 554 240 382 812 322 
748 11 218 487 242 617 43 394 682 723 262 583 239 
749 9 306 710 358 193 619 432 155 553 109 
750 7 580 607 172 803 728 468 673 
751 11 244 699 141 374 171 90 52 349 21 208 160 
752 11 438 772 298 495 336 181 746 385 100 421 703 
753 8 415 504 590 101 428 273 38 585 
754 11 81 552 6 789 591 214 264 622 221 261 140 
755 11 818 54 201 78 230 757 810 756 393 304 324 
756 11 810 78 286 433 201 419 505 755 575 818 155 
757 11 83 818 419 755 54 176 499 286 78 756 304 
758 11 540 347 475 150 113 372 694 2 227 367 293 
759 11 738 79 121 421 335 181 796 767 60 336 711 
760 11 262 576 180 88 479 394 723 722 340 220 648 
761 11 266 608 175 105 665 455 86 718 65 441 169 
762 11 4 736 211 70 726 740 798 592 720 563 84 
763 11 182 371 647 278 164 226 332 235 71 391 23 
764 11 713 360 570 243 245 26 128 565 401 357 80 
765 11 412 662 563 805 15 343 726 70 320 126 496 
766 7 657 816 125 305 390 517 23 
767 11 60 10 711 120 446 738 460 759 79 335 485 
768 10 826 509 445 12 638 47 346 319 225 32 
769 10 822 697 378 308 312 501 409 62 417 39 
770 11 170 436 652 329 702 56 792 477 790 345 314 
771 11 215 508 812 382 119 341 554 322 48 795 780 
772 11 752 438 298 336 181 421 495 385 779 121 79 
773 11 620 732 557 284 239 7 43 617 555 479 723 
774 9 95 556 418 594 698 633 422 194 696 
775 11 547 425 149 9 661 94 11 636 437 637 709 
776 11 712 52 400 333 507 208 102 464 204 699 823 
777 11 478 251 801 529 35 537 654 670 515 162 321 
778 9 803 607 311 442 580 605 443 33 707 
779 11 138 671 397 143 772 336 438 100 421 181 121 
780 11 27 213 48 119 341 350 685 508 771 145 583 
781 11 705 384 417 616 659 28 476 44 409 45 573 
782 11 600 202 186 169 204 528 507 643 208 30 52 
783 7 343 320 527 805 126 15 662 
784 11 96 377 142 50 187 173 25 63 328 330 307 
785 11 98 398 453 280 376 819 694 19 150 185 347 
786 11 811 8 536 656 73 623 296 223 457 272 806 
787 11 645 481 533 36 352 369 530 370 700 249 439 
788 11 133 67 624 666 434 217 324 198 379 184 230 
789 11 6 754 622 81 214 330 552 591 63 142 264 
790 11 56 572 29 197 345 548 828 139 770 170 189 
791 11 827 562 467 525 42 688 5 196 93 285 344 
792 11 329 477 652 629 436 770 170 702 596 130 248 
793 9 574 240 747 229 82 348 800 313 464 
794 11 69 275 598 124 444 252 186 793 229 507 574 
795 11 46 579 606 215 812 800 554 82 206 382 709 
796 11 335 458 738 759 136 60 269 79 483 586 767 
797 11 429 416 420 129 212 317 380 59 80 406 16 
798 11 592 388 211 720 585 693 38 4 135 740 736 
799 9 491 92 632 381 809 200 603 99 174 
800 11 82 747 554 812 382 795 46 606 709 793 215 
801 11 535 519 478 529 777 473 654 162 692 234 148 
802 7 551 191 49 273 337 422 454 
803 8 607 580 778 750 728 605 442 172 
804 11 216 621 97 462 514 693 325 144 106 716 135 
805 11 662 15 343 765 320 412 126 496 783 563 70 
806 11 272 457 733 259 374 786 468 8 673 686 811 
807 11 644 735 690 85 820 156 391 465 362 599 684 
808 11 191 49 615 287 276 551 386 672 337 273 802 
809 8 381 603 632 200 799 174 466 389 
810 11 78 756 201 584 505 755 407 539 230 286 54 
811 11 786 536 623 73 656 207 8 296 205 223 457 
812 11 382 554 215 771 508 322 800 795 46 82 747 
813 11 402 510 236 160 823 614 141 238 90 450 459 
814 11 423 637 734 636 154 136 661 103 385 300 291 
815 11 72 145 618 2 293 227 583 682 685 113 40 
816 9 125 657 766 23 696 194 71 517 235 
817 11 279 442 443 451 605 311 707 152 695 778 36 
818 11 755 54 757 201 78 230 393 304 810 756 324 
819 11 376 280 157 681 98 134 785 646 663 526 107 
820 11 599 391 209 690 807 465 85 644 332 472 735 
821 11 246 724 148 39 535 234 692 635 62 473 519 
822 10 308 378 769 312 501 409 697 417 28 476 
823 11 510 102 400 813 450 712 464 348 141 402 776 
824 6 634 651 74 447 134 449 
825 11 59 16 129 396 429 380 420 212 797 317 416 
826 10 768 638 346 12 225 32 47 413 435 509 
827 11 5 196 791 562 688 285 42 467 525 318 344 
828 11 197 790 314 548 534 170 770 56 543 572 29 
DEPOT_SECTION
   1
   -1
EOF
