NAME :  X-n801-kX-w320-c9.cctp
COMMENT : 	Adapted by Maziero, Usberti and Cavellucci from the Uchoa, Pecin, Pessoa, Poggi, Subramanian, and Vidal (2013)
TYPE :  CCTP
DIMENSION :    798
EDGE_WEIGHT_TYPE : 	EUC_2D	
CAPACITY : 	20
VERTICES_WITHIN_COVERAGE :  9
VERTICES_WITH_DEMAND : 	320
NODE_COORD_SECTION
1 0 0
2 674 825
3 549 534
4 43 315
5 542 420
6 45 580
7 180 450
8 369 618
9 287 721
10 36 426
11 680 338
12 42 81
13 942 119
14 247 68
15 432 549
16 514 857
17 554 976
18 103 728
19 271 73
20 310 859
21 874 538
22 358 642
23 989 42
24 538 271
25 854 443
26 596 563
27 827 228
28 380 40
29 152 224
30 726 258
31 981 544
32 600 381
33 629 799
34 488 12
35 100 542
36 37 272
37 847 980
38 949 124
39 787 917
40 111 958
41 571 968
42 2 409
43 95 2
44 318 447
45 271 856
46 873 697
47 34 274
48 733 17
49 620 125
50 611 334
51 66 848
52 507 711
53 993 152
54 596 683
55 605 980
56 372 833
57 968 699
58 36 620
59 518 566
60 138 457
61 828 421
62 467 39
63 626 645
64 192 923
65 56 363
66 252 349
67 202 896
68 999 331
69 843 462
70 83 975
71 475 135
72 601 55
73 578 43
74 480 854
75 124 825
76 121 228
77 355 326
78 291 944
79 784 563
80 260 251
81 472 918
82 193 715
83 539 592
84 794 290
85 930 315
86 190 654
87 429 292
88 79 779
89 931 409
90 114 765
91 948 685
92 550 915
93 383 979
94 127 64
95 541 935
96 218 159
97 396 194
98 216 85
99 106 843
100 174 744
101 782 117
102 699 379
103 497 355
104 87 161
105 558 199
106 721 10
107 18 53
108 704 674
109 443 783
110 755 58
111 928 666
112 347 805
113 360 600
114 101 119
115 938 556
116 422 848
117 934 275
118 391 807
119 712 230
120 908 359
121 992 823
122 80 246
123 367 837
124 865 661
125 67 146
126 956 582
127 977 663
128 930 343
129 896 542
130 631 472
131 62 636
132 817 759
133 914 195
134 46 591
135 102 825
136 822 527
137 763 684
138 975 128
139 26 941
140 314 34
141 787 474
142 512 291
143 718 832
144 244 931
145 534 425
146 585 799
147 513 990
148 641 633
149 254 283
150 448 389
151 702 44
152 109 823
153 402 190
154 184 314
155 26 270
156 333 949
157 132 174
158 203 842
159 182 78
160 575 723
161 807 656
162 745 757
163 320 523
164 175 626
165 488 947
166 376 858
167 540 797
168 52 401
169 441 748
170 491 459
171 398 734
172 202 560
173 636 652
174 813 892
175 403 311
176 201 878
177 245 641
178 894 2
179 515 142
180 701 895
181 143 590
182 612 652
183 650 986
184 932 420
185 410 762
186 676 219
187 174 236
188 204 25
189 828 312
190 120 96
191 409 434
192 405 549
193 379 787
194 810 191
195 129 755
196 499 596
197 754 620
198 937 430
199 61 519
200 29 34
201 843 640
202 520 251
203 385 685
204 619 501
205 239 564
206 908 111
207 234 353
208 467 896
209 742 499
210 277 981
211 194 265
212 851 885
213 850 444
214 131 847
215 806 302
216 627 401
217 267 788
218 805 211
219 61 985
220 729 142
221 402 812
222 956 593
223 907 977
224 670 71
225 863 184
226 74 25
227 741 581
228 38 919
229 963 467
230 979 558
231 916 241
232 4 676
233 217 612
234 311 756
235 235 42
236 815 106
237 848 461
238 46 198
239 460 210
240 293 234
241 274 248
242 986 983
243 800 608
244 342 852
245 623 95
246 258 221
247 420 244
248 444 16
249 223 518
250 821 540
251 939 766
252 157 549
253 106 921
254 961 583
255 925 959
256 619 540
257 507 97
258 790 509
259 404 252
260 44 843
261 363 737
262 752 492
263 352 216
264 226 577
265 817 913
266 115 221
267 200 58
268 38 628
269 711 595
270 479 404
271 332 129
272 929 145
273 93 139
274 269 260
275 583 421
276 424 47
277 715 796
278 240 26
279 743 62
280 633 515
281 528 202
282 976 456
283 54 828
284 739 497
285 191 890
286 384 316
287 713 629
288 502 205
289 563 779
290 205 892
291 368 18
292 766 621
293 207 679
294 506 481
295 622 691
296 946 987
297 890 793
298 182 900
299 530 981
300 540 313
301 78 213
302 456 978
303 99 363
304 623 878
305 448 422
306 379 61
307 792 953
308 347 720
309 373 793
310 330 512
311 22 7
312 445 147
313 431 90
314 517 208
315 659 423
316 724 233
317 906 970
318 476 43
319 522 237
320 571 317
321 280 476
322 571 424
323 885 129
324 452 500
325 743 544
326 493 777
327 976 918
328 412 154
329 762 39
330 473 60
331 570 414
332 201 567
333 226 169
334 12 159
335 627 681
336 589 346
337 563 637
338 678 455
339 361 119
340 849 338
341 776 929
342 511 327
343 128 163
344 183 433
345 697 48
346 3 800
347 361 10
348 499 410
349 601 34
350 73 124
351 908 439
352 136 356
353 203 835
354 355 733
355 221 582
356 961 627
357 661 144
358 875 331
359 455 290
360 104 892
361 281 548
362 378 180
363 329 906
364 41 229
365 320 770
366 191 805
367 767 162
368 72 237
369 491 176
370 716 497
371 391 682
372 828 526
373 457 274
374 934 814
375 765 225
376 337 209
377 903 78
378 223 461
379 668 475
380 201 270
381 261 879
382 697 920
383 152 937
384 573 385
385 724 568
386 892 43
387 159 283
388 931 623
389 585 768
390 449 408
391 459 705
392 203 692
393 215 862
394 712 480
395 150 407
396 274 443
397 565 501
398 230 119
399 157 111
400 481 368
401 662 102
402 252 72
403 737 554
404 111 96
405 110 348
406 232 480
407 970 989
408 910 901
409 598 686
410 327 371
411 267 682
412 571 194
413 383 829
414 897 166
415 869 417
416 244 30
417 809 255
418 4 177
419 340 996
420 32 602
421 793 712
422 916 104
423 77 731
424 489 744
425 330 707
426 600 540
427 803 954
428 123 430
429 998 17
430 229 468
431 67 511
432 897 279
433 448 185
434 680 762
435 752 263
436 724 44
437 911 15
438 29 685
439 563 589
440 972 125
441 696 82
442 61 393
443 536 881
444 963 57
445 690 225
446 759 430
447 535 47
448 468 19
449 860 45
450 810 233
451 753 13
452 217 331
453 747 415
454 106 630
455 207 218
456 389 952
457 974 969
458 242 335
459 249 118
460 118 982
461 741 606
462 15 459
463 52 684
464 990 159
465 325 995
466 926 999
467 123 903
468 544 369
469 582 67
470 676 344
471 793 276
472 774 131
473 447 520
474 675 775
475 723 323
476 624 108
477 431 317
478 531 961
479 401 76
480 493 604
481 125 188
482 558 463
483 646 587
484 736 62
485 698 127
486 270 234
487 100 418
488 154 568
489 396 895
490 890 116
491 740 150
492 509 345
493 42 516
494 837 341
495 363 882
496 9 260
497 543 783
498 238 33
499 101 723
500 823 319
501 376 753
502 421 707
503 912 300
504 564 169
505 101 247
506 418 767
507 79 258
508 806 598
509 857 357
510 465 7
511 718 756
512 571 33
513 858 934
514 498 115
515 270 966
516 837 44
517 897 98
518 659 168
519 6 579
520 33 841
521 846 736
522 792 131
523 524 301
524 545 773
525 154 997
526 945 365
527 248 354
528 206 831
529 351 798
530 868 116
531 936 974
532 809 145
533 542 321
534 515 23
535 167 912
536 594 490
537 910 515
538 542 619
539 855 937
540 758 776
541 217 592
542 810 821
543 735 333
544 950 557
545 305 532
546 880 441
547 877 400
548 771 528
549 592 578
550 520 681
551 175 953
552 276 21
553 574 742
554 199 633
555 852 821
556 476 514
557 326 299
558 589 781
559 960 350
560 830 120
561 0 291
562 65 496
563 877 905
564 753 97
565 329 24
566 207 545
567 811 359
568 113 342
569 120 573
570 295 581
571 298 609
572 731 893
573 763 273
574 816 651
575 702 61
576 880 426
577 719 232
578 955 689
579 715 141
580 788 762
581 34 817
582 105 22
583 857 788
584 134 359
585 831 163
586 361 870
587 975 958
588 553 819
589 807 673
590 19 838
591 746 121
592 130 380
593 741 511
594 80 424
595 173 767
596 906 426
597 990 111
598 748 520
599 92 895
600 371 978
601 986 670
602 929 905
603 661 524
604 974 197
605 742 652
606 732 747
607 870 188
608 612 890
609 348 284
610 973 109
611 34 437
612 137 997
613 474 63
614 665 444
615 300 335
616 856 104
617 866 249
618 528 91
619 140 964
620 25 937
621 486 786
622 857 918
623 357 860
624 823 709
625 162 150
626 77 809
627 516 380
628 772 832
629 387 199
630 261 767
631 619 645
632 754 57
633 692 838
634 193 932
635 738 941
636 406 976
637 811 360
638 487 965
639 396 197
640 444 940
641 182 954
642 85 539
643 70 483
644 161 570
645 447 194
646 757 845
647 692 506
648 930 251
649 950 549
650 601 86
651 143 117
652 698 634
653 238 877
654 543 987
655 761 809
656 494 134
657 562 925
658 838 282
659 834 210
660 926 436
661 375 833
662 568 225
663 106 594
664 675 986
665 835 632
666 144 83
667 272 373
668 4 496
669 299 740
670 805 641
671 482 600
672 255 448
673 834 470
674 117 696
675 837 469
676 345 585
677 703 523
678 476 565
679 893 816
680 271 417
681 877 492
682 605 578
683 156 613
684 607 721
685 527 358
686 54 581
687 591 478
688 7 37
689 529 997
690 705 436
691 110 166
692 702 173
693 962 671
694 262 521
695 82 75
696 1000 703
697 607 536
698 764 227
699 827 744
700 788 463
701 450 136
702 72 466
703 119 348
704 32 58
705 178 910
706 381 159
707 686 207
708 276 358
709 683 682
710 708 748
711 707 282
712 141 999
713 558 169
714 403 688
715 315 671
716 827 880
717 601 481
718 641 950
719 98 116
720 611 668
721 313 616
722 928 521
723 595 498
724 350 295
725 397 963
726 595 904
727 798 339
728 978 460
729 260 800
730 302 615
731 653 302
732 5 126
733 512 800
734 541 691
735 559 690
736 24 21
737 465 522
738 125 178
739 868 947
740 204 141
741 636 919
742 703 643
743 385 155
744 790 245
745 244 833
746 244 666
747 870 543
748 606 359
749 712 497
750 553 343
751 532 975
752 555 276
753 165 33
754 757 787
755 537 457
756 120 51
757 932 958
758 815 623
759 502 636
760 859 508
761 42 675
762 10 496
763 999 300
764 908 736
765 735 980
766 459 564
767 49 877
768 483 587
769 945 557
770 602 2
771 633 936
772 379 182
773 814 486
774 710 500
775 178 687
776 466 406
777 186 732
778 381 762
779 69 478
780 193 411
781 109 653
782 40 10
783 142 303
784 90 111
785 334 499
786 443 482
787 187 290
788 262 691
789 814 908
790 171 930
791 446 214
792 893 96
793 205 410
794 137 120
795 115 986
796 745 541
797 368 926
798 77 338
DEMAND_SECTION
2 1
3 1
4 1
5 1
6 1
7 1
8 1
9 1
10 1
11 1
12 1
13 1
14 1
15 1
16 1
17 1
18 1
19 1
20 1
21 1
22 1
23 1
24 1
25 1
26 1
27 1
28 1
29 1
30 1
31 1
32 1
33 1
34 1
35 1
36 1
37 1
38 1
39 1
40 1
41 1
42 1
43 1
44 1
45 1
46 1
47 1
48 1
49 1
50 1
51 1
52 1
53 1
54 1
55 1
56 1
57 1
58 1
59 1
60 1
61 1
62 1
63 1
64 1
65 1
66 1
67 1
68 1
69 1
70 1
71 1
72 1
73 1
74 1
75 1
76 1
77 1
78 1
79 1
80 1
81 1
82 1
83 1
84 1
85 1
86 1
87 1
88 1
89 1
90 1
91 1
92 1
93 1
94 1
95 1
96 1
97 1
98 1
99 1
100 1
101 1
102 1
103 1
104 1
105 1
106 1
107 1
108 1
109 1
110 1
111 1
112 1
113 1
114 1
115 1
116 1
117 1
118 1
119 1
120 1
121 1
122 1
123 1
124 1
125 1
126 1
127 1
128 1
129 1
130 1
131 1
132 1
133 1
134 1
135 1
136 1
137 1
138 1
139 1
140 1
141 1
142 1
143 1
144 1
145 1
146 1
147 1
148 1
149 1
150 1
151 1
152 1
153 1
154 1
155 1
156 1
157 1
158 1
159 1
160 1
161 1
162 1
163 1
164 1
165 1
166 1
167 1
168 1
169 1
170 1
171 1
172 1
173 1
174 1
175 1
176 1
177 1
178 1
179 1
180 1
181 1
182 1
183 1
184 1
185 1
186 1
187 1
188 1
189 1
190 1
191 1
192 1
193 1
194 1
195 1
196 1
197 1
198 1
199 1
200 1
201 1
202 1
203 1
204 1
205 1
206 1
207 1
208 1
209 1
210 1
211 1
212 1
213 1
214 1
215 1
216 1
217 1
218 1
219 1
220 1
221 1
222 1
223 1
224 1
225 1
226 1
227 1
228 1
229 1
230 1
231 1
232 1
233 1
234 1
235 1
236 1
237 1
238 1
239 1
240 1
241 1
242 1
243 1
244 1
245 1
246 1
247 1
248 1
249 1
250 1
251 1
252 1
253 1
254 1
255 1
256 1
257 1
258 1
259 1
260 1
261 1
262 1
263 1
264 1
265 1
266 1
267 1
268 1
269 1
270 1
271 1
272 1
273 1
274 1
275 1
276 1
277 1
278 1
279 1
280 1
281 1
282 1
283 1
284 1
285 1
286 1
287 1
288 1
289 1
290 1
291 1
292 1
293 1
294 1
295 1
296 1
297 1
298 1
299 1
300 1
301 1
302 1
303 1
304 1
305 1
306 1
307 1
308 1
309 1
310 1
311 1
312 1
313 1
314 1
315 1
316 1
317 1
318 1
319 1
320 1
321 1
COVERAGE_SECTION
2 9 633 143 277 474 33 434 304 180 511 
3 9 397 59 426 26 439 697 723 83 549 
4 9 798 47 36 155 561 65 496 507 303 
5 9 145 322 331 755 275 348 482 384 627 
6 9 686 134 420 519 58 268 642 131 199 
7 9 344 780 60 378 793 395 430 406 428 
8 9 113 22 676 721 730 371 203 571 715 
9 9 669 788 234 411 425 630 715 365 308 
10 8 611 168 42 462 442 594 702 779 
11 9 470 102 731 475 543 711 50 748 216 
12 9 704 107 695 200 350 688 784 732 736 
13 9 38 272 422 440 610 138 206 597 517 
14 9 402 19 235 98 498 416 278 267 459 
15 9 192 766 473 737 678 324 556 768 786 
16 9 443 74 588 733 208 167 92 81 621 
17 9 654 41 751 299 478 689 95 147 55 
18 9 499 423 674 195 90 88 463 100 781 
19 9 402 14 235 459 416 498 552 98 278 
20 9 244 45 623 363 586 381 495 123 112 
21 9 747 129 760 537 681 372 136 250 722 
22 9 8 113 203 371 715 721 676 730 714 
23 9 429 444 597 610 437 440 138 13 38 
24 9 752 202 142 523 319 300 533 662 320 
25 9 213 237 69 546 415 576 675 61 673 
26 9 549 682 426 697 256 439 3 483 280 
27 9 450 659 218 417 194 744 617 658 225 
28 9 306 291 347 479 276 565 140 248 313 
29 9 187 76 266 481 738 157 455 505 211 
30 9 316 435 577 119 711 573 445 698 375 
31 9 230 649 544 769 254 115 126 222 722 
32 9 748 384 216 336 275 331 50 322 468 
33 9 146 558 2 474 389 434 289 633 304 
34 9 448 510 534 318 62 248 330 613 447 
35 9 642 569 199 431 663 252 562 488 686 
36 9 47 155 496 561 4 364 507 368 122 
37 9 739 539 513 427 223 317 307 622 265 
38 9 13 440 138 610 272 422 206 597 53 
39 9 341 789 265 174 307 427 716 635 572 
40 9 460 795 619 70 253 383 612 712 467 
41 9 17 654 55 751 478 299 657 95 689 
42 8 10 611 168 462 442 65 594 668 
43 9 582 226 756 782 94 200 311 736 695 
44 9 396 321 785 680 672 310 163 410 545 
45 9 381 745 20 653 393 729 217 158 528 
46 9 124 521 624 764 111 201 699 589 574 
47 9 36 155 496 561 4 364 507 368 122 
48 9 106 451 436 329 151 484 632 279 110 
49 9 476 245 650 357 401 518 469 504 72 
50 9 336 748 320 32 731 750 384 470 11 
51 9 260 283 520 767 99 626 135 581 590 
52 9 550 424 734 391 735 326 160 524 553 
53 9 464 138 440 597 610 604 38 13 272 
54 9 409 720 295 335 182 735 684 631 160 
55 9 41 183 718 17 771 654 741 657 664 
56 9 661 123 413 166 623 118 244 221 112 
57 9 578 91 693 696 601 127 111 764 356 
58 9 268 420 131 134 6 686 519 761 232 
59 9 83 196 768 678 3 480 671 439 538 
60 9 428 7 344 395 487 594 702 779 780 
61 9 213 25 415 69 237 673 675 576 547 
62 9 318 448 330 613 510 248 34 276 534 
63 9 631 173 182 148 720 335 295 54 409 
64 9 634 705 790 298 535 67 285 641 290 
65 9 442 798 168 303 4 405 568 703 10 
66 9 527 458 207 708 667 452 615 149 680 
67 9 290 285 176 298 705 64 393 634 535 
68 9 763 559 526 128 85 117 503 120 89 
69 9 237 675 673 213 25 773 546 61 681 
70 9 219 40 795 460 612 619 253 712 139 
71 9 656 701 514 312 179 369 257 433 313 
72 9 349 469 73 650 512 245 770 476 447 
73 9 512 469 349 72 447 770 650 534 245 
74 9 16 208 116 443 733 81 621 326 109 
75 9 152 135 214 99 626 90 51 88 195 
76 9 266 505 29 481 122 301 368 738 507 
77 9 286 724 557 609 175 410 615 477 87 
78 9 515 210 156 144 363 465 419 381 797 
79 9 548 508 250 325 796 227 243 403 136 
80 9 274 241 486 246 149 240 380 455 211 
81 9 208 165 640 638 302 74 95 478 16 
82 9 777 392 775 100 293 595 86 746 788 
83 9 439 538 59 196 480 337 549 768 759 
84 9 471 215 573 417 189 500 658 744 727 
85 9 503 128 117 559 120 432 526 358 648 
86 9 554 293 164 775 392 233 683 746 177 
87 9 477 359 175 373 259 247 286 724 791 
88 9 626 90 423 135 152 195 283 18 581 
89 9 184 198 660 596 351 526 576 120 547 
90 9 195 88 18 499 423 626 152 595 75 
91 9 578 693 57 111 127 601 696 356 388 
92 9 657 95 443 726 478 41 17 751 608 
93 9 600 725 636 456 419 797 156 465 640 
94 9 756 666 190 404 695 582 753 651 399 
95 9 92 657 478 751 17 41 299 654 165 
96 9 333 740 398 459 625 455 98 246 399 
97 9 639 153 629 772 362 706 743 328 263 
98 9 267 14 159 398 402 235 459 19 498 
99 9 135 152 75 214 51 626 360 283 599 
100 9 777 595 82 195 775 392 366 90 18 
101 9 472 522 236 564 591 532 367 560 491 
102 9 470 11 690 543 315 453 475 614 216 
103 9 492 400 685 342 627 468 270 348 533 
104 9 273 691 125 350 343 738 114 719 157 
105 9 412 662 281 713 504 314 319 288 202 
106 9 48 451 436 151 345 329 484 575 279 
107 9 704 688 200 736 12 311 782 226 695 
108 9 709 742 652 605 287 137 173 197 710 
109 9 506 169 185 621 221 326 118 424 193 
110 9 632 279 484 329 436 564 451 48 575 
111 9 91 693 578 388 127 356 57 601 46 
112 9 529 309 193 56 123 661 413 118 365 
113 9 8 676 22 721 730 571 192 570 715 
114 9 719 784 273 404 350 190 794 651 125 
115 9 769 544 649 126 254 722 222 230 129 
116 9 221 413 166 661 118 56 489 123 74 
117 9 648 503 432 231 85 128 763 617 559 
118 9 221 193 309 413 661 56 123 529 112 
119 9 577 316 445 30 707 186 435 698 711 
120 9 128 526 358 85 509 547 559 89 503 
121 9 374 251 327 679 602 297 408 696 764 
122 9 368 507 505 301 266 364 76 36 47 
123 9 56 661 413 166 623 244 586 112 118 
124 9 201 46 665 574 161 589 111 670 758 
125 9 350 104 273 784 114 719 691 238 334 
126 9 254 222 544 769 115 230 649 31 356 
127 9 601 693 578 91 57 356 696 111 388 
128 9 120 526 85 559 503 358 89 117 68 
129 9 21 747 537 722 115 760 769 681 649 
130 9 204 717 379 687 536 280 614 723 338 
131 9 268 58 454 761 420 134 463 781 686 
132 9 699 580 521 583 624 421 540 542 754 
133 9 414 607 231 225 272 648 604 323 617 
134 9 6 686 420 58 268 519 131 663 642 
135 9 152 99 75 626 214 51 283 88 90 
136 9 372 250 258 760 773 548 747 79 21 
137 9 605 421 589 161 108 670 574 292 197 
138 9 440 610 597 38 53 13 464 272 422 
139 9 620 228 219 70 767 599 253 40 360 
140 9 565 552 347 291 19 28 306 416 402 
141 9 700 773 258 262 673 675 209 446 284 
142 9 523 24 300 342 202 533 752 492 319 
143 9 633 277 646 2 655 628 754 572 180 
144 9 515 78 634 64 653 67 290 381 210 
145 9 5 755 322 331 348 482 627 275 170 
146 9 558 289 389 588 33 167 497 524 553 
147 9 689 299 751 654 478 638 17 165 302 
148 9 63 173 631 182 483 720 335 652 295 
149 9 274 80 241 486 458 380 452 246 211 
150 9 390 776 305 270 400 348 103 191 627 
151 9 345 575 436 441 484 106 48 224 279 
152 9 135 75 99 214 626 51 88 283 90 
153 9 97 639 629 772 362 328 706 743 645 
154 9 787 452 387 783 380 211 458 207 352 
155 9 47 36 496 561 364 4 507 368 122 
156 9 78 797 363 465 419 600 456 93 210 
157 9 738 343 481 691 625 104 266 273 29 
158 9 353 528 393 176 366 745 285 653 290 
159 9 267 98 666 399 753 651 94 188 794 
160 9 553 684 735 409 54 389 734 289 295 
161 9 574 670 589 758 665 201 243 137 292 
162 9 606 540 511 754 710 580 277 655 434 
163 9 310 545 785 361 694 321 570 676 44 
164 9 683 554 86 233 181 541 644 775 293 
165 9 638 81 302 478 640 147 751 95 299 
166 9 586 623 123 56 661 495 413 244 489 
167 9 497 524 588 733 289 146 326 558 389 
168 9 442 10 594 65 611 42 487 303 702 
169 9 506 185 109 171 502 391 424 621 326 
170 9 294 755 348 786 145 270 305 324 556 
171 9 501 185 778 261 502 506 354 169 714 
172 9 332 566 264 355 541 205 644 252 249 
173 9 63 631 148 182 335 720 295 54 409 
174 9 789 716 265 39 212 622 341 513 539 
175 9 286 477 87 77 724 359 259 609 373 
176 9 290 285 67 393 298 158 653 705 353 
177 9 746 233 411 554 788 293 541 86 571 
178 9 437 386 449 516 377 444 792 517 23 
179 9 656 514 71 369 257 713 618 504 281 
180 9 382 572 633 635 143 741 2 646 771 
181 9 488 683 644 569 663 252 164 454 332 
182 9 631 63 720 173 335 54 148 409 295 
183 9 664 718 55 771 741 41 382 765 17 
184 9 89 198 660 596 351 576 229 546 282 
185 9 506 778 171 169 501 109 193 309 118 
186 9 445 707 119 577 316 692 518 30 711 
187 9 29 211 455 380 387 76 787 266 481 
188 9 267 235 498 278 416 753 159 14 98 
189 9 500 215 494 658 340 84 727 471 567 
190 9 404 666 794 114 719 651 94 784 399 
191 9 305 390 786 150 776 270 324 170 44 
192 9 15 473 766 737 113 324 676 678 786 
193 9 309 118 778 529 221 501 112 185 413 
194 9 218 659 585 27 450 532 367 225 375 
195 9 90 18 499 100 595 88 423 674 777 
196 9 480 671 768 59 678 83 759 538 766 
197 9 292 461 605 227 287 243 269 670 508 
198 9 184 660 89 351 596 229 282 728 576 
199 8 431 493 562 642 643 779 35 702 
200 9 736 107 688 704 782 311 226 12 695 
201 9 665 574 124 758 670 161 589 243 508 
202 9 319 24 142 314 752 288 281 523 662 
203 9 371 714 502 22 171 308 261 354 425 
204 9 280 723 536 717 130 687 697 256 426 
205 9 264 355 541 172 566 332 361 249 694 
206 9 422 517 490 792 323 377 13 272 530 
207 9 527 66 458 452 708 667 154 793 615 
208 9 81 74 640 165 16 116 443 489 638 
209 9 284 262 593 598 370 749 774 394 548 
210 9 515 78 465 144 156 419 363 600 634 
211 9 380 787 187 387 455 154 29 149 783 
212 9 716 563 622 174 265 789 513 539 408 
213 9 25 237 69 675 546 673 61 415 576 
214 9 75 99 152 135 360 467 599 51 626 
215 9 84 189 500 471 658 727 417 494 573 
216 9 32 315 748 275 384 614 331 322 336 
217 9 729 630 745 234 365 669 45 9 528 
218 9 194 450 27 659 744 375 417 698 585 
219 9 70 795 139 40 460 620 228 612 253 
220 9 491 579 591 485 692 367 472 564 101 
221 9 118 413 193 661 309 56 116 123 506 
222 9 126 254 356 544 769 388 115 230 649 
223 9 317 255 466 531 757 296 739 37 407 
224 9 441 401 575 345 151 245 476 436 485 
225 9 607 414 585 659 133 194 27 323 218 
226 9 43 582 782 200 736 695 704 756 311 
227 9 385 461 403 269 325 796 197 79 292 
228 9 620 139 767 599 253 219 360 70 51 
229 9 282 728 198 660 184 351 722 89 596 
230 9 31 544 649 254 126 769 115 222 722 
231 9 648 117 432 133 617 503 607 604 85 
232 9 438 761 463 268 58 131 420 423 134 
233 9 541 554 355 264 177 164 332 86 205 
234 9 365 669 9 354 308 630 425 217 261 
235 9 498 416 278 14 402 188 267 552 98 
236 9 560 522 101 532 616 472 530 585 564 
237 9 69 675 213 673 25 546 681 773 61 
238 9 364 301 368 418 334 104 125 122 507 
239 9 791 645 433 288 369 247 314 153 373 
240 9 486 241 274 80 246 376 263 149 557 
241 9 274 80 486 240 246 149 455 557 376 
242 9 407 457 587 296 531 757 466 255 327 
243 9 508 758 670 292 665 574 79 197 161 
244 9 623 586 123 20 166 56 495 661 112 
245 9 476 650 49 401 72 469 224 357 349 
246 9 486 80 241 240 274 455 333 149 96 
247 9 259 791 373 87 239 639 97 629 153 
248 9 510 448 62 276 318 34 330 613 28 
249 9 566 406 694 172 205 430 332 378 264 
250 9 136 372 79 258 747 760 548 21 773 
251 9 764 374 297 679 57 121 578 91 583 
252 9 488 644 181 569 172 332 566 35 683 
253 9 467 360 599 40 383 619 70 460 535 
254 9 126 222 544 230 769 115 649 31 356 
255 9 757 531 317 223 296 466 457 587 407 
256 9 697 426 280 26 204 682 603 549 723 
257 9 514 618 656 179 613 71 330 447 318 
258 9 548 773 141 136 262 372 598 250 700 
259 9 247 87 629 639 373 791 97 175 153 
260 9 520 283 51 590 581 767 626 346 135 
261 9 354 501 308 778 171 425 193 185 365 
262 9 209 284 593 598 370 141 749 548 258 
263 9 376 629 772 362 639 97 153 240 259 
264 9 355 541 205 332 172 233 566 249 361 
265 9 789 174 39 716 622 427 212 341 539 
266 9 76 505 481 29 301 122 738 368 157 
267 9 159 98 188 235 753 498 14 278 416 
268 9 58 131 420 134 761 6 686 438 463 
269 9 385 461 227 287 652 403 742 197 325 
270 9 776 348 390 150 305 400 627 103 170 
271 9 339 706 743 362 772 376 19 306 328 
272 9 13 38 414 206 422 323 440 138 490 
273 9 114 104 719 350 125 784 691 343 404 
274 9 80 241 486 149 240 246 380 557 211 
275 9 322 331 384 5 32 216 145 482 687 
276 9 248 479 62 313 28 306 330 318 448 
277 9 143 511 754 474 540 633 655 162 434 
278 9 416 498 235 188 552 14 402 267 19 
279 9 484 632 110 436 329 564 575 151 48 
280 9 204 256 603 697 426 723 130 536 717 
281 9 314 288 105 319 412 369 713 662 504 
282 9 728 229 198 660 184 89 351 596 722 
283 9 260 51 581 520 626 590 135 767 99 
284 9 209 262 593 370 598 749 774 394 677 
285 9 67 298 290 176 705 64 535 393 634 
286 9 175 77 724 477 609 87 557 259 359 
287 9 652 742 269 461 605 197 108 292 227 
288 9 314 281 369 319 239 202 105 645 791 
289 9 524 497 389 558 167 146 553 588 733 
290 9 67 285 176 298 393 705 64 653 634 
291 9 347 28 565 306 140 276 479 248 552 
292 9 197 461 243 605 670 508 227 758 161 
293 9 392 86 775 82 746 554 177 788 777 
294 9 170 755 556 482 324 737 397 145 786 
295 9 335 409 720 54 684 182 173 63 631 
296 9 531 466 407 757 457 255 223 242 587 
297 9 679 583 555 374 251 764 521 699 132 
298 9 705 285 535 67 290 64 176 790 634 
299 9 751 654 689 147 478 17 41 638 95 
300 9 533 523 320 342 750 142 752 24 492 
301 9 368 122 238 266 364 505 507 76 104 
302 9 638 640 165 636 147 725 81 456 93 
303 9 405 568 703 798 584 592 352 65 442 
304 9 608 726 741 771 2 718 657 33 180 
305 9 390 776 150 270 191 348 170 786 400 
306 9 28 479 291 276 347 313 339 565 140 
307 9 427 341 39 265 789 635 37 765 174 
308 9 354 425 261 501 234 203 669 171 778 
309 9 193 118 529 112 778 221 413 56 501 
310 9 785 163 545 361 321 44 694 676 570 
311 9 736 782 200 688 107 704 226 43 12 
312 9 701 71 328 433 645 656 369 313 153 
313 9 479 276 701 613 330 312 306 62 71 
314 9 281 288 319 369 105 202 662 412 239 
315 9 614 338 216 690 379 130 102 32 275 
316 9 577 119 30 445 698 435 375 707 186 
317 9 223 255 757 531 466 296 739 37 513 
318 9 62 330 613 448 34 510 248 534 276 
319 9 202 314 281 24 288 662 752 105 142 
320 9 533 300 750 336 50 752 523 748 24 
321 9 396 672 44 406 694 430 378 785 680 
322 9 331 275 5 145 384 482 755 32 687 
323 9 490 530 206 517 792 616 414 422 272 
324 9 786 473 737 556 15 170 294 766 192 
325 9 796 403 598 385 548 593 227 79 209 
326 9 621 733 424 109 497 167 524 169 52 
327 9 587 602 457 757 255 242 408 531 407 
328 9 743 706 312 153 701 97 362 772 639 
329 9 110 632 451 279 484 48 436 106 564 
330 9 613 318 62 448 34 257 276 313 248 
331 9 322 275 5 384 145 32 482 468 755 
332 9 172 566 355 264 541 205 644 488 233 
333 9 96 740 398 455 459 246 625 486 98 
334 9 418 732 238 125 350 104 364 273 12 
335 9 295 720 409 173 54 182 63 631 684 
336 9 748 50 320 750 32 384 468 533 300 
337 9 538 439 83 182 735 54 631 720 734 
338 8 614 379 690 315 394 130 647 749 
339 9 271 743 706 479 306 328 362 772 313 
340 8 494 509 358 500 189 567 637 727 
341 9 39 307 427 635 789 265 174 572 765 
342 9 492 523 103 300 533 685 142 750 400 
343 9 157 738 691 481 625 104 273 794 651 
344 9 7 780 793 395 378 60 430 428 406 
345 9 151 575 436 441 224 484 106 48 279 
346 9 581 590 520 283 260 626 51 88 767 
347 9 291 565 28 140 306 276 479 248 552 
348 9 270 776 627 145 5 400 170 390 305 
349 9 72 73 512 770 469 650 245 447 476 
350 9 784 125 273 719 114 104 404 695 12 
351 9 596 660 546 198 184 576 89 415 547 
352 9 584 703 592 405 568 303 395 783 798 
353 9 528 158 393 366 745 176 653 285 290 
354 9 261 308 501 425 778 171 234 365 669 
355 9 264 541 205 332 172 233 566 554 644 
356 9 388 222 127 254 693 126 601 111 91 
357 9 518 485 401 49 692 476 579 245 220 
358 8 340 509 494 120 503 189 500 128 
359 9 373 87 477 175 142 247 259 342 523 
360 9 599 467 253 99 214 767 51 40 383 
361 9 545 694 570 205 163 310 264 571 249 
362 9 772 629 706 97 639 153 743 328 263 
363 9 495 156 797 586 20 78 623 244 166 
364 9 238 368 301 36 122 155 496 47 507 
365 9 234 669 529 112 354 261 217 308 309 
366 9 528 353 158 595 745 393 100 729 75 
367 9 491 472 522 220 532 591 101 194 579 
368 9 122 507 301 505 364 266 238 36 76 
369 9 288 314 179 656 71 433 281 239 645 
370 8 749 774 394 284 209 647 593 677 
371 9 203 714 502 22 171 308 261 354 425 
372 9 136 250 760 258 773 747 21 673 79 
373 9 359 87 247 477 259 142 791 239 175 
374 9 679 251 297 121 583 555 764 408 602 
375 9 698 744 435 218 316 450 577 573 30 
376 9 263 362 772 240 629 639 97 706 153 
377 9 517 792 422 206 386 490 530 323 449 
378 9 430 406 672 7 344 396 793 249 780 
379 8 338 614 130 647 394 603 749 774 
380 9 211 787 187 387 154 455 149 80 452 
381 9 653 45 393 745 20 144 290 176 67 
382 9 180 572 635 741 718 771 664 765 341 
383 9 790 551 535 619 641 705 634 64 467 
384 9 32 331 468 275 322 336 748 5 750 
385 9 403 227 269 325 796 461 677 598 593 
386 9 449 437 377 178 792 516 517 422 206 
387 9 783 787 211 154 380 187 29 76 505 
388 9 356 222 111 126 254 693 127 91 115 
389 9 558 289 553 146 524 497 160 684 33 
390 9 305 776 150 270 191 348 400 170 103 
391 9 502 169 52 424 714 550 171 371 506 
392 9 293 82 775 86 777 746 554 788 100 
393 9 176 158 653 353 290 528 67 285 745 
394 8 370 749 774 284 647 209 262 338 
395 9 592 428 344 780 60 487 584 7 352 
396 9 672 680 321 44 430 378 406 667 793 
397 9 723 536 687 3 482 717 426 755 204 
398 9 459 740 98 96 333 402 14 19 159 
399 9 651 794 666 625 190 159 404 94 740 
400 9 103 270 492 627 150 776 348 685 342 
401 9 224 476 441 245 357 485 49 575 650 
402 9 14 19 235 98 498 416 459 278 398 
403 9 325 796 385 227 598 548 593 677 79 
404 9 190 719 114 784 666 794 94 695 651 
405 9 568 703 303 584 352 798 592 783 65 
406 9 430 378 249 672 321 694 396 7 344 
407 9 242 457 296 587 531 466 757 255 223 
408 9 602 563 622 255 212 757 513 739 539 
409 9 54 720 295 335 684 182 735 160 631 
410 9 615 77 708 667 557 680 44 66 286 
411 9 788 746 9 177 715 293 392 669 425 
412 9 105 504 713 662 281 314 319 288 179 
413 9 661 56 123 118 221 166 309 623 193 
414 9 133 607 225 272 323 490 206 530 13 
415 9 576 547 546 25 213 596 61 351 237 
416 9 278 498 235 552 14 188 402 19 267 
417 9 744 450 471 27 84 658 218 215 573 
418 9 334 238 732 364 125 301 496 104 350 
419 9 465 600 93 156 210 456 725 636 78 
420 9 58 134 6 268 686 519 131 663 761 
421 9 624 137 589 699 580 132 161 521 574 
422 9 206 517 792 377 490 13 38 323 272 
423 9 499 18 88 90 463 674 195 438 761 
424 9 326 52 621 169 391 109 733 524 497 
425 9 308 354 715 9 261 669 234 203 365 
426 9 697 256 26 682 549 280 723 204 536 
427 9 307 341 39 265 789 37 539 513 174 
428 9 487 60 395 594 592 7 344 702 303 
429 9 23 444 437 597 610 178 386 440 138 
430 9 378 406 672 249 396 7 321 344 694 
431 8 199 562 493 643 642 779 35 702 
432 9 503 117 231 617 648 85 358 658 128 
433 9 645 239 791 312 369 153 328 701 97 
434 9 474 710 511 277 606 2 33 162 633 
435 9 573 30 698 375 316 744 471 577 711 
436 9 151 484 279 345 48 575 632 106 110 
437 9 178 386 449 377 444 516 23 792 517 
438 9 761 463 232 268 131 58 423 499 420 
439 9 83 549 538 26 682 337 59 3 426 
440 9 138 610 38 597 13 53 464 272 422 
441 9 575 224 345 151 401 484 485 436 279 
442 9 168 65 594 10 487 303 611 798 42 
443 9 16 92 657 95 74 726 588 208 81 
444 9 23 429 610 597 377 13 422 437 38 
445 9 186 707 119 577 316 30 692 711 518 
446 9 453 700 141 690 262 394 61 284 209 
447 9 534 512 73 618 469 257 34 318 330 
448 9 510 62 34 248 318 330 613 534 276 
449 9 516 386 377 178 437 616 792 517 530 
450 9 27 417 218 744 659 194 375 471 698 
451 9 48 329 106 436 632 110 279 484 151 
452 9 458 207 154 66 527 787 149 380 708 
453 9 446 690 102 700 141 394 262 338 61 
454 9 781 663 131 683 181 569 674 268 164 
455 9 187 211 246 380 333 29 96 80 486 
456 9 725 93 636 600 797 156 640 489 419 
457 9 587 242 407 296 531 757 255 327 466 
458 9 66 207 527 452 708 667 149 615 154 
459 9 398 402 98 14 19 96 740 333 235 
460 9 795 612 40 619 712 70 525 383 219 
461 9 197 227 292 269 287 385 605 652 403 
462 8 611 762 10 668 42 702 779 643 
463 9 761 438 131 232 423 268 499 781 58 
464 9 53 138 440 604 597 610 38 13 272 
465 9 419 156 600 210 93 78 515 456 725 
466 9 296 531 223 317 255 757 407 457 242 
467 9 360 253 599 383 535 705 790 40 214 
468 9 685 750 627 384 492 533 103 5 336 
469 9 72 73 650 512 349 245 447 476 618 
470 9 11 102 731 475 543 50 711 748 216 
471 9 84 417 215 573 744 435 658 450 189 
472 9 101 522 591 367 532 491 564 220 236 
473 9 737 324 556 15 786 766 192 678 294 
474 9 434 710 277 511 2 33 606 633 143 
475 9 543 711 11 470 102 573 30 435 731 
476 9 245 49 650 401 357 72 224 469 518 
477 9 87 175 359 286 373 259 400 150 247 
478 9 751 299 17 95 654 147 689 41 638 
479 9 306 313 276 28 339 291 248 330 613 
480 9 196 671 768 759 678 59 83 538 766 
481 9 738 157 343 691 266 76 29 104 301 
482 9 755 687 397 322 145 536 5 717 275 
483 9 682 148 256 26 549 63 631 697 269 
484 9 279 110 632 436 575 329 151 564 345 
485 9 579 220 357 401 441 692 491 591 518 
486 9 241 246 80 240 274 149 455 376 333 
487 9 594 428 442 592 168 395 60 303 702 
488 9 644 252 181 569 683 332 172 663 566 
489 9 495 166 797 586 623 116 456 123 661 
490 9 323 206 517 792 530 422 616 377 272 
491 9 220 579 367 591 472 692 485 101 522 
492 9 103 342 685 400 627 533 468 750 300 
493 8 199 431 562 762 643 668 779 642 
494 8 340 500 509 189 567 637 358 727 
495 9 586 623 166 489 244 363 797 123 56 
496 9 155 47 36 561 364 4 368 507 122 
497 9 524 167 289 733 588 146 389 558 326 
498 9 278 416 235 188 14 552 402 267 19 
499 9 18 423 674 195 90 88 463 781 100 
500 9 189 215 494 340 727 658 84 567 637 
501 9 778 261 171 354 193 185 309 308 506 
502 9 714 171 391 371 203 169 185 506 501 
503 9 85 432 117 128 358 648 120 231 559 
504 9 713 412 105 281 179 662 314 49 288 
505 9 122 507 76 266 368 301 29 364 481 
506 9 185 109 169 778 171 193 501 118 221 
507 9 122 368 505 36 301 47 364 76 266 
508 9 243 758 79 670 665 292 574 197 201 
509 8 340 494 358 567 637 547 120 500 
510 9 448 248 34 62 318 534 330 276 613 
511 9 710 606 162 434 277 540 474 754 655 
512 9 73 349 469 72 447 770 534 650 618 
513 9 539 622 739 563 265 37 212 789 427 
514 9 656 257 71 179 618 701 613 330 369 
515 9 210 78 144 465 156 419 363 634 381 
516 9 449 386 616 236 178 377 329 560 792 
517 9 792 206 490 422 377 323 530 616 13 
518 9 357 692 707 186 485 49 579 445 401 
519 9 420 6 134 686 58 268 493 131 199 
520 9 260 590 581 283 51 767 346 626 135 
521 9 699 624 132 46 583 421 764 580 297 
522 9 101 472 532 236 367 560 591 585 564 
523 9 142 300 533 342 24 752 492 202 320 
524 9 497 289 167 389 553 733 558 588 146 
525 9 712 612 619 460 795 551 641 40 383 
526 9 559 128 120 89 85 184 68 198 596 
527 9 66 207 458 708 667 452 615 680 149 
528 9 353 158 366 393 745 176 653 285 290 
529 9 112 309 193 56 118 123 365 661 413 
530 9 616 323 490 792 517 560 206 422 377 
531 9 296 757 255 466 223 317 407 457 587 
532 9 522 585 560 472 101 236 367 194 616 
533 9 300 750 523 320 342 685 492 142 752 
534 9 34 447 318 448 62 510 330 512 613 
535 9 705 790 298 64 383 285 634 67 551 
536 9 723 717 687 204 397 130 482 280 697 
537 9 722 129 681 21 747 115 760 649 769 
538 9 83 337 439 759 196 480 59 671 549 
539 9 513 739 622 563 37 265 789 212 427 
540 9 754 162 580 655 606 511 277 710 628 
541 9 355 264 233 332 172 205 554 566 164 
542 9 628 555 655 583 646 716 132 580 754 
543 9 475 11 102 711 470 727 573 435 84 
544 9 769 649 115 126 254 230 31 222 722 
545 9 163 361 310 694 785 570 321 676 205 
546 9 576 25 415 351 213 596 237 547 69 
547 8 415 576 596 546 509 25 351 120 
548 9 598 258 796 325 593 79 209 262 403 
549 9 682 26 439 426 697 256 83 483 3 
550 9 734 52 735 759 337 391 538 160 424 
551 9 641 790 383 634 64 619 535 705 525 
552 9 416 278 140 498 235 19 565 14 402 
553 9 160 389 289 684 524 558 497 735 146 
554 9 86 164 233 541 177 293 683 355 746 
555 9 583 679 542 297 212 716 132 174 628 
556 9 737 324 473 294 786 678 766 15 170 
557 9 724 609 77 615 286 274 410 240 241 
558 9 389 146 289 553 33 524 497 167 588 
559 9 526 128 68 85 120 763 89 503 184 
560 9 236 616 532 530 522 585 101 323 472 
561 9 496 155 47 36 4 364 507 368 798 
562 8 643 431 779 199 493 702 642 762 
563 9 622 212 408 513 539 739 602 716 265 
564 9 591 101 279 110 484 472 632 220 522 
565 9 140 347 291 28 552 306 19 416 278 
566 9 172 332 249 205 264 355 541 252 644 
567 8 637 727 494 500 340 509 189 215 
568 9 405 703 303 352 584 798 592 783 65 
569 9 663 181 488 35 644 252 642 683 454 
570 9 571 730 361 721 545 676 205 163 113 
571 9 730 721 570 676 177 113 361 715 22 
572 9 180 382 635 646 341 39 143 633 628 
573 9 435 471 84 744 30 698 375 417 215 
574 9 161 670 589 665 758 201 243 124 508 
575 9 345 151 441 436 224 484 279 632 110 
576 9 415 546 547 596 25 351 213 237 660 
577 9 316 119 30 445 707 186 435 698 375 
578 9 91 57 693 127 111 601 696 356 764 
579 9 220 485 491 692 591 357 367 564 472 
580 9 132 540 754 162 699 421 655 606 542 
581 9 283 520 590 260 346 626 51 88 767 
582 9 43 226 756 94 695 753 782 666 404 
583 9 297 555 679 132 521 699 542 764 580 
584 9 352 703 592 405 568 303 395 783 798 
585 9 532 194 225 560 607 659 522 218 236 
586 9 623 495 166 244 123 56 661 489 413 
587 9 457 242 407 327 296 531 757 255 466 
588 9 167 497 146 289 733 524 558 16 389 
589 9 161 574 670 624 421 137 201 665 758 
590 9 520 260 581 283 346 51 767 626 228 
591 9 564 220 472 491 101 579 367 522 485 
592 9 584 352 395 703 303 405 568 487 428 
593 9 598 209 284 262 370 796 749 325 774 
594 9 487 168 442 428 702 10 611 779 643 
595 9 100 777 366 195 82 90 528 353 75 
596 9 351 660 576 184 89 546 198 415 547 
597 9 610 138 440 53 38 464 13 444 23 
598 9 593 796 209 548 284 325 262 403 370 
599 9 360 253 467 767 51 99 228 214 40 
600 9 93 725 456 636 419 156 465 797 640 
601 9 127 693 57 578 696 91 356 111 388 
602 9 408 327 563 757 255 317 531 587 622 
603 8 280 647 677 256 204 379 697 774 
604 9 464 53 133 138 272 648 440 231 38 
605 9 197 287 137 292 742 108 461 652 670 
606 9 162 511 710 540 754 277 434 580 474 
607 9 225 414 659 133 585 27 194 323 617 
608 9 304 726 741 771 657 92 718 443 95 
609 9 724 557 77 286 175 259 263 615 240 
610 9 440 597 138 38 13 53 444 464 272 
611 8 10 462 168 42 594 702 442 779 
612 9 712 525 460 795 619 40 70 551 383 
613 9 330 318 62 448 257 313 276 34 248 
614 8 338 315 379 690 130 216 394 647 
615 9 708 557 410 667 66 527 77 458 724 
616 9 530 560 490 323 792 236 517 206 377 
617 9 432 658 27 659 231 417 450 607 648 
618 9 257 514 447 179 656 469 613 330 71 
619 9 460 40 383 612 795 712 525 551 641 
620 9 139 228 219 767 70 599 253 40 360 
621 9 326 733 424 109 167 497 169 524 74 
622 9 513 539 563 739 212 265 789 716 174 
623 9 586 244 166 495 123 56 661 413 20 
624 9 421 521 699 589 132 46 161 574 124 
625 9 343 157 651 399 794 740 738 481 691 
626 9 88 135 283 152 51 581 99 260 75 
627 9 685 468 103 348 492 400 270 5 145 
628 9 646 655 542 754 143 540 277 580 174 
629 9 639 97 153 772 362 263 706 743 328 
630 9 217 729 669 234 9 365 745 788 366 
631 9 63 182 173 720 148 335 54 295 409 
632 9 110 279 484 329 436 564 451 48 575 
633 9 2 143 277 180 474 646 572 33 655 
634 9 64 790 641 705 551 535 298 67 383 
635 9 765 341 382 572 39 307 180 427 664 
636 9 725 93 456 600 302 640 797 419 156 
637 8 567 727 494 500 340 509 189 215 
638 9 165 302 147 478 299 751 81 640 689 
639 9 97 153 629 772 362 706 743 328 263 
640 9 81 302 165 208 638 636 725 456 489 
641 9 551 634 790 64 383 619 705 535 525 
642 9 35 199 431 562 493 569 686 6 643 
643 8 779 562 702 431 199 493 611 642 
644 9 488 252 181 332 569 172 683 566 164 
645 9 433 791 239 153 312 369 97 639 328 
646 9 628 655 143 572 542 754 277 633 540 
647 8 774 677 749 370 394 603 379 284 
648 9 231 117 432 503 133 85 617 604 763 
649 9 544 769 115 230 31 126 254 722 222 
650 9 245 469 72 476 49 73 349 512 401 
651 9 794 399 190 666 404 625 114 719 343 
652 9 742 287 108 269 605 709 461 148 197 
653 9 381 393 290 176 45 67 745 158 285 
654 9 299 17 751 689 478 147 41 95 638 
655 9 754 628 540 646 277 143 542 162 580 
656 9 71 514 179 257 369 701 312 618 433 
657 9 92 95 726 41 478 443 17 751 608 
658 9 189 215 417 500 617 84 471 27 450 
659 9 27 218 194 450 225 607 585 617 417 
660 9 198 184 351 596 89 546 576 229 282 
661 9 56 123 413 166 118 623 221 244 112 
662 9 105 412 281 319 752 314 24 202 504 
663 9 569 454 181 35 683 686 488 642 781 
664 9 183 718 765 771 55 382 635 741 180 
665 9 201 758 574 670 161 124 243 508 589 
666 9 94 190 399 651 404 159 794 756 753 
667 9 708 66 527 207 680 615 458 410 452 
668 8 762 462 493 199 562 431 611 643 
669 9 234 9 365 425 630 308 354 217 788 
670 9 161 574 758 665 589 243 201 508 292 
671 9 480 768 196 678 759 766 59 83 538 
672 9 396 430 378 680 321 406 44 793 780 
673 9 675 69 237 773 213 25 760 141 700 
674 9 499 18 781 423 195 775 463 454 90 
675 9 673 69 237 213 773 25 760 681 61 
676 9 113 8 721 570 730 571 22 545 163 
677 8 647 774 749 370 593 603 284 394 
678 9 766 768 671 196 59 480 737 15 556 
679 9 297 374 555 583 251 212 764 542 408 
680 9 396 672 667 44 708 321 378 430 793 
681 9 760 537 237 69 21 675 673 546 747 
682 9 549 26 426 256 483 697 439 148 83 
683 9 164 181 644 488 554 86 454 663 569 
684 9 160 295 409 553 54 335 389 720 735 
685 9 468 492 627 103 750 342 533 300 400 
686 9 6 134 420 58 519 268 642 663 131 
687 9 717 536 723 397 204 482 130 280 275 
688 9 107 200 736 704 311 782 12 226 695 
689 9 299 147 654 751 17 478 41 638 95 
690 9 338 614 394 453 315 379 446 102 749 
691 9 343 738 157 104 481 273 125 114 719 
692 9 579 707 220 518 491 485 357 186 445 
693 9 127 578 91 601 57 111 356 696 388 
694 9 361 249 545 321 205 406 163 566 430 
695 9 404 784 12 190 719 756 94 114 350 
696 9 57 601 127 578 693 91 111 356 251 
697 9 426 256 26 280 204 723 682 549 536 
698 9 375 744 435 316 218 577 450 573 30 
699 9 132 521 624 580 421 583 46 589 540 
700 9 141 773 446 258 262 673 675 69 61 
701 9 312 71 328 656 433 313 514 369 645 
702 8 779 643 562 594 431 611 10 199 
703 9 568 405 352 584 303 592 798 783 65 
704 9 107 200 12 688 736 782 311 226 695 
705 9 298 535 64 790 285 634 67 290 383 
706 9 743 362 772 328 153 97 629 639 339 
707 9 186 445 119 692 577 316 518 30 357 
708 9 667 66 527 615 458 207 410 680 452 
709 9 108 742 652 173 335 287 295 148 605 
710 9 511 606 434 162 474 277 540 754 709 
711 9 30 475 435 577 119 316 573 543 731 
712 9 612 525 460 795 619 40 551 641 70 
713 9 504 412 105 281 179 314 662 288 369 
714 9 371 203 502 171 391 261 22 308 354 
715 9 425 411 22 721 9 730 788 308 571 
716 9 174 212 789 265 622 39 563 542 513 
717 9 687 536 723 204 130 397 280 482 697 
718 9 771 741 183 55 664 382 726 608 41 
719 9 114 784 273 404 350 190 794 125 695 
720 9 182 54 335 409 631 295 63 173 148 
721 9 730 571 570 676 113 22 715 8 177 
722 9 537 115 649 129 769 544 21 31 681 
723 9 536 717 687 204 397 697 280 426 130 
724 9 609 557 77 286 175 615 259 87 263 
725 9 456 636 93 600 797 640 302 156 419 
726 9 608 304 657 741 92 771 95 443 718 
727 8 567 637 500 215 494 189 84 340 
728 9 282 229 198 660 184 89 351 722 596 
729 9 217 630 745 45 528 234 353 365 366 
730 9 571 721 570 676 715 113 22 177 8 
731 9 11 470 50 711 475 748 336 320 30 
732 9 334 418 12 125 350 704 107 238 784 
733 9 167 326 621 497 524 588 289 16 424 
734 9 735 550 52 160 54 409 337 553 759 
735 9 734 160 54 409 550 337 553 52 720 
736 9 200 311 782 688 107 704 226 12 43 
737 9 556 473 324 766 15 678 786 294 192 
738 9 157 481 343 691 104 266 625 76 273 
739 9 513 539 622 37 563 317 223 255 265 
740 9 96 398 333 625 459 399 98 651 159 
741 9 771 718 608 304 726 382 55 183 180 
742 9 652 287 108 605 709 269 461 197 148 
743 9 706 362 328 772 153 97 339 639 629 
744 9 417 450 471 375 698 218 573 27 435 
745 9 45 729 528 353 393 158 653 381 217 
746 9 177 411 788 293 392 86 554 233 775 
747 9 21 129 760 372 250 537 136 681 722 
748 9 336 32 50 384 216 320 750 468 275 
749 8 370 774 394 647 284 677 209 593 
750 9 533 468 685 320 300 336 492 342 384 
751 9 299 478 654 17 689 147 41 95 638 
752 9 24 300 523 202 320 142 533 319 662 
753 9 188 267 159 756 94 666 582 235 98 
754 9 540 655 162 580 277 606 628 511 646 
755 9 482 145 5 294 170 322 397 331 275 
756 9 94 582 666 190 695 404 753 226 43 
757 9 255 531 317 223 296 466 457 587 407 
758 9 243 670 665 508 574 201 161 292 589 
759 9 480 196 671 538 550 768 83 337 734 
760 9 681 21 372 747 136 673 675 237 69 
761 9 463 438 232 131 268 58 423 781 420 
762 8 668 462 493 562 199 431 643 779 
763 9 68 559 117 85 128 526 648 503 231 
764 9 251 46 297 521 91 578 57 111 583 
765 9 635 664 307 341 382 427 39 183 572 
766 9 678 15 768 737 671 473 196 480 556 
767 9 51 260 520 228 599 283 590 360 581 
768 9 671 196 480 678 766 59 759 83 15 
769 9 544 115 649 126 254 230 31 222 722 
770 9 349 512 73 72 469 447 650 534 245 
771 9 718 741 726 608 55 183 304 664 382 
772 9 362 629 97 639 706 153 743 263 328 
773 9 673 675 141 258 700 69 136 237 372 
774 8 749 370 647 394 677 284 209 593 
775 9 392 293 82 86 777 100 554 164 674 
776 9 270 390 305 150 348 400 627 170 103 
777 9 100 82 595 392 775 293 195 366 86 
778 9 501 193 185 261 309 171 506 354 118 
779 8 643 702 562 431 199 493 611 594 
780 9 793 344 7 395 378 430 592 207 60 
781 9 454 674 131 663 683 463 499 164 761 
782 9 311 736 200 226 688 107 704 43 582 
783 9 387 154 787 568 703 352 405 584 211 
784 9 719 114 350 404 273 190 695 125 794 
785 9 310 163 545 44 321 361 694 396 192 
786 9 324 473 556 737 170 191 305 294 15 
787 9 154 380 211 387 783 452 187 149 458 
788 9 411 746 9 177 293 715 392 669 425 
789 9 265 174 39 716 341 212 622 427 307 
790 9 535 383 705 64 634 551 641 298 285 
791 9 239 645 433 247 153 639 97 259 288 
792 9 517 490 206 377 422 530 323 616 386 
793 9 780 344 7 378 395 430 672 207 680 
794 9 651 399 190 404 114 666 625 719 343 
795 9 460 612 40 712 619 70 525 219 383 
796 9 325 403 598 548 593 385 227 209 284 
797 9 456 156 489 363 495 725 600 93 586 
798 9 65 303 405 568 4 703 442 584 352 
DEPOT_SECTION
   1
   -1
EOF
