NAME :  X-n801-kX-w160-c11.cctp
COMMENT : 	Adapted by Maziero, Usberti and Cavellucci from the Uchoa, Pecin, Pessoa, Poggi, Subramanian, and Vidal (2013)
TYPE :  CCTP
DIMENSION :    736
EDGE_WEIGHT_TYPE : 	EUC_2D	
CAPACITY : 	20
VERTICES_WITHIN_COVERAGE :  11
VERTICES_WITH_DEMAND : 	160
NODE_COORD_SECTION
1 0 0
2 674 825
3 549 534
4 43 315
5 542 420
6 45 580
7 180 450
8 369 618
9 287 721
10 36 426
11 680 338
12 42 81
13 942 119
14 247 68
15 432 549
16 514 857
17 554 976
18 103 728
19 271 73
20 310 859
21 874 538
22 358 642
23 989 42
24 538 271
25 854 443
26 596 563
27 827 228
28 380 40
29 152 224
30 726 258
31 981 544
32 600 381
33 629 799
34 488 12
35 100 542
36 37 272
37 847 980
38 949 124
39 787 917
40 111 958
41 571 968
42 2 409
43 95 2
44 318 447
45 271 856
46 873 697
47 34 274
48 733 17
49 620 125
50 611 334
51 66 848
52 507 711
53 993 152
54 596 683
55 605 980
56 372 833
57 968 699
58 36 620
59 518 566
60 138 457
61 828 421
62 467 39
63 626 645
64 192 923
65 56 363
66 252 349
67 202 896
68 999 331
69 843 462
70 83 975
71 475 135
72 601 55
73 578 43
74 480 854
75 124 825
76 121 228
77 355 326
78 291 944
79 784 563
80 260 251
81 472 918
82 193 715
83 539 592
84 794 290
85 930 315
86 190 654
87 429 292
88 79 779
89 931 409
90 114 765
91 948 685
92 550 915
93 383 979
94 127 64
95 541 935
96 218 159
97 396 194
98 216 85
99 106 843
100 174 744
101 782 117
102 699 379
103 497 355
104 87 161
105 558 199
106 721 10
107 18 53
108 704 674
109 443 783
110 755 58
111 928 666
112 347 805
113 360 600
114 101 119
115 938 556
116 422 848
117 934 275
118 391 807
119 712 230
120 908 359
121 992 823
122 80 246
123 367 837
124 865 661
125 67 146
126 956 582
127 977 663
128 930 343
129 896 542
130 631 472
131 62 636
132 817 759
133 914 195
134 46 591
135 102 825
136 822 527
137 763 684
138 975 128
139 26 941
140 314 34
141 787 474
142 512 291
143 718 832
144 244 931
145 534 425
146 585 799
147 513 990
148 641 633
149 254 283
150 448 389
151 702 44
152 109 823
153 402 190
154 184 314
155 26 270
156 333 949
157 132 174
158 203 842
159 182 78
160 575 723
161 807 656
162 745 757
163 320 523
164 175 626
165 488 947
166 376 858
167 540 797
168 52 401
169 441 748
170 491 459
171 636 652
172 813 892
173 403 311
174 201 878
175 245 641
176 894 2
177 515 142
178 701 895
179 143 590
180 612 652
181 650 986
182 932 420
183 410 762
184 676 219
185 174 236
186 204 25
187 828 312
188 120 96
189 409 434
190 405 549
191 379 787
192 810 191
193 129 755
194 499 596
195 937 430
196 61 519
197 29 34
198 843 640
199 520 251
200 385 685
201 619 501
202 908 111
203 234 353
204 467 896
205 277 981
206 194 265
207 850 444
208 131 847
209 806 302
210 627 401
211 267 788
212 805 211
213 61 985
214 729 142
215 402 812
216 956 593
217 907 977
218 670 71
219 863 184
220 74 25
221 741 581
222 38 919
223 963 467
224 979 558
225 916 241
226 4 676
227 217 612
228 311 756
229 235 42
230 815 106
231 848 461
232 46 198
233 460 210
234 293 234
235 274 248
236 800 608
237 342 852
238 623 95
239 258 221
240 420 244
241 444 16
242 821 540
243 939 766
244 157 549
245 106 921
246 961 583
247 619 540
248 507 97
249 790 509
250 404 252
251 44 843
252 752 492
253 352 216
254 817 913
255 115 221
256 200 58
257 38 628
258 479 404
259 332 129
260 929 145
261 93 139
262 269 260
263 583 421
264 424 47
265 715 796
266 240 26
267 743 62
268 633 515
269 528 202
270 976 456
271 54 828
272 191 890
273 384 316
274 713 629
275 502 205
276 563 779
277 205 892
278 368 18
279 766 621
280 207 679
281 506 481
282 622 691
283 890 793
284 182 900
285 530 981
286 540 313
287 78 213
288 456 978
289 99 363
290 623 878
291 448 422
292 379 61
293 792 953
294 373 793
295 330 512
296 22 7
297 445 147
298 431 90
299 517 208
300 659 423
301 724 233
302 906 970
303 476 43
304 522 237
305 571 317
306 280 476
307 571 424
308 452 500
309 743 544
310 493 777
311 412 154
312 762 39
313 473 60
314 570 414
315 226 169
316 12 159
317 627 681
318 589 346
319 563 637
320 678 455
321 361 119
322 776 929
323 511 327
324 128 163
325 183 433
326 697 48
327 3 800
328 361 10
329 499 410
330 601 34
331 73 124
332 908 439
333 136 356
334 203 835
335 961 627
336 661 144
337 875 331
338 455 290
339 104 892
340 378 180
341 329 906
342 41 229
343 320 770
344 191 805
345 767 162
346 72 237
347 491 176
348 391 682
349 828 526
350 457 274
351 934 814
352 765 225
353 337 209
354 903 78
355 223 461
356 668 475
357 201 270
358 261 879
359 152 937
360 573 385
361 724 568
362 159 283
363 931 623
364 585 768
365 449 408
366 459 705
367 203 692
368 215 862
369 150 407
370 274 443
371 565 501
372 230 119
373 157 111
374 481 368
375 662 102
376 252 72
377 737 554
378 111 96
379 110 348
380 232 480
381 598 686
382 327 371
383 267 682
384 571 194
385 383 829
386 897 166
387 869 417
388 244 30
389 809 255
390 4 177
391 340 996
392 32 602
393 793 712
394 916 104
395 77 731
396 489 744
397 330 707
398 600 540
399 803 954
400 123 430
401 998 17
402 229 468
403 67 511
404 897 279
405 448 185
406 680 762
407 752 263
408 724 44
409 911 15
410 29 685
411 563 589
412 972 125
413 696 82
414 61 393
415 536 881
416 963 57
417 690 225
418 759 430
419 535 47
420 468 19
421 810 233
422 753 13
423 217 331
424 747 415
425 106 630
426 207 218
427 389 952
428 242 335
429 249 118
430 118 982
431 15 459
432 52 684
433 990 159
434 325 995
435 123 903
436 544 369
437 582 67
438 676 344
439 793 276
440 774 131
441 447 520
442 675 775
443 723 323
444 624 108
445 431 317
446 531 961
447 401 76
448 493 604
449 125 188
450 558 463
451 646 587
452 736 62
453 270 234
454 100 418
455 154 568
456 396 895
457 890 116
458 740 150
459 509 345
460 363 882
461 9 260
462 543 783
463 238 33
464 101 723
465 823 319
466 376 753
467 912 300
468 564 169
469 101 247
470 418 767
471 79 258
472 806 598
473 857 357
474 465 7
475 718 756
476 571 33
477 858 934
478 498 115
479 270 966
480 897 98
481 659 168
482 6 579
483 33 841
484 846 736
485 792 131
486 524 301
487 545 773
488 154 997
489 945 365
490 248 354
491 206 831
492 351 798
493 809 145
494 542 321
495 515 23
496 167 912
497 594 490
498 910 515
499 542 619
500 855 937
501 758 776
502 810 821
503 735 333
504 950 557
505 880 441
506 877 400
507 771 528
508 592 578
509 520 681
510 175 953
511 276 21
512 574 742
513 199 633
514 852 821
515 476 514
516 326 299
517 589 781
518 960 350
519 830 120
520 0 291
521 65 496
522 753 97
523 329 24
524 811 359
525 113 342
526 120 573
527 295 581
528 298 609
529 731 893
530 763 273
531 816 651
532 702 61
533 880 426
534 719 232
535 955 689
536 788 762
537 34 817
538 105 22
539 857 788
540 134 359
541 361 870
542 553 819
543 807 673
544 19 838
545 746 121
546 80 424
547 173 767
548 906 426
549 990 111
550 92 895
551 371 978
552 986 670
553 661 524
554 974 197
555 742 652
556 732 747
557 870 188
558 612 890
559 348 284
560 973 109
561 34 437
562 137 997
563 474 63
564 665 444
565 300 335
566 866 249
567 528 91
568 140 964
569 25 937
570 848 367
571 486 786
572 857 918
573 357 860
574 823 709
575 162 150
576 77 809
577 516 380
578 772 832
579 387 199
580 261 767
581 619 645
582 754 57
583 692 838
584 193 932
585 738 941
586 406 976
587 811 360
588 487 965
589 396 197
590 444 940
591 182 954
592 85 539
593 447 194
594 757 845
595 930 251
596 950 549
597 601 86
598 143 117
599 698 634
600 238 877
601 543 987
602 761 809
603 494 134
604 562 925
605 838 282
606 834 210
607 926 436
608 375 833
609 568 225
610 106 594
611 675 986
612 835 632
613 144 83
614 272 373
615 299 740
616 805 641
617 482 600
618 255 448
619 834 470
620 117 696
621 837 469
622 345 585
623 476 565
624 271 417
625 877 492
626 605 578
627 156 613
628 607 721
629 527 358
630 54 581
631 591 478
632 7 37
633 529 997
634 705 436
635 110 166
636 702 173
637 962 671
638 82 75
639 1000 703
640 607 536
641 764 227
642 827 744
643 788 463
644 450 136
645 72 466
646 119 348
647 32 58
648 178 910
649 381 159
650 686 207
651 276 358
652 683 682
653 708 748
654 707 282
655 141 999
656 558 169
657 403 688
658 315 671
659 827 880
660 601 481
661 641 950
662 98 116
663 611 668
664 313 616
665 928 521
666 595 498
667 350 295
668 397 963
669 595 904
670 798 339
671 978 460
672 260 800
673 302 615
674 653 302
675 5 126
676 512 800
677 541 691
678 559 690
679 24 21
680 465 522
681 125 178
682 868 947
683 204 141
684 636 919
685 703 643
686 385 155
687 790 245
688 244 833
689 244 666
690 870 543
691 606 359
692 532 975
693 555 276
694 165 33
695 757 787
696 537 457
697 120 51
698 815 623
699 502 636
700 859 508
701 42 675
702 999 300
703 908 736
704 735 980
705 459 564
706 49 877
707 483 587
708 945 557
709 602 2
710 633 936
711 379 182
712 814 486
713 178 687
714 466 406
715 186 732
716 381 762
717 69 478
718 193 411
719 109 653
720 40 10
721 142 303
722 90 111
723 334 499
724 443 482
725 187 290
726 262 691
727 814 908
728 171 930
729 446 214
730 893 96
731 205 410
732 137 120
733 115 986
734 745 541
735 368 926
736 77 338
DEMAND_SECTION
2 1
3 1
4 1
5 1
6 1
7 1
8 1
9 1
10 1
11 1
12 1
13 1
14 1
15 1
16 1
17 1
18 1
19 1
20 1
21 1
22 1
23 1
24 1
25 1
26 1
27 1
28 1
29 1
30 1
31 1
32 1
33 1
34 1
35 1
36 1
37 1
38 1
39 1
40 1
41 1
42 1
43 1
44 1
45 1
46 1
47 1
48 1
49 1
50 1
51 1
52 1
53 1
54 1
55 1
56 1
57 1
58 1
59 1
60 1
61 1
62 1
63 1
64 1
65 1
66 1
67 1
68 1
69 1
70 1
71 1
72 1
73 1
74 1
75 1
76 1
77 1
78 1
79 1
80 1
81 1
82 1
83 1
84 1
85 1
86 1
87 1
88 1
89 1
90 1
91 1
92 1
93 1
94 1
95 1
96 1
97 1
98 1
99 1
100 1
101 1
102 1
103 1
104 1
105 1
106 1
107 1
108 1
109 1
110 1
111 1
112 1
113 1
114 1
115 1
116 1
117 1
118 1
119 1
120 1
121 1
122 1
123 1
124 1
125 1
126 1
127 1
128 1
129 1
130 1
131 1
132 1
133 1
134 1
135 1
136 1
137 1
138 1
139 1
140 1
141 1
142 1
143 1
144 1
145 1
146 1
147 1
148 1
149 1
150 1
151 1
152 1
153 1
154 1
155 1
156 1
157 1
158 1
159 1
160 1
161 1
COVERAGE_SECTION
2 11 583 143 265 442 33 406 290 178 475 653 594 
3 11 371 59 398 26 411 640 666 83 508 497 281 
4 11 736 47 36 155 520 65 461 471 289 379 525 
5 11 145 307 314 696 263 329 450 360 577 436 170 
6 10 630 134 392 482 58 257 592 131 196 610 
7 10 325 718 60 355 731 369 402 380 400 618 
8 11 113 22 622 664 673 348 200 528 658 190 657 
9 9 615 726 228 383 397 580 658 343 211 
10 10 561 168 42 431 414 546 645 717 454 65 
11 11 438 102 674 443 503 654 50 691 210 300 32 
12 11 647 107 638 197 331 632 722 675 679 220 662 
13 11 38 260 394 412 560 138 202 549 480 457 730 
14 11 376 19 229 98 463 388 266 256 429 372 511 
15 11 190 705 441 680 623 308 515 707 724 617 194 
16 11 415 74 542 676 204 167 92 81 571 462 95 
17 11 601 41 692 285 446 633 95 147 55 604 92 
18 11 464 395 620 193 90 88 432 100 719 547 701 
19 11 376 14 229 429 388 463 511 98 266 140 372 
20 11 237 45 573 341 541 358 460 123 112 166 56 
21 11 690 129 700 498 625 349 136 242 665 115 708 
22 11 8 113 200 348 658 664 622 673 657 528 397 
23 11 401 416 549 560 409 412 138 13 38 354 394 
24 11 693 199 142 486 304 286 494 609 305 323 299 
25 11 207 231 69 505 387 533 621 61 619 506 332 
26 11 508 626 398 640 247 411 3 451 268 83 666 
27 11 421 606 212 389 192 687 566 605 219 439 557 
28 11 292 278 328 447 264 523 140 241 298 321 62 
29 11 185 76 255 449 681 157 426 469 206 362 324 
30 11 301 407 534 119 654 530 417 641 352 184 443 
31 11 224 596 504 708 246 115 126 216 665 498 223 
32 10 691 360 210 318 263 314 50 307 436 5 
33 11 146 517 2 442 364 406 276 583 290 512 542 
34 11 420 474 495 303 62 241 313 563 419 264 476 
35 10 592 526 196 403 610 244 521 455 630 179 
36 11 47 155 461 520 4 342 471 346 122 469 287 
37 10 682 500 477 399 217 302 293 572 254 727 
38 11 13 412 138 560 260 394 202 549 53 433 480 
39 11 322 727 254 172 293 399 659 585 529 572 500 
40 11 430 733 568 70 245 359 562 655 435 213 488 
41 11 17 601 55 692 446 285 604 95 633 92 147 
42 8 10 561 168 431 414 65 546 645 
43 11 538 220 697 720 94 197 296 679 638 694 647 
44 10 370 306 723 624 618 295 163 382 614 402 
45 11 358 688 20 600 368 672 211 158 491 237 334 
46 11 124 484 574 703 111 198 642 543 531 612 91 
47 11 36 155 461 520 4 342 471 346 122 469 287 
48 11 106 422 408 312 151 452 582 267 110 326 532 
49 11 444 238 597 336 375 481 437 468 72 218 656 
50 10 318 691 305 32 674 360 438 11 210 494 
51 11 251 271 483 706 99 576 135 537 544 152 550 
52 11 509 396 677 366 678 310 160 487 512 699 169 
53 11 433 138 412 549 560 554 38 13 260 133 394 
54 11 381 663 282 317 180 678 628 581 160 63 171 
55 11 41 181 661 17 710 601 684 604 611 692 285 
56 11 608 123 385 166 573 118 237 215 112 541 294 
57 11 535 91 637 639 552 127 111 703 335 243 363 
58 11 257 392 131 134 6 630 482 701 226 410 432 
59 11 83 194 707 623 3 448 617 411 499 705 515 
60 9 400 7 325 369 454 546 645 717 718 
61 11 207 25 387 69 231 619 621 533 506 505 570 
62 11 303 420 313 563 474 241 34 264 495 298 419 
63 11 581 171 180 148 663 317 282 54 381 451 319 
64 11 584 648 728 284 496 67 272 591 277 510 359 
65 11 414 736 168 289 4 379 525 646 10 546 454 
66 11 490 428 203 651 614 423 565 149 624 154 731 
67 11 277 272 174 284 648 64 368 584 496 600 728 
68 11 702 518 489 128 85 117 467 120 89 595 182 
69 11 231 621 619 207 25 712 505 61 625 700 387 
70 11 213 40 733 430 562 568 245 655 139 569 222 
71 11 603 644 478 297 177 347 248 405 298 593 311 
72 11 330 437 73 597 476 238 709 444 419 218 49 
73 11 476 437 330 72 419 709 597 495 238 567 444 
74 11 16 204 116 415 676 81 571 310 109 542 167 
75 11 152 135 208 99 576 90 51 88 193 271 339 
76 11 255 469 29 449 122 287 346 681 471 185 157 
77 11 273 667 516 559 173 382 565 445 87 651 250 
78 11 479 205 156 144 341 434 391 358 735 600 20 
79 10 507 472 242 309 734 221 236 377 136 249 
80 11 262 235 453 239 149 234 357 426 206 516 725 
81 11 204 165 590 588 288 74 95 446 16 415 92 
82 11 715 367 713 100 280 547 86 689 726 193 620 
83 11 411 499 59 194 448 319 508 707 699 617 3 
84 11 439 209 530 389 187 465 605 687 670 407 421 
85 11 467 128 117 518 120 404 489 337 595 68 702 
86 10 513 280 164 713 367 227 627 689 175 82 
87 11 445 338 173 350 250 240 273 667 729 77 559 
88 11 576 90 395 135 152 193 271 18 537 464 75 
89 11 182 195 607 548 332 489 533 120 506 505 387 
90 11 193 88 18 464 395 576 152 547 75 135 100 
91 11 535 637 57 111 127 552 639 335 363 703 46 
92 11 604 95 415 669 446 41 17 692 558 16 285 
93 11 551 668 586 427 391 735 156 434 590 288 456 
94 11 697 613 188 378 638 538 694 598 373 159 732 
95 11 92 604 446 692 17 41 285 601 165 415 147 
96 11 315 683 372 429 575 426 98 239 373 598 157 
97 11 589 153 579 711 340 649 686 311 253 593 405 
98 11 256 14 159 372 376 229 429 19 463 683 186 
99 11 135 152 75 208 51 576 339 271 550 251 435 
100 11 715 547 82 193 713 367 344 90 18 280 620 
101 11 440 485 230 522 545 493 345 519 458 214 110 
102 11 438 11 634 503 300 424 443 564 210 320 418 
103 10 459 374 629 323 577 436 258 329 494 150 
104 11 261 635 125 331 324 681 114 662 157 449 722 
105 11 384 609 269 656 468 299 304 275 199 177 347 
106 11 48 422 408 151 326 312 452 532 267 582 110 
107 11 647 632 197 679 12 296 720 220 638 675 331 
108 10 652 685 599 555 274 137 171 653 148 317 
109 10 470 169 183 571 215 310 118 396 191 716 
110 11 582 267 452 312 408 522 422 48 532 151 106 
111 11 91 637 535 363 127 335 57 552 46 124 703 
112 11 492 294 191 56 123 608 385 118 343 237 215 
113 10 8 622 22 664 673 528 190 527 658 163 
114 11 662 722 261 378 331 188 732 598 125 104 635 
115 11 708 504 596 126 246 665 216 224 129 31 498 
116 11 215 385 166 608 118 56 456 123 74 541 204 
117 11 595 467 404 225 85 128 702 566 518 337 133 
118 11 215 191 294 385 608 56 123 492 112 716 470 
119 11 534 301 417 30 650 184 407 641 654 352 636 
120 10 128 489 337 85 473 506 518 89 467 570 
121 6 351 243 283 639 703 57 
122 11 346 471 469 287 255 342 76 36 47 155 232 
123 11 56 608 385 166 573 237 541 112 118 492 215 
124 11 198 46 612 531 161 543 111 616 698 574 363 
125 11 331 104 261 722 114 662 635 232 316 324 675 
126 11 246 216 504 708 115 224 596 31 335 363 665 
127 11 552 637 535 91 57 335 639 111 363 216 246 
128 11 120 489 85 518 467 337 89 117 68 404 473 
129 11 21 690 498 665 115 700 708 625 596 504 349 
130 11 201 660 356 631 497 268 564 666 320 300 553 
131 11 257 58 425 701 392 134 432 719 630 6 410 
132 11 642 536 484 539 574 393 501 502 695 514 162 
133 10 386 557 225 219 260 595 554 566 38 13 
134 11 6 630 392 58 257 482 131 610 592 425 35 
135 11 152 99 75 576 208 51 271 88 90 251 339 
136 11 349 242 249 700 712 507 690 79 21 619 621 
137 10 555 393 543 161 108 616 531 279 574 556 
138 11 412 560 549 38 53 13 433 260 394 202 554 
139 11 569 222 213 70 706 550 245 40 339 251 483 
140 11 523 511 328 278 19 28 292 388 376 266 14 
141 9 643 712 249 252 619 621 418 507 69 
142 11 486 24 286 323 199 494 693 459 304 338 350 
143 11 583 265 594 2 602 578 695 529 178 501 442 
144 11 479 78 584 64 600 67 277 358 205 591 272 
145 11 5 696 307 314 329 450 577 263 170 360 436 
146 11 517 276 364 542 33 167 462 487 512 676 160 
147 11 633 285 692 601 446 588 17 165 288 41 95 
148 11 63 171 581 180 451 663 317 599 282 685 652 
149 11 262 80 235 453 428 357 423 239 206 234 66 
150 11 365 714 291 258 374 329 103 189 577 445 459 
151 11 326 532 408 413 452 106 48 218 267 582 110 
152 11 135 75 99 208 576 51 88 271 90 251 339 
153 11 97 589 579 711 340 311 649 686 593 405 729 
154 11 725 423 362 721 357 206 428 203 333 540 646 
155 11 47 36 461 520 342 4 471 346 122 232 287 
156 11 78 735 341 434 391 551 427 93 205 479 668 
157 11 681 324 449 635 575 104 255 261 29 732 76 
158 11 334 491 368 174 344 688 272 600 277 67 284 
159 11 256 98 613 373 694 598 94 186 732 372 229 
160 11 512 628 678 381 54 364 677 276 282 487 517 
161 11 531 616 543 698 612 198 236 137 279 574 124 
162 11 556 501 475 695 653 536 265 602 406 393 132 
163 8 295 723 306 527 622 44 113 190 
164 8 627 513 86 227 179 713 280 455 
165 11 588 81 288 446 590 147 692 95 285 204 633 
166 11 541 573 123 56 608 460 385 237 456 116 118 
167 11 462 487 542 676 276 146 310 517 364 571 16 
168 11 414 10 546 65 561 42 454 289 645 736 431 
169 9 470 183 109 366 396 571 310 716 466 
170 11 281 696 329 724 145 258 291 308 515 714 5 
171 11 63 581 148 180 317 663 282 54 381 652 599 
172 10 727 659 254 39 572 322 477 500 399 293 
173 11 273 445 87 77 667 338 250 559 350 240 516 
174 11 277 272 67 368 284 158 600 648 334 64 491 
175 9 689 227 383 513 726 280 86 528 673 
176 8 409 354 416 730 480 23 394 401 
177 11 603 478 71 347 248 656 567 468 269 275 644 
178 10 529 583 585 143 684 2 594 710 290 661 
179 8 455 627 526 610 244 164 425 35 
180 11 581 63 663 171 317 54 148 381 282 319 678 
181 10 611 661 55 710 684 41 704 17 585 669 
182 11 89 195 607 548 332 533 223 505 270 489 506 
183 9 470 716 169 466 109 191 294 118 215 
184 11 417 650 119 534 301 636 481 30 654 336 674 
185 11 29 206 426 357 362 76 725 255 449 469 721 
186 11 256 229 463 266 388 694 159 14 98 376 511 
187 9 465 209 605 84 670 439 524 337 587 
188 11 378 613 732 114 662 598 94 722 373 638 697 
189 11 291 365 724 150 714 258 308 170 44 329 441 
190 11 15 441 705 680 113 308 622 623 724 8 515 
191 11 294 118 716 492 215 466 112 183 385 470 608 
192 10 212 606 27 421 493 345 219 352 641 687 
193 11 90 18 464 100 547 88 395 620 715 75 152 
194 11 448 617 707 59 623 83 699 499 705 411 319 
195 11 182 607 89 332 548 223 270 671 533 505 489 
196 6 403 521 592 717 35 645 
197 11 679 107 632 647 720 296 220 12 638 43 538 
198 11 612 531 124 698 616 161 543 236 472 46 574 
199 11 304 24 142 299 693 275 269 486 609 105 286 
200 6 348 657 22 397 8 466 
201 11 268 666 497 660 130 631 640 247 398 553 371 
202 8 394 480 457 730 354 13 260 38 
203 11 490 66 428 423 651 614 154 731 565 718 149 
204 11 81 74 590 165 16 116 415 456 588 288 95 
205 11 479 78 434 144 156 391 341 551 584 591 64 
206 11 357 725 185 362 426 154 29 149 721 80 423 
207 11 25 231 69 621 505 619 61 387 533 506 625 
208 11 75 99 152 135 339 435 550 51 576 158 334 
209 9 84 187 465 439 605 670 389 530 524 
210 11 32 300 691 263 360 564 314 307 318 50 130 
211 11 672 580 688 228 343 615 45 9 491 344 334 
212 10 192 421 27 606 687 352 389 641 345 219 
213 11 70 733 139 40 430 569 222 562 245 655 568 
214 9 458 545 636 345 440 522 101 485 336 
215 11 118 385 191 608 294 56 116 123 470 109 183 
216 11 126 246 335 504 708 363 115 224 596 31 127 
217 5 302 682 37 477 500 
218 10 413 375 532 326 151 238 444 408 452 72 
219 9 557 386 606 133 192 27 212 566 493 
220 11 43 538 720 197 679 638 647 697 296 107 12 
221 8 361 377 309 734 79 279 274 507 
222 11 569 139 706 550 245 213 339 70 51 251 483 
223 11 270 671 195 607 182 332 665 89 548 498 31 
224 11 31 504 596 246 126 708 115 216 665 335 363 
225 11 595 117 404 133 566 467 557 554 85 386 219 
226 11 410 701 432 257 58 131 392 395 134 482 6 
227 5 513 175 164 86 689 
228 8 343 615 9 580 397 211 492 112 
229 11 463 388 266 14 376 186 256 511 98 19 159 
230 7 519 485 101 493 440 522 545 
231 11 69 621 207 619 25 505 625 712 61 533 700 
232 11 342 287 346 390 316 104 125 122 471 461 635 
233 11 729 593 405 275 347 240 299 153 350 297 589 
234 11 453 235 262 80 239 353 253 149 516 559 667 
235 11 262 80 453 234 239 149 426 516 353 357 206 
236 9 472 698 616 279 612 531 79 161 198 
237 11 573 541 123 20 166 56 460 608 112 385 492 
238 11 444 597 49 375 72 437 218 336 330 73 413 
239 11 453 80 235 234 262 426 315 149 96 357 206 
240 11 250 729 350 87 233 589 97 579 153 593 338 
241 11 474 420 62 264 303 34 313 563 28 495 447 
242 11 136 349 79 249 690 700 507 21 712 472 236 
243 10 703 351 283 57 121 535 91 539 639 46 
244 6 455 179 526 35 627 610 
245 11 435 339 550 40 359 568 70 430 496 728 733 
246 11 126 216 504 224 708 115 596 31 335 363 665 
247 11 640 398 268 26 201 626 553 508 666 451 497 
248 11 478 567 603 177 563 71 313 419 303 644 62 
249 8 507 712 141 136 252 349 242 643 
250 11 240 87 579 589 350 729 97 173 153 253 338 
251 11 483 271 51 544 537 706 576 327 135 99 152 
252 3 141 507 249 
253 11 353 579 711 340 589 97 153 234 250 649 559 
254 10 727 172 39 659 572 399 322 500 477 293 
255 11 76 469 449 29 287 122 681 346 157 471 635 
256 11 159 98 186 229 694 463 14 266 388 376 613 
257 11 58 131 392 134 701 6 630 410 432 226 482 
258 11 714 329 365 150 291 374 577 103 170 145 5 
259 11 321 649 686 340 711 353 19 292 311 429 447 
260 10 13 38 386 202 394 412 138 457 133 480 
261 11 114 104 662 331 125 722 635 324 378 732 681 
262 11 80 235 453 149 234 239 357 516 206 426 428 
263 11 307 314 360 5 32 210 145 450 631 696 660 
264 11 241 447 62 298 28 292 313 303 420 563 474 
265 11 143 475 695 442 501 583 602 162 406 653 2 
266 11 388 463 229 186 511 14 376 256 19 98 140 
267 11 452 582 110 408 312 522 532 151 48 326 422 
268 10 201 247 553 640 398 666 130 497 660 356 
269 11 299 275 105 304 384 347 656 609 468 199 177 
270 11 671 223 195 607 182 89 332 548 665 31 498 
271 11 251 51 537 483 576 544 135 706 99 88 152 
272 11 67 284 277 174 648 64 496 368 584 728 158 
273 11 173 77 667 445 559 87 516 250 338 382 240 
274 8 599 685 555 108 279 221 652 361 
275 11 299 269 347 304 233 199 105 593 729 405 177 
276 11 487 462 364 517 167 146 512 542 676 160 33 
277 11 67 272 174 284 368 648 64 600 584 496 158 
278 11 328 28 523 292 140 264 447 241 511 298 474 
279 9 236 555 616 472 221 698 161 274 531 
280 11 367 86 713 82 689 513 175 726 715 383 164 
281 11 170 696 515 450 308 680 371 145 724 3 5 
282 11 317 381 663 54 628 180 171 63 581 160 148 
283 10 539 514 351 243 703 484 642 132 502 46 
284 11 648 272 496 67 277 64 174 728 584 359 368 
285 11 692 601 633 147 446 17 41 588 95 165 604 
286 10 494 486 305 323 142 693 24 459 629 436 
287 11 346 122 232 255 342 469 471 76 104 449 635 
288 11 588 590 165 586 147 668 81 427 93 285 633 
289 10 379 525 646 736 540 333 65 414 454 168 
290 11 558 669 684 710 2 661 604 33 178 583 92 
291 11 365 714 150 258 189 329 170 724 374 308 577 
292 11 28 447 278 264 328 298 321 523 140 241 259 
293 11 399 322 39 254 727 585 37 704 172 500 477 
294 11 191 118 492 112 716 215 385 56 466 608 123 
295 8 723 163 306 44 622 527 190 370 
296 11 679 720 197 632 107 647 220 43 12 538 638 
297 11 644 71 311 405 593 603 347 298 153 686 478 
298 11 447 264 644 563 313 297 292 62 71 303 311 
299 11 269 275 304 347 105 199 609 384 233 656 468 
300 10 564 320 210 634 356 130 102 32 263 438 
301 11 534 119 30 417 641 407 352 650 184 654 530 
302 5 217 682 37 477 500 
303 11 62 313 563 420 34 474 241 495 264 419 248 
304 11 199 299 269 24 275 609 693 105 142 486 384 
305 10 494 286 318 50 693 486 691 24 436 629 
306 9 370 618 44 380 402 355 723 624 163 
307 11 314 263 5 145 360 450 696 32 631 210 436 
308 11 724 441 680 515 15 170 281 705 190 623 291 
309 6 734 377 361 507 221 79 
310 11 571 676 396 109 462 167 487 169 52 276 542 
311 11 686 649 297 153 644 97 340 711 589 405 579 
312 11 110 582 422 267 452 48 408 106 522 151 532 
313 11 563 303 62 420 34 248 264 298 241 474 495 
314 11 307 263 5 360 145 32 450 436 696 210 577 
315 11 96 683 372 426 429 239 575 453 98 185 80 
316 11 390 675 232 125 331 104 342 261 12 287 722 
317 11 282 663 381 171 54 180 63 581 628 148 652 
318 10 691 50 305 32 360 436 494 286 629 210 
319 11 499 411 83 180 678 54 581 663 677 381 699 
320 5 564 356 634 300 130 
321 11 259 686 649 447 292 311 340 711 298 28 153 
322 11 39 293 399 585 727 254 172 529 704 659 500 
323 10 459 486 103 286 494 629 142 374 436 577 
324 11 157 681 635 449 575 104 261 732 598 114 662 
325 10 7 718 731 369 355 60 402 400 380 618 
326 11 151 532 408 413 218 452 106 48 267 582 110 
327 11 537 544 483 271 251 576 51 88 706 395 135 
328 11 278 523 28 140 292 264 447 241 511 474 298 
329 11 258 714 577 145 5 374 170 365 291 103 150 
330 11 72 73 476 709 437 597 238 419 444 218 495 
331 11 722 125 261 662 114 104 378 638 12 188 635 
332 11 548 607 505 195 182 533 89 387 506 25 207 
333 10 540 646 379 525 289 369 721 736 154 454 
334 11 491 158 368 344 688 174 600 272 277 67 672 
335 11 363 216 127 246 637 126 552 111 91 535 224 
336 9 481 375 49 636 444 238 214 650 413 
337 9 473 120 570 467 187 465 128 404 85 
338 11 350 87 445 173 142 240 250 323 486 199 273 
339 11 550 435 245 99 208 706 51 40 359 496 135 
340 11 711 579 649 97 589 153 686 311 253 353 321 
341 11 460 156 735 541 20 78 573 237 166 456 358 
342 11 232 346 287 36 122 155 461 47 471 469 390 
343 8 228 615 492 112 211 294 9 466 
344 11 491 334 158 547 688 368 100 672 75 208 715 
345 10 458 440 485 214 493 545 101 192 212 352 
346 11 122 471 287 469 342 255 232 36 76 47 155 
347 11 275 299 177 603 71 405 269 233 593 297 644 
348 6 200 657 22 397 8 366 
349 11 136 242 700 249 712 690 21 619 79 507 621 
350 11 338 87 240 445 250 142 729 233 173 199 486 
351 6 243 283 121 539 514 703 
352 11 641 687 407 212 301 421 534 530 30 119 389 
353 11 253 340 711 234 579 589 97 649 153 453 686 
354 6 480 730 394 202 457 13 
355 10 402 380 618 7 325 370 731 718 306 624 
356 6 320 564 130 553 268 300 
357 11 206 725 185 362 154 426 149 80 423 29 721 
358 11 600 45 368 688 20 144 277 174 67 158 272 
359 11 728 510 496 568 591 648 584 64 435 40 284 
360 10 32 314 436 263 307 318 691 5 629 145 
361 5 377 221 309 734 79 
362 11 721 725 206 154 357 185 29 76 469 423 525 
363 11 335 216 111 126 246 637 127 91 115 708 504 
364 11 517 276 512 146 487 462 160 628 33 167 542 
365 11 291 714 150 258 189 329 374 170 103 577 724 
366 9 169 52 396 657 509 348 470 183 200 
367 11 280 82 713 86 715 689 513 726 100 383 175 
368 11 174 158 600 334 277 491 67 272 688 358 284 
369 10 400 325 718 60 454 540 7 333 731 289 
370 10 618 624 306 44 402 355 380 614 731 723 
371 11 666 497 631 3 450 660 398 696 201 640 281 
372 11 429 683 98 96 315 376 14 19 159 256 373 
373 11 598 732 613 575 188 159 378 94 683 114 662 
374 11 103 258 459 577 150 714 329 629 323 365 291 
375 10 218 444 413 238 336 49 532 597 326 481 
376 11 14 19 229 98 463 388 429 266 372 256 511 
377 6 309 734 361 221 507 79 
378 11 188 662 114 722 613 732 94 638 598 697 261 
379 10 525 646 289 540 333 736 721 65 414 369 
380 8 402 355 618 306 370 7 325 624 
381 11 54 663 282 317 628 180 678 160 581 63 171 
382 11 565 77 651 614 516 624 44 66 273 667 490 
383 11 726 689 9 175 658 280 367 615 397 673 528 
384 11 105 468 656 609 269 299 304 275 177 199 347 
385 11 608 56 123 118 215 166 294 573 191 112 116 
386 8 133 557 219 260 457 202 13 394 
387 11 533 506 505 25 207 548 61 332 231 69 570 
388 11 266 463 229 511 14 186 376 19 256 98 140 
389 11 687 421 439 27 84 605 212 209 530 606 352 
390 11 316 232 675 342 125 287 461 104 331 346 155 
391 11 434 551 93 156 205 427 668 586 78 735 479 
392 11 58 134 6 257 630 482 131 610 701 226 425 
393 11 574 137 543 642 536 132 161 484 531 162 556 
394 9 202 480 730 354 457 13 38 260 560 
395 11 464 18 88 90 432 620 193 410 701 576 719 
396 11 310 52 571 169 366 109 676 487 462 509 167 
397 8 658 9 615 228 200 343 466 348 
398 11 640 247 26 626 508 268 666 201 497 3 371 
399 11 293 322 39 254 727 37 500 477 172 572 682 
400 10 454 60 369 546 7 325 645 289 414 540 
401 10 23 416 409 549 560 176 412 138 354 13 
402 9 355 380 618 370 7 306 325 731 624 
403 6 196 521 592 717 35 645 
404 10 467 117 225 566 595 85 337 605 128 187 
405 11 593 233 729 297 347 153 311 644 97 589 71 
406 11 442 653 475 265 556 2 33 162 583 501 143 
407 11 530 30 641 352 301 687 439 534 654 84 119 
408 11 151 452 267 326 48 532 582 106 110 312 422 
409 8 176 354 416 23 730 480 401 394 
410 11 701 432 226 257 131 58 395 464 392 18 719 
411 11 83 508 499 26 626 319 59 3 398 194 640 
412 11 138 560 38 549 13 53 433 260 394 202 416 
413 9 532 218 326 151 375 452 408 267 522 
414 10 168 65 546 10 454 289 561 736 42 379 
415 11 16 92 604 95 74 669 542 204 81 558 446 
416 11 23 401 560 549 354 13 394 409 38 412 138 
417 11 184 650 119 534 301 30 636 654 481 407 641 
418 8 424 643 141 634 252 61 712 102 
419 11 495 476 73 567 437 248 34 303 313 563 72 
420 11 474 62 34 241 303 313 563 495 264 419 298 
421 11 27 389 212 687 606 192 352 439 641 605 566 
422 11 48 312 106 408 582 110 267 452 151 326 532 
423 11 428 203 154 66 490 725 149 357 651 614 206 
424 9 418 634 102 643 141 252 320 61 503 
425 11 719 610 131 627 179 526 620 257 164 58 630 
426 11 185 206 239 357 315 29 96 80 453 235 262 
427 11 668 93 586 551 735 156 590 456 391 288 460 
428 11 66 203 490 423 651 614 149 565 154 725 357 
429 11 372 376 98 14 19 96 683 315 229 256 159 
430 11 733 562 40 568 655 70 488 359 213 245 510 
431 6 561 10 42 645 717 521 
432 11 701 410 131 226 395 257 464 719 58 620 18 
433 11 53 138 412 554 549 560 38 13 260 133 394 
434 11 391 156 551 205 93 78 479 427 668 735 586 
435 11 339 245 550 359 496 648 728 40 208 284 99 
436 10 629 577 360 459 494 103 5 318 314 323 
437 11 72 73 597 476 330 238 419 444 567 709 49 
438 11 11 102 674 443 503 50 654 691 210 300 32 
439 11 84 389 209 530 687 407 605 421 187 465 641 
440 10 101 485 545 345 493 458 522 214 230 519 
441 11 680 308 515 15 724 705 190 623 281 170 707 
442 11 406 653 265 475 2 33 556 583 143 162 501 
443 11 503 654 11 438 102 530 30 407 674 670 84 
444 10 238 49 597 375 336 72 218 437 481 330 
445 11 87 173 338 273 350 250 374 150 240 103 77 
446 11 692 285 17 95 601 147 633 41 588 165 604 
447 11 292 298 264 28 321 278 241 313 563 62 328 
448 11 194 617 707 699 623 59 83 499 705 411 319 
449 11 681 157 324 635 255 76 29 104 287 575 261 
450 11 696 631 371 307 145 497 5 660 263 314 666 
451 10 626 148 247 26 508 63 581 640 553 171 
452 11 267 110 582 408 532 312 151 522 326 48 413 
453 11 235 239 80 234 262 149 426 353 315 357 206 
454 10 546 400 414 168 369 60 289 645 10 540 
455 7 244 179 526 627 610 35 164 
456 11 460 166 735 541 573 116 427 123 608 56 590 
457 8 202 480 730 394 354 260 386 13 
458 9 214 345 545 440 636 101 485 522 493 
459 10 103 323 629 374 577 494 436 286 486 142 
460 11 541 573 166 456 237 341 735 123 56 608 385 
461 11 155 47 36 520 342 4 346 471 122 232 287 
462 11 487 167 276 676 542 146 364 517 310 512 571 
463 11 266 388 229 186 14 511 376 256 19 98 159 
464 11 18 395 620 193 90 88 432 719 100 701 410 
465 9 187 209 670 605 84 524 587 473 439 
466 7 716 191 183 294 470 492 118 
467 11 85 404 117 128 337 595 120 225 518 566 489 
468 11 656 384 105 269 177 609 299 49 275 347 603 
469 11 122 471 76 255 346 287 29 342 449 362 36 
470 9 183 109 169 716 191 466 118 215 294 
471 11 122 346 469 36 287 47 342 76 255 155 4 
472 10 236 698 79 616 612 279 531 198 161 242 
473 9 570 337 524 587 506 120 465 187 387 
474 11 420 241 34 62 303 495 313 264 563 419 298 
475 11 653 556 162 406 265 501 442 695 602 536 143 
476 11 73 330 437 72 419 709 495 597 567 238 34 
477 9 500 572 682 254 37 727 399 302 172 
478 11 603 248 71 177 567 644 563 313 347 297 298 
479 11 205 78 144 434 156 391 341 584 358 64 591 
480 7 730 202 457 394 354 13 260 
481 9 336 636 650 184 49 417 375 444 214 
482 8 392 6 134 630 58 257 131 196 
483 11 251 544 537 271 51 706 327 576 135 99 88 
484 11 642 574 132 46 539 393 703 536 283 543 124 
485 10 101 440 493 230 345 519 545 522 458 192 
486 10 142 286 494 323 24 693 459 199 305 629 
487 11 462 276 167 364 512 676 517 542 146 310 160 
488 11 655 562 568 430 733 510 591 40 359 728 70 
489 11 518 128 120 89 85 182 68 195 548 467 607 
490 11 66 203 428 651 614 423 565 624 149 731 154 
491 11 334 158 344 368 688 174 600 272 277 672 67 
492 11 112 294 191 56 118 123 343 608 385 716 466 
493 8 485 519 440 101 230 345 192 212 
494 10 286 486 305 323 629 459 142 693 436 24 
495 11 34 419 303 420 62 474 313 476 563 73 567 
496 11 648 728 284 64 359 272 584 67 510 277 435 
497 11 666 660 631 201 371 130 450 268 640 398 247 
498 11 665 129 625 21 690 115 700 596 708 504 223 
499 11 83 319 411 699 194 448 59 617 508 509 707 
500 9 477 682 572 37 254 727 399 302 172 
501 11 695 162 536 602 556 475 265 653 578 132 143 
502 11 578 514 602 539 594 659 132 536 695 501 172 
503 11 443 11 102 654 438 670 530 407 84 30 209 
504 11 708 596 115 126 246 224 31 216 665 129 498 
505 11 533 25 387 332 207 548 231 506 69 607 621 
506 11 387 533 548 505 570 473 25 332 120 207 61 
507 7 249 734 309 79 252 377 136 
508 11 626 26 411 398 640 247 83 451 3 499 319 
509 11 677 52 678 699 319 366 499 160 396 54 381 
510 11 591 728 359 584 64 568 496 648 488 284 655 
511 11 388 266 140 463 229 19 523 14 376 186 256 
512 11 160 364 276 628 487 517 462 678 146 381 677 
513 9 86 164 227 175 280 627 689 713 367 
514 9 539 502 283 659 132 172 578 642 351 
515 11 680 308 441 281 724 623 705 15 170 59 707 
516 11 667 559 77 565 273 262 382 234 235 149 651 
517 11 364 146 276 512 33 487 462 167 542 160 628 
518 11 489 128 68 85 120 702 89 467 182 117 195 
519 7 230 493 485 101 440 457 730 
520 11 461 155 47 36 4 342 471 346 736 65 122 
521 6 403 717 196 645 592 35 
522 10 545 101 267 110 452 440 582 214 485 458 
523 11 140 328 278 28 511 292 19 388 266 447 376 
524 9 587 670 570 465 473 187 209 61 337 
525 10 379 646 289 333 540 736 721 65 414 4 
526 10 610 179 455 35 244 592 627 425 630 6 
527 6 528 673 664 622 163 113 
528 9 673 664 527 622 175 113 658 22 8 
529 10 178 585 594 322 39 143 583 578 172 727 
530 11 407 439 84 687 30 641 352 389 209 301 654 
531 11 161 616 543 612 698 198 236 124 472 279 574 
532 11 326 151 413 408 218 452 267 582 110 48 106 
533 11 387 505 506 548 25 332 207 231 607 61 69 
534 11 301 119 30 417 650 184 407 641 352 654 530 
535 11 91 57 637 127 111 552 639 335 703 363 243 
536 11 132 501 695 162 642 393 602 556 502 484 574 
537 11 271 483 544 251 327 576 51 88 706 135 152 
538 11 43 220 697 94 638 694 720 613 378 188 197 
539 10 283 514 132 484 642 502 703 536 351 243 
540 10 333 646 379 525 289 369 721 736 154 454 
541 11 573 460 166 237 123 56 608 456 385 341 20 
542 11 167 462 146 276 676 487 517 16 364 415 310 
543 11 161 531 616 574 393 137 198 612 698 124 236 
544 11 483 251 537 271 327 51 706 576 222 88 135 
545 9 522 214 440 458 101 345 485 267 452 
546 10 454 168 414 400 645 10 561 717 289 65 
547 11 100 715 344 193 82 90 491 334 75 18 713 
548 11 332 607 533 182 89 505 195 387 506 25 207 
549 11 560 138 412 53 38 433 13 416 23 260 394 
550 11 339 245 435 706 51 99 222 208 40 135 251 
551 11 93 668 427 586 391 156 434 735 590 341 288 
552 11 127 637 57 535 639 91 335 111 363 216 246 
553 6 268 247 201 356 640 130 
554 11 433 53 133 138 260 595 412 225 38 386 13 
555 8 274 137 279 685 108 599 616 161 
556 11 162 475 653 501 695 265 406 536 442 602 137 
557 9 219 386 606 133 27 192 566 212 225 
558 11 290 669 684 710 604 92 661 415 95 41 178 
559 11 667 516 77 273 173 250 253 565 234 353 87 
560 11 412 549 138 38 13 53 416 433 260 394 202 
561 8 10 431 168 42 546 645 414 717 
562 11 655 488 430 733 568 40 70 510 359 591 728 
563 11 313 303 62 420 248 298 264 34 241 474 478 
564 6 320 300 356 634 130 210 
565 11 651 516 382 614 66 490 77 428 667 203 149 
566 11 404 605 27 606 225 389 421 557 595 219 467 
567 11 248 478 419 177 603 437 563 313 71 73 495 
568 11 430 40 359 562 733 655 488 510 591 728 245 
569 11 139 222 213 706 70 550 245 40 339 251 483 
570 9 473 524 587 506 337 387 465 670 61 
571 11 310 676 396 109 167 462 169 487 74 470 542 
572 8 477 500 682 254 727 659 172 37 
573 11 541 237 166 460 123 56 608 385 20 456 341 
574 11 393 484 642 543 132 46 161 531 124 536 137 
575 11 324 157 598 373 732 683 681 449 635 96 315 
576 11 88 135 271 152 51 537 99 251 75 483 90 
577 10 629 436 103 329 459 374 258 5 145 323 
578 11 594 602 502 695 143 501 265 536 172 529 659 
579 11 589 97 153 711 340 253 649 686 311 353 240 
580 11 211 672 615 228 9 343 688 726 344 715 491 
581 11 63 180 171 663 148 317 54 282 381 319 451 
582 11 110 267 452 312 408 522 422 48 532 151 106 
583 11 2 143 265 178 442 594 529 33 602 406 290 
584 11 64 728 591 648 510 496 284 67 359 272 277 
585 10 704 322 529 39 293 178 399 611 727 254 
586 11 668 93 427 551 288 590 735 391 156 456 588 
587 9 524 670 570 465 473 187 209 61 337 
588 11 165 288 147 446 285 692 81 590 633 601 95 
589 11 97 153 579 711 340 649 686 311 253 593 240 
590 11 81 288 165 204 588 586 668 427 456 93 735 
591 11 510 584 728 64 359 568 648 496 488 284 67 
592 9 35 196 403 521 526 630 6 610 717 
593 11 405 729 233 153 297 347 97 589 311 275 240 
594 11 578 602 143 529 502 695 265 583 501 172 178 
595 11 225 117 404 467 133 85 566 554 702 557 386 
596 11 504 708 115 224 31 126 246 665 216 498 129 
597 11 238 437 72 444 49 73 330 476 375 218 567 
598 11 732 373 188 613 378 575 114 662 324 722 94 
599 8 685 274 108 555 652 148 171 221 
600 11 358 368 277 174 45 67 688 158 272 144 334 
601 11 285 17 692 633 446 147 41 95 588 55 604 
602 11 695 578 501 594 265 143 502 162 536 475 556 
603 11 71 478 177 248 347 644 297 567 405 275 656 
604 11 92 95 669 41 446 415 17 692 558 285 601 
605 10 187 209 389 465 566 84 439 27 421 404 
606 10 27 212 192 421 219 557 566 389 687 493 
607 11 195 182 332 548 89 505 533 223 270 671 387 
608 11 56 123 385 166 118 573 215 237 112 294 541 
609 11 105 384 269 304 693 299 24 199 468 656 275 
610 10 526 425 179 35 627 630 455 592 719 134 
611 10 181 661 704 710 55 585 684 178 41 529 
612 11 198 698 531 616 161 124 236 472 543 279 46 
613 11 94 188 373 598 378 159 732 697 694 114 662 
614 11 651 66 490 203 624 565 428 382 423 370 618 
615 8 228 9 343 397 580 211 726 383 
616 10 161 531 698 612 543 236 198 472 279 137 
617 11 448 707 194 623 699 705 59 83 499 15 680 
618 10 370 402 355 624 306 380 44 731 718 325 
619 11 621 69 231 712 207 25 700 141 643 625 61 
620 11 464 18 719 395 193 713 432 425 90 100 82 
621 11 619 69 231 207 712 25 700 625 61 643 141 
622 9 113 8 664 527 673 528 22 163 190 
623 11 705 707 617 194 59 448 680 15 515 441 83 
624 11 370 618 614 44 651 306 355 402 731 490 66 
625 11 700 498 231 69 21 621 619 505 690 129 25 
626 11 508 26 398 247 451 640 411 148 83 581 268 
627 10 164 179 455 513 86 425 610 526 227 719 
628 11 160 282 381 512 54 317 364 663 678 517 180 
629 10 436 459 577 103 323 494 286 374 360 486 
630 11 6 134 392 58 482 257 592 610 131 35 196 
631 11 660 497 666 371 201 450 130 268 263 307 696 
632 11 107 197 679 647 296 720 12 220 638 675 43 
633 11 285 147 601 692 17 446 41 588 95 165 288 
634 7 320 564 424 300 356 418 102 
635 11 324 681 157 104 449 261 125 114 662 732 575 
636 9 650 214 481 458 336 184 417 119 534 
637 11 127 535 91 552 57 111 335 639 363 216 703 
638 11 378 722 12 188 662 697 94 114 331 220 647 
639 11 57 552 127 535 637 91 111 335 243 703 363 
640 11 398 247 26 268 201 666 626 508 497 371 553 
641 11 352 687 407 301 212 534 421 530 30 119 389 
642 11 132 484 574 536 393 539 46 543 501 502 283 
643 10 141 712 418 249 252 619 621 69 61 231 
644 11 297 71 311 603 405 298 478 347 593 177 686 
645 9 717 521 546 403 561 10 196 454 431 
646 10 525 379 333 540 289 736 721 65 369 154 
647 11 107 197 12 632 679 720 296 220 638 675 331 
648 11 284 496 64 728 272 584 67 277 359 174 510 
649 11 686 340 711 311 153 97 579 589 321 259 253 
650 10 184 417 119 636 534 301 481 30 336 214 
651 11 614 66 490 565 428 203 382 624 423 516 149 
652 11 108 685 599 171 317 274 282 148 555 63 653 
653 11 475 556 406 162 442 265 501 695 652 108 536 
654 11 30 443 407 534 119 301 530 503 674 417 11 
655 11 562 488 430 733 568 40 510 591 70 359 728 
656 11 468 384 105 269 177 299 609 275 347 603 49 
657 6 348 200 366 22 466 169 
658 10 397 383 22 664 9 673 726 528 200 615 
659 9 172 727 254 572 39 502 477 500 514 
660 11 631 497 666 201 130 371 268 450 640 398 247 
661 10 710 684 181 55 611 669 558 41 290 178 
662 11 114 722 261 378 331 188 732 125 638 598 104 
663 11 180 54 317 381 581 282 63 171 148 628 678 
664 10 673 528 527 622 113 22 658 8 175 383 
665 11 498 115 596 129 708 504 21 31 625 690 224 
666 11 497 660 631 201 371 640 268 398 130 247 450 
667 11 559 516 77 273 173 565 250 87 253 382 234 
668 11 427 586 93 551 735 590 288 156 391 456 434 
669 11 558 290 604 684 92 710 95 415 661 41 55 
670 9 524 587 465 209 187 84 570 473 439 
671 11 270 223 195 607 182 89 332 665 548 31 498 
672 11 211 580 688 45 491 228 334 343 344 158 615 
673 10 528 664 527 622 658 113 22 175 8 383 
674 11 11 438 50 654 443 691 318 305 30 417 184 
675 11 316 390 12 125 331 647 107 232 722 104 261 
676 11 167 310 571 462 487 542 276 16 396 74 109 
677 11 678 509 52 160 54 381 319 512 699 499 628 
678 11 677 160 54 381 509 319 512 52 663 628 282 
679 11 197 296 720 632 107 647 220 12 43 638 538 
680 11 515 441 308 705 15 623 724 281 190 707 170 
681 11 157 449 324 635 104 255 575 76 261 29 287 
682 7 477 500 572 37 302 217 254 
683 11 96 372 315 575 429 373 98 598 159 732 426 
684 10 710 661 558 290 669 55 181 178 604 611 
685 8 599 274 108 555 652 148 279 171 
686 11 649 340 311 711 153 97 321 589 579 259 297 
687 11 389 421 439 352 641 212 530 27 407 84 606 
688 11 45 672 491 334 368 158 600 358 211 344 174 
689 11 175 383 726 280 367 86 513 227 713 9 82 
690 11 21 129 700 349 242 498 136 625 665 115 708 
691 10 318 32 50 360 210 305 436 263 314 438 
692 11 285 446 601 17 633 147 41 95 588 165 604 
693 10 24 286 486 199 305 142 494 304 609 323 
694 11 186 256 159 697 94 613 538 229 98 463 266 
695 11 501 602 162 536 265 556 578 475 594 143 502 
696 11 450 145 5 281 170 307 371 314 263 631 329 
697 11 94 538 613 188 638 378 694 220 43 722 159 
698 10 236 616 612 472 531 198 161 279 543 124 
699 11 448 194 617 499 509 707 83 319 677 59 52 
700 11 625 21 349 690 136 619 621 231 69 129 242 
701 11 432 410 226 131 257 58 395 719 392 464 425 
702 11 68 518 117 85 128 489 595 467 225 404 554 
703 10 243 46 283 484 91 535 57 111 539 642 
704 10 585 611 293 322 399 39 181 529 178 661 
705 11 623 15 707 680 617 441 194 448 515 190 59 
706 11 51 251 483 222 550 271 544 339 537 569 99 
707 11 617 194 448 623 705 59 699 83 15 499 680 
708 11 504 115 596 126 246 224 31 216 665 129 498 
709 11 330 476 73 72 437 419 597 495 238 218 326 
710 10 661 684 669 558 55 181 290 611 41 604 
711 11 340 579 97 589 649 153 686 253 311 353 321 
712 11 619 621 141 249 643 69 136 231 349 700 242 
713 11 367 280 82 86 715 100 513 164 620 689 627 
714 11 258 365 291 150 329 374 577 170 103 189 145 
715 11 100 82 547 367 713 280 193 344 86 620 90 
716 8 466 191 183 294 470 118 492 215 
717 8 645 521 403 196 561 546 431 10 
718 10 731 325 7 369 355 402 203 60 618 400 
719 11 425 620 131 610 627 432 464 164 701 179 18 
720 11 296 679 197 220 632 107 647 43 538 12 638 
721 11 362 154 725 525 646 333 379 540 206 357 469 
722 11 662 114 331 378 261 188 638 125 732 104 598 
723 8 295 163 44 306 370 190 622 527 
724 11 308 441 515 680 170 189 291 281 15 365 190 
725 11 154 357 206 362 721 423 185 149 428 29 426 
726 11 383 689 9 175 280 658 367 615 397 82 580 
727 10 254 172 39 659 322 572 399 293 500 477 
728 11 496 359 648 64 584 510 591 284 272 67 568 
729 11 233 593 405 240 153 589 97 250 275 347 350 
730 7 480 457 202 354 394 13 260 
731 11 718 325 7 355 369 402 618 203 624 490 380 
732 11 598 373 188 378 114 613 575 662 324 261 722 
733 11 430 562 40 655 568 70 488 213 359 245 510 
734 6 309 377 507 361 221 79 
735 11 427 156 456 341 460 668 551 93 541 586 573 
736 10 65 289 379 525 4 646 414 540 333 168 
DEPOT_SECTION
   1
   -1
EOF
