NAME :  X-n979-kX-w97-c9.cctp
COMMENT : 	Adapted by Maziero, Usberti and Cavellucci from the Uchoa, Pecin, Pessoa, Poggi, Subramanian, and Vidal (2013)
TYPE :  CCTP
DIMENSION :    687
EDGE_WEIGHT_TYPE : 	EUC_2D	
CAPACITY : 	998
VERTICES_WITHIN_COVERAGE :  9
VERTICES_WITH_DEMAND : 	97
NODE_COORD_SECTION
1 0 0
2 236 951
3 735 289
4 841 735
5 846 821
6 907 810
7 55 136
8 699 326
9 731 899
10 739 753
11 807 828
12 775 783
13 891 689
14 62 93
15 780 220
16 799 739
17 661 348
18 865 688
19 12 4
20 829 827
21 845 896
22 136 243
23 878 584
24 908 794
25 820 771
26 895 788
27 747 915
28 860 746
29 829 754
30 94 149
31 940 847
32 884 747
33 226 904
34 738 802
35 194 98
36 789 744
37 929 895
38 864 696
39 84 161
40 764 615
41 283 937
42 776 807
43 877 427
44 828 266
45 297 994
46 665 900
47 15 93
48 100 956
49 850 790
50 854 794
51 898 679
52 948 888
53 731 282
54 60 87
55 826 362
56 716 264
57 885 814
58 932 825
59 308 926
60 225 130
61 853 861
62 794 753
63 771 729
64 264 853
65 780 693
66 837 723
67 895 849
68 746 715
69 736 862
70 734 730
71 616 228
72 7 80
73 93 860
74 860 765
75 877 734
76 819 798
77 706 922
78 861 714
79 710 149
80 268 903
81 783 808
82 811 865
83 231 950
84 929 771
85 717 857
86 767 755
87 250 924
88 972 543
89 114 955
90 931 866
91 796 414
92 708 270
93 893 755
94 175 956
95 928 757
96 712 401
97 911 968
98 73 240
99 273 9
100 729 595
101 855 718
102 246 872
103 828 875
104 991 591
105 256 913
106 916 785
107 794 708
108 929 743
109 754 655
110 739 882
111 914 788
112 840 785
113 688 415
114 872 383
115 100 253
116 934 881
117 61 122
118 723 293
119 210 984
120 263 916
121 689 176
122 267 798
123 709 162
124 778 748
125 868 711
126 888 705
127 275 849
128 721 780
129 725 784
130 732 339
131 153 957
132 133 309
133 856 654
134 241 951
135 713 376
136 838 377
137 876 764
138 114 992
139 877 851
140 904 766
141 781 784
142 901 846
143 832 916
144 82 123
145 854 803
146 860 788
147 886 728
148 721 227
149 821 575
150 833 775
151 740 699
152 815 870
153 912 794
154 52 131
155 278 957
156 823 346
157 707 335
158 735 870
159 881 748
160 286 992
161 852 889
162 795 680
163 234 986
164 950 871
165 93 187
166 242 902
167 166 240
168 831 436
169 826 244
170 913 959
171 762 783
172 838 765
173 869 785
174 953 964
175 819 800
176 226 948
177 900 582
178 716 261
179 724 340
180 882 786
181 76 158
182 932 900
183 843 826
184 944 819
185 182 953
186 871 819
187 90 898
188 837 658
189 48 57
190 768 713
191 703 796
192 626 928
193 847 721
194 791 822
195 836 834
196 840 350
197 267 903
198 865 981
199 887 753
200 213 883
201 132 331
202 99 100
203 976 899
204 716 733
205 866 711
206 268 882
207 867 615
208 929 807
209 625 238
210 237 947
211 209 895
212 766 806
213 723 817
214 756 859
215 46 127
216 709 1000
217 829 844
218 689 268
219 13 80
220 754 764
221 942 954
222 716 719
223 834 758
224 207 941
225 756 865
226 265 892
227 757 729
228 915 874
229 6 88
230 875 839
231 32 84
232 715 176
233 834 807
234 847 710
235 914 878
236 226 73
237 968 877
238 781 749
239 922 793
240 821 387
241 672 327
242 879 696
243 624 939
244 813 750
245 908 891
246 938 847
247 869 297
248 814 792
249 642 92
250 942 817
251 752 219
252 873 727
253 896 683
254 938 763
255 219 930
256 697 393
257 818 777
258 741 316
259 291 911
260 774 940
261 838 610
262 837 729
263 863 747
264 110 210
265 941 368
266 840 786
267 885 720
268 726 72
269 927 828
270 936 839
271 67 303
272 814 755
273 267 996
274 835 904
275 697 124
276 503 227
277 762 808
278 625 396
279 278 907
280 169 67
281 909 870
282 731 272
283 17 50
284 40 968
285 912 691
286 895 657
287 227 938
288 831 793
289 628 75
290 44 140
291 833 331
292 819 774
293 863 563
294 251 969
295 929 741
296 857 859
297 828 756
298 176 937
299 861 803
300 142 224
301 702 411
302 89 906
303 259 902
304 896 852
305 124 963
306 685 731
307 88 97
308 855 747
309 161 273
310 171 74
311 237 989
312 886 835
313 189 960
314 123 142
315 846 781
316 866 728
317 692 575
318 844 756
319 220 944
320 773 798
321 879 728
322 185 301
323 797 735
324 934 784
325 667 332
326 845 758
327 692 835
328 195 161
329 167 965
330 262 49
331 804 363
332 886 775
333 754 423
334 289 968
335 821 861
336 232 876
337 913 784
338 45 151
339 648 249
340 174 343
341 902 811
342 287 979
343 759 909
344 871 772
345 231 949
346 757 759
347 830 706
348 73 64
349 346 925
350 781 691
351 776 662
352 696 935
353 569 224
354 835 929
355 716 466
356 814 851
357 760 725
358 980 884
359 881 597
360 922 516
361 42 137
362 788 704
363 239 159
364 823 797
365 785 161
366 901 843
367 968 847
368 816 769
369 16 117
370 850 917
371 835 817
372 968 840
373 831 736
374 338 911
375 260 801
376 853 694
377 825 825
378 918 833
379 880 747
380 869 741
381 861 227
382 682 353
383 783 872
384 684 255
385 95 811
386 719 331
387 852 809
388 287 911
389 849 735
390 908 743
391 773 87
392 829 790
393 832 798
394 720 777
395 785 786
396 769 726
397 783 578
398 925 840
399 8 59
400 719 304
401 53 77
402 792 744
403 934 879
404 857 240
405 850 780
406 870 767
407 844 854
408 277 820
409 805 821
410 878 755
411 916 435
412 146 86
413 856 887
414 110 922
415 931 578
416 672 355
417 732 259
418 317 931
419 973 525
420 39 229
421 257 153
422 814 742
423 82 116
424 150 211
425 726 634
426 710 884
427 850 733
428 863 307
429 212 235
430 935 759
431 770 210
432 804 712
433 783 812
434 212 922
435 820 750
436 608 976
437 842 734
438 939 896
439 810 778
440 759 793
441 211 892
442 827 748
443 774 211
444 839 263
445 72 220
446 268 921
447 12 122
448 797 844
449 39 252
450 120 148
451 836 712
452 750 802
453 833 737
454 846 867
455 850 818
456 774 522
457 658 197
458 857 742
459 932 844
460 183 127
461 235 950
462 237 941
463 878 677
464 826 794
465 643 146
466 284 964
467 923 535
468 828 780
469 251 928
470 951 836
471 803 801
472 689 269
473 734 819
474 917 615
475 856 239
476 814 773
477 660 351
478 859 867
479 800 771
480 769 706
481 692 282
482 726 598
483 609 290
484 168 990
485 777 711
486 200 890
487 818 877
488 258 768
489 796 724
490 659 309
491 874 708
492 295 849
493 898 842
494 624 381
495 892 741
496 746 300
497 335 926
498 231 136
499 966 841
500 853 779
501 959 893
502 839 993
503 863 788
504 827 797
505 136 807
506 830 719
507 806 209
508 229 974
509 789 841
510 886 810
511 875 762
512 763 718
513 852 757
514 737 866
515 862 712
516 667 399
517 207 902
518 252 978
519 135 237
520 308 943
521 271 910
522 773 824
523 947 602
524 570 131
525 61 62
526 833 379
527 827 719
528 52 101
529 841 711
530 713 255
531 907 845
532 608 269
533 684 35
534 903 857
535 751 885
536 64 178
537 941 908
538 847 779
539 98 179
540 904 597
541 931 746
542 905 794
543 720 166
544 1000 903
545 805 243
546 244 869
547 707 281
548 851 601
549 746 297
550 775 388
551 851 678
552 820 904
553 44 30
554 871 740
555 622 948
556 850 899
557 885 799
558 274 938
559 967 914
560 178 992
561 814 836
562 233 962
563 847 409
564 764 749
565 835 828
566 700 183
567 2 53
568 815 861
569 61 239
570 802 823
571 80 983
572 322 951
573 848 746
574 817 752
575 816 765
576 132 885
577 84 115
578 732 699
579 876 743
580 895 863
581 855 741
582 909 770
583 698 282
584 326 960
585 63 74
586 916 952
587 843 720
588 741 389
589 15 700
590 755 393
591 784 775
592 284 984
593 906 914
594 735 247
595 699 915
596 687 312
597 703 304
598 828 841
599 640 831
600 799 827
601 856 774
602 119 158
603 641 38
604 783 686
605 811 194
606 886 733
607 938 870
608 50 152
609 852 386
610 784 231
611 947 808
612 199 66
613 874 731
614 792 362
615 260 934
616 739 293
617 302 925
618 920 680
619 727 777
620 792 789
621 777 747
622 84 103
623 63 130
624 67 892
625 932 891
626 70 70
627 820 800
628 63 163
629 806 848
630 664 357
631 887 761
632 907 786
633 888 615
634 758 801
635 897 690
636 831 711
637 850 832
638 764 223
639 801 237
640 818 899
641 896 832
642 784 445
643 66 147
644 797 805
645 961 977
646 833 398
647 845 852
648 783 782
649 906 809
650 528 179
651 936 778
652 850 711
653 968 849
654 305 869
655 824 742
656 794 779
657 34 17
658 884 859
659 58 297
660 3 78
661 867 798
662 825 537
663 750 924
664 859 772
665 928 885
666 805 790
667 728 309
668 47 96
669 846 891
670 42 148
671 76 950
672 912 823
673 836 730
674 722 262
675 876 816
676 36 129
677 126 210
678 64 163
679 833 725
680 714 839
681 842 793
682 763 751
683 778 664
684 874 366
685 801 210
686 736 780
687 883 819
DEMAND_SECTION
2 38
3 48
4 57
5 60
6 56
7 74
8 41
9 95
10 77
11 95
12 54
13 85
14 66
15 18
16 83
17 3
18 84
19 86
20 96
21 69
22 51
23 100
24 77
25 51
26 96
27 53
28 70
29 99
30 58
31 53
32 87
33 12
34 64
35 62
36 64
37 59
38 64
39 51
40 55
41 7
42 64
43 47
44 5
45 20
46 100
47 75
48 41
49 87
50 72
51 74
52 68
53 27
54 72
55 18
56 25
57 68
58 56
59 14
60 68
61 85
62 83
63 88
64 2
65 78
66 98
67 59
68 99
69 88
70 59
71 9
72 87
73 4
74 62
75 89
76 86
77 82
78 74
79 50
80 5
81 72
82 86
83 20
84 98
85 77
86 71
87 29
88 55
89 13
90 57
91 29
92 24
93 82
94 45
95 55
96 42
97 85
98 69
COVERAGE_SECTION
2 9 461 210 83 134 345 176 462 562 287 
3 8 616 53 118 549 496 282 667 400 
4 9 437 262 673 389 453 427 373 66 573 
5 9 455 183 371 637 387 565 195 20 233 
6 8 649 341 672 24 542 153 510 57 
7 9 154 623 290 215 361 117 643 608 338 
8 8 157 596 386 597 241 179 400 382 
9 9 110 27 535 426 158 343 663 77 514 
10 9 220 346 70 682 564 619 686 86 204 
11 9 409 570 600 561 194 377 448 629 20 
12 9 141 648 395 591 171 320 620 440 656 
13 7 635 253 51 242 126 463 285 
14 9 54 528 668 401 585 622 626 307 117 
15 9 443 610 431 638 685 639 251 507 545 
16 8 323 402 36 62 422 489 244 238 
17 9 477 630 416 325 382 241 490 8 596 
18 9 38 376 242 463 551 491 125 205 515 
19 7 657 553 283 567 399 189 660 
20 9 377 565 195 371 183 598 217 561 5 
21 9 669 556 161 274 413 370 143 552 103 
22 8 519 300 167 677 424 115 309 264 
23 9 359 177 293 540 548 207 633 261 474 
24 9 542 153 111 632 337 106 26 239 649 
25 9 292 368 257 476 575 439 468 150 272 
26 9 542 632 180 24 557 332 153 337 111 
27 9 663 343 9 535 110 260 77 158 426 
28 9 263 308 458 581 380 573 554 513 389 
29 9 297 223 442 435 574 655 172 272 318 
30 9 39 181 450 602 643 144 314 539 678 
31 9 246 270 459 470 398 90 58 269 607 
32 9 159 379 199 579 410 495 93 606 631 
33 8 166 211 441 517 434 200 255 336 
34 9 452 473 634 213 129 686 440 277 619 
35 8 460 612 310 280 236 60 412 498 
36 9 402 238 62 16 124 323 621 489 63 
37 9 625 182 438 665 116 403 537 52 245 
38 9 18 376 205 242 125 491 515 78 652 
39 8 181 30 678 628 539 643 536 165 
40 7 100 109 397 425 482 351 683 
41 9 558 155 446 617 615 388 520 59 259 
42 9 81 320 433 212 277 522 634 194 644 
43 9 563 411 114 168 609 646 684 136 526 
44 5 444 169 545 404 475 
45 8 160 592 342 334 273 466 155 584 
46 9 595 77 352 192 426 243 555 9 85 
47 8 229 219 72 231 660 369 447 668 
48 9 89 305 671 571 414 138 302 131 187 
49 9 50 681 146 315 405 112 266 500 538 
50 9 49 146 145 299 503 681 661 315 387 
51 8 253 635 13 285 463 286 618 242 
52 9 438 501 116 625 164 403 37 182 665 
53 9 3 282 118 616 549 674 56 417 496 
54 9 14 401 585 528 668 626 525 348 231 
55 9 156 196 526 136 331 240 291 614 609 
56 9 178 674 530 92 282 417 547 53 583 
57 6 510 687 675 186 557 341 
58 9 269 184 250 270 378 398 208 459 672 
59 8 617 418 520 259 388 41 497 572 
60 8 498 363 421 460 328 35 236 612 
61 5 296 478 454 407 647 
62 9 402 36 238 16 124 323 621 244 479 
63 9 396 357 227 512 190 485 621 124 564 
64 8 127 102 546 206 492 408 226 336 
65 8 350 604 362 480 485 162 107 190 
66 9 679 262 587 673 506 193 451 527 437 
67 9 304 142 366 493 534 531 580 658 312 
68 9 151 357 512 227 70 578 190 396 480 
69 9 514 158 85 110 214 225 535 680 426 
70 9 204 68 222 227 10 357 512 578 151 
71 5 209 339 532 353 457 
72 9 660 219 229 47 399 231 567 283 369 
73 7 187 624 302 576 385 414 505 
74 8 664 406 601 513 344 511 137 500 
75 9 613 321 252 554 579 606 147 380 316 
76 9 175 627 364 248 464 504 288 392 393 
77 9 595 352 9 426 27 663 46 110 343 
78 9 515 205 101 125 652 491 234 316 193 
79 7 123 543 232 275 121 566 465 
80 9 197 521 303 226 279 120 105 446 206 
81 9 433 42 320 644 194 212 522 277 471 
82 8 152 568 335 356 487 629 103 448 
83 9 345 461 2 176 210 134 462 562 287 
84 9 651 254 430 95 324 106 582 337 111 
85 9 680 69 158 514 426 110 327 214 213 
86 9 682 564 346 124 621 238 220 36 63 
87 9 469 105 615 120 446 462 166 303 521 
88 8 419 467 104 415 360 523 177 540 
89 9 305 48 414 138 671 131 571 329 302 
90 8 607 403 116 228 665 164 246 31 
91 8 550 642 240 646 168 333 590 526 
92 9 56 547 178 530 583 674 218 472 481 
93 8 199 631 32 159 495 379 410 140 
94 5 185 329 313 298 131 
95 8 430 541 254 84 108 295 651 582 
96 8 301 256 135 113 588 590 516 333 
97 5 170 586 221 174 198 
98 6 569 445 115 420 449 264 
99 7 330 236 612 35 280 310 60 
100 5 482 425 40 317 397 
101 9 78 193 515 652 234 587 205 125 316 
102 9 546 336 206 64 226 166 303 200 127 
103 8 487 152 335 568 82 454 669 407 
104 7 523 88 415 419 474 540 467 
105 9 120 303 87 446 197 521 80 469 166 
106 9 337 111 632 153 239 24 542 582 324 
107 7 362 432 489 485 65 350 480 
108 6 295 541 95 430 390 254 
109 6 351 683 425 40 604 350 
110 9 535 158 514 9 69 225 214 426 85 
111 9 106 337 153 632 24 239 542 26 582 
112 9 266 315 681 538 49 405 150 288 392 
113 9 301 256 516 96 135 355 588 382 416 
114 9 684 609 136 563 526 646 43 196 55 
115 9 98 22 519 569 445 264 677 300 271 
116 9 403 665 625 607 37 90 52 438 164 
117 9 623 154 7 215 144 423 528 361 577 
118 8 400 3 53 616 667 547 282 549 
119 8 508 163 311 313 562 560 176 83 
120 9 446 105 521 80 197 87 303 279 469 
121 6 566 123 232 543 79 457 
122 6 375 408 488 127 64 492 
123 7 543 79 232 566 121 275 457 
124 9 621 238 36 86 564 402 682 62 63 
125 9 205 515 491 78 101 38 252 316 652 
126 6 242 491 267 13 635 125 
127 8 64 492 408 206 654 102 546 226 
128 9 394 129 619 686 191 34 10 452 213 
129 9 128 619 394 686 34 191 452 213 10 
130 6 179 386 157 258 667 8 
131 8 329 94 185 298 305 313 484 89 
132 8 201 309 322 340 115 22 271 519 
133 7 188 551 463 18 286 376 207 
134 9 2 210 461 83 345 462 562 176 287 
135 7 256 96 588 301 179 382 157 
136 9 526 609 55 240 646 196 563 156 114 
137 7 511 406 344 410 631 332 74 
138 9 305 571 89 48 131 484 671 329 560 
139 5 658 230 67 312 304 
140 9 582 93 631 332 337 632 199 106 390 
141 9 648 395 12 591 620 656 320 171 479 
142 7 366 493 531 67 304 534 641 
143 8 274 354 552 370 640 21 556 669 
144 9 423 577 622 623 117 307 30 202 643 
145 9 387 299 50 49 661 146 455 681 503 
146 9 503 50 173 49 500 661 405 299 601 
147 7 606 321 267 75 613 252 495 
148 7 594 530 251 178 417 674 56 
149 9 397 662 261 548 293 23 207 359 40 
150 9 468 172 112 266 25 292 315 257 538 
151 8 578 68 480 512 190 222 70 357 
152 8 82 487 568 335 103 356 629 640 
153 9 24 111 542 632 106 239 337 649 6 
154 8 7 215 623 290 361 117 676 670 
155 8 466 334 558 41 342 592 615 294 
156 7 55 196 291 331 136 526 614 
157 7 8 386 179 130 596 382 597 
158 9 514 69 110 85 225 535 214 9 426 
159 9 379 32 579 199 410 495 554 93 380 
160 8 592 45 342 273 334 466 155 518 
161 7 413 669 21 556 274 454 478 
162 7 604 350 65 683 362 351 107 
163 9 311 508 518 119 294 562 273 2 83 
164 8 607 52 403 116 237 90 501 31 
165 9 539 39 264 536 181 30 628 678 445 
166 9 33 303 105 87 120 197 226 80 336 
167 7 300 22 519 309 424 429 677 
168 9 563 646 91 43 642 240 609 526 136 
169 9 545 44 444 639 475 404 381 507 685 
170 5 586 97 221 174 593 
171 9 440 12 634 141 320 220 648 452 212 
172 9 223 326 150 318 297 29 513 538 315 
173 8 503 146 180 344 661 664 50 500 
174 5 221 645 586 170 97 
175 9 627 76 364 248 464 504 393 288 392 
176 9 83 345 319 461 2 287 210 462 134 
177 8 540 23 359 415 633 474 293 207 
178 9 56 674 530 92 417 282 547 594 53 
179 6 130 386 157 8 258 667 
180 6 332 26 173 557 344 503 
181 7 39 678 628 643 30 536 608 
182 9 37 438 625 537 665 116 52 403 245 
183 9 5 565 637 195 455 371 20 377 387 
184 7 250 611 58 470 208 269 270 
185 5 94 313 298 329 224 
186 4 675 687 57 510 
187 9 302 624 414 73 576 671 48 89 305 
188 4 133 551 376 18 
189 8 525 401 585 348 626 553 231 54 
190 8 480 512 485 396 357 63 227 68 
191 8 128 129 394 213 619 34 686 473 
192 9 243 555 46 436 352 595 77 426 599 
193 9 587 101 66 652 234 427 529 262 389 
194 9 600 570 433 409 81 11 522 644 509 
195 9 565 20 183 598 217 377 637 5 371 
196 8 156 55 291 136 526 331 609 684 
197 9 80 303 521 226 279 120 105 446 206 
198 3 502 97 170 
199 8 93 32 159 631 379 410 495 511 
200 7 441 211 486 336 517 33 546 
201 8 132 340 322 309 271 659 115 22 
202 6 307 622 577 423 144 14 
203 6 358 559 501 237 544 52 
204 6 222 70 10 306 68 578 
205 9 125 515 78 491 101 38 652 252 316 
206 9 226 80 197 303 102 279 546 521 64 
207 8 548 633 359 261 23 133 540 177 
208 8 239 250 58 611 184 153 269 6 
209 4 71 339 532 457 
210 9 2 461 134 345 462 83 176 287 562 
211 7 441 517 486 200 33 434 336 
212 9 277 634 42 320 440 452 81 433 522 
213 9 473 34 680 191 452 129 327 128 634 
214 4 225 69 514 158 
215 6 154 676 361 7 290 117 
216 8 352 77 595 663 260 27 555 9 
217 8 598 195 20 356 561 565 407 647 
218 7 472 384 481 583 92 547 56 
219 9 72 660 229 47 231 399 567 283 369 
220 9 346 86 682 564 10 171 686 12 124 
221 5 174 586 170 645 97 
222 6 204 70 578 68 151 306 
223 9 29 297 172 318 326 442 435 150 513 
224 7 319 255 176 287 434 345 83 
225 6 214 514 69 535 158 110 
226 9 206 80 197 303 521 279 105 120 166 
227 9 357 396 512 63 68 190 564 70 682 
228 8 235 281 665 90 245 116 403 534 
229 9 72 47 660 219 231 399 369 447 567 
230 5 139 312 186 67 641 
231 9 47 219 668 401 72 229 528 54 660 
232 7 543 123 566 121 79 148 275 
233 9 393 371 504 288 364 464 627 681 76 
234 8 652 529 101 193 451 587 78 515 
235 9 228 281 245 665 116 403 90 625 37 
236 9 612 35 330 310 60 280 498 460 99 
237 8 358 501 164 52 203 653 367 607 
238 9 124 621 36 402 62 86 564 682 16 
239 8 111 106 153 337 24 324 208 542 
240 9 526 646 136 55 331 609 563 91 614 
241 8 325 596 490 17 8 477 382 416 
242 9 126 491 13 38 18 125 463 635 205 
243 9 555 192 436 46 352 595 77 426 216 
244 9 574 272 435 422 442 655 575 29 297 
245 7 235 228 37 281 665 593 625 
246 8 31 459 270 398 470 90 269 58 
247 5 428 444 291 44 404 
248 9 76 175 666 364 627 464 471 504 392 
249 9 289 465 603 275 533 524 268 79 121 
250 7 184 611 58 208 269 470 270 
251 8 638 431 443 15 148 594 610 417 
252 9 613 321 316 75 147 554 267 606 380 
253 7 51 635 13 285 463 242 126 
254 8 430 84 95 651 541 324 108 295 
255 8 287 434 319 224 176 462 345 83 
256 9 96 301 135 113 516 382 588 416 630 
257 9 292 25 476 368 439 468 575 150 248 
258 8 667 496 549 616 130 400 386 3 
259 9 388 279 617 521 59 80 197 446 41 
260 8 663 343 27 552 9 535 640 354 
261 7 548 207 149 359 23 133 188 
262 9 673 66 679 4 437 373 453 587 506 
263 9 28 308 380 458 581 554 579 513 573 
264 8 677 165 539 300 519 445 424 22 
265 6 684 114 411 43 609 428 
266 9 112 681 315 538 49 288 392 405 150 
267 8 147 321 606 252 126 75 491 613 
268 9 391 533 275 79 249 123 603 543 289 
269 8 58 378 398 270 672 459 184 250 
270 8 459 246 31 398 269 58 470 378 
271 6 659 449 115 98 569 132 
272 9 574 244 435 575 422 297 368 29 442 
273 8 160 592 518 342 45 294 311 163 
274 9 143 21 552 556 669 640 370 161 354 
275 9 79 123 543 121 232 465 566 268 249 
276 7 650 353 71 532 524 209 483 
277 9 212 634 452 42 320 440 522 81 433 
278 6 494 516 630 477 17 416 
279 9 521 388 80 197 259 120 446 226 303 
280 5 310 412 612 35 236 
281 8 228 235 534 580 245 90 304 665 
282 9 53 417 674 3 56 178 118 616 92 
283 9 399 567 219 660 72 189 553 231 657 
284 9 671 571 48 89 138 302 624 305 414 
285 5 618 635 51 253 13 
286 8 51 253 463 13 635 618 285 133 
287 9 319 176 462 255 345 83 210 461 2 
288 9 392 393 464 504 364 266 681 112 76 
289 9 249 603 533 465 524 275 268 79 121 
290 8 361 670 338 7 154 215 608 676 
291 5 156 196 55 428 331 
292 9 25 257 476 368 575 439 468 150 248 
293 9 23 359 548 177 149 662 207 261 540 
294 8 518 562 134 2 508 163 311 461 
295 4 108 541 95 430 
296 5 61 478 407 454 647 
297 9 29 223 442 435 574 172 272 575 655 
298 3 185 94 313 
299 4 145 661 50 387 
300 6 424 519 22 677 167 264 
301 9 96 113 256 135 516 588 333 590 355 
302 9 187 414 624 73 671 576 48 89 305 
303 9 197 80 105 226 521 120 166 279 446 
304 9 67 142 534 366 493 580 531 658 139 
305 9 89 48 131 138 329 414 571 671 94 
306 3 204 222 70 
307 8 622 202 577 423 14 144 54 626 
308 9 28 458 581 573 263 513 389 318 326 
309 9 167 322 22 519 132 300 424 115 429 
310 6 280 412 612 35 460 236 
311 9 163 508 518 294 119 562 273 2 134 
312 7 641 230 493 687 67 366 139 
313 6 185 94 329 224 298 119 
314 4 450 602 30 39 
315 9 538 405 112 500 266 49 601 681 150 
316 9 252 613 75 321 380 554 78 101 515 
317 4 482 100 425 40 
318 9 326 513 223 172 573 308 29 297 74 
319 9 176 287 345 83 224 255 461 2 210 
320 9 42 212 81 12 277 440 634 141 395 
321 8 75 252 613 147 606 267 316 554 
322 9 309 340 132 201 167 429 22 519 300 
323 8 16 402 489 36 62 422 238 244 
324 8 651 84 239 106 111 254 337 153 
325 9 241 17 477 416 490 630 382 596 8 
326 9 318 513 172 223 573 308 29 74 297 
327 8 680 85 213 191 473 69 426 599 
328 4 460 60 363 498 
329 7 94 131 185 313 484 298 560 
330 9 99 236 612 35 60 498 310 280 421 
331 8 614 55 156 240 526 136 196 550 
332 7 180 631 137 344 26 511 406 
333 8 590 588 642 550 91 96 301 355 
334 8 466 342 155 592 160 45 520 41 
335 8 568 82 152 356 103 487 217 629 
336 8 546 102 200 441 166 33 211 486 
337 9 106 111 632 153 24 239 542 582 26 
338 5 670 608 290 361 7 
339 3 209 384 71 
340 8 322 201 132 309 167 22 519 271 
341 8 649 6 510 672 57 542 24 153 
342 8 592 334 160 466 45 155 273 518 
343 9 27 663 535 9 110 260 225 383 158 
344 7 406 137 511 664 74 173 332 
345 9 83 461 2 176 210 134 462 287 319 
346 9 220 682 86 564 10 621 124 171 238 
347 8 636 451 529 506 527 234 66 587 
348 7 626 525 585 401 54 189 14 
349 5 497 374 418 572 59 
350 8 65 604 362 162 480 485 107 190 
351 6 683 109 604 162 350 65 
352 9 77 595 46 9 426 27 663 216 110 
353 7 71 209 532 650 276 483 339 
354 6 143 370 274 552 21 556 
355 9 301 333 113 96 642 256 456 588 516 
356 8 629 568 335 82 561 217 598 448 
357 9 227 512 396 63 190 68 480 485 564 
358 8 237 203 501 544 52 164 559 653 
359 9 23 633 207 540 177 548 293 474 261 
360 9 467 419 88 415 177 293 23 411 540 
361 7 290 676 215 670 154 7 338 
362 7 107 485 65 350 432 480 604 
363 6 421 498 60 328 460 35 
364 9 76 464 504 627 175 288 392 393 248 
365 8 605 431 443 507 685 15 543 638 
366 7 142 493 531 67 304 641 534 
367 7 653 499 372 470 31 164 237 
368 9 25 476 575 292 257 439 272 468 479 
369 5 447 676 47 229 215 
370 6 143 556 354 274 21 669 
371 9 233 565 5 20 183 377 455 195 387 
372 6 499 367 653 470 31 246 
373 8 453 673 262 655 4 437 679 442 
374 5 497 349 418 59 617 
375 6 122 408 488 127 64 492 
376 8 38 18 551 234 652 515 205 529 
377 9 20 565 371 195 561 598 11 183 217 
378 6 269 398 672 58 531 459 
379 9 159 32 579 410 199 554 75 380 495 
380 9 554 579 263 28 75 613 458 316 379 
381 8 475 404 169 444 44 507 545 605 
382 9 416 630 17 477 325 241 157 8 135 
383 6 225 82 214 448 152 509 
384 5 218 472 92 481 530 
385 5 505 73 576 624 187 
386 6 179 157 130 8 667 258 
387 8 145 455 299 5 50 233 49 183 
388 9 259 279 521 80 446 617 197 120 41 
389 9 427 437 4 581 458 573 262 308 193 
390 6 495 93 108 295 140 199 
391 7 268 365 275 79 543 123 533 
392 9 288 464 504 364 393 468 112 266 76 
393 9 288 504 464 233 364 392 681 627 76 
394 8 128 619 129 686 191 10 34 220 
395 9 141 648 620 12 591 656 320 666 479 
396 8 63 357 512 227 190 485 480 621 
397 9 149 40 100 456 662 482 261 548 425 
398 7 459 378 270 269 246 31 58 
399 9 567 283 660 72 219 229 47 231 189 
400 8 667 118 597 3 616 53 258 547 
401 9 585 54 525 14 626 668 189 231 348 
402 9 36 16 62 323 238 124 621 489 244 
403 9 116 665 607 625 90 37 52 164 438 
404 8 475 381 444 169 44 545 639 247 
405 9 500 538 315 601 49 112 266 664 146 
406 7 344 137 511 74 664 410 601 
407 8 647 61 454 296 217 478 598 195 
408 8 122 375 127 492 64 488 654 546 
409 9 570 11 600 194 561 644 377 471 433 
410 8 159 379 511 137 199 32 631 579 
411 9 43 114 265 563 360 609 684 168 646 
412 4 310 280 35 202 
413 6 161 669 556 21 478 454 
414 9 302 187 89 48 305 576 671 624 131 
415 8 523 177 540 474 467 23 359 88 
416 9 630 382 17 477 325 241 8 157 516 
417 9 674 594 282 178 56 530 53 92 3 
418 8 59 520 617 497 572 374 349 584 
419 8 88 467 360 104 415 523 177 540 
420 4 449 569 445 98 
421 7 363 498 60 328 460 35 236 
422 7 244 435 574 655 272 442 16 
423 9 577 144 622 307 117 202 623 14 7 
424 5 300 677 519 167 22 
425 4 109 482 100 40 
426 9 9 85 110 158 514 595 69 77 535 
427 9 389 437 4 581 458 193 573 262 673 
428 5 247 291 196 444 44 
429 6 167 309 424 300 322 22 
430 8 254 95 84 541 108 295 651 324 
431 8 443 15 638 251 610 685 507 639 
432 6 107 489 362 323 527 16 
433 9 81 42 194 522 644 320 212 277 570 
434 7 255 224 517 287 33 319 211 
435 8 574 244 442 272 655 29 297 422 
436 9 555 243 192 46 352 216 595 77 426 
437 9 4 262 389 673 427 453 373 66 573 
438 9 182 625 37 52 537 116 665 403 501 
439 9 476 257 292 368 25 479 666 575 248 
440 9 634 171 452 212 277 320 12 42 34 
441 7 211 200 486 517 33 336 434 
442 8 29 435 655 297 574 223 373 453 
443 9 431 15 638 610 251 685 507 639 605 
444 7 44 169 404 475 545 381 247 
445 8 98 569 420 165 264 115 536 449 
446 9 120 521 105 615 279 80 87 197 469 
447 3 369 676 47 
448 9 509 629 600 356 11 561 570 194 409 
449 4 420 569 98 445 
450 5 314 602 30 39 539 
451 8 529 636 347 506 66 234 527 587 
452 9 634 34 277 440 212 171 320 473 42 
453 8 373 4 673 262 437 655 679 442 
454 8 61 407 478 296 647 103 413 161 
455 8 5 387 183 637 371 145 565 233 
456 9 662 397 149 642 355 100 482 40 293 
457 4 121 566 71 209 
458 9 581 28 308 263 573 389 427 380 554 
459 7 270 246 398 31 269 378 58 
460 6 35 328 60 498 310 412 
461 9 2 83 210 345 134 176 462 562 287 
462 9 210 461 2 287 345 83 134 176 319 
463 9 18 13 242 253 51 635 38 286 551 
464 9 504 364 288 392 393 76 627 175 248 
465 8 457 249 121 275 79 123 566 289 
466 8 334 155 342 592 41 160 558 520 
467 9 360 415 88 419 177 540 293 23 523 
468 9 150 257 392 292 25 112 266 288 464 
469 9 87 615 105 120 446 462 210 134 558 
470 9 270 31 499 246 372 184 367 250 459 
471 9 644 666 248 76 175 620 627 364 409 
472 7 218 481 384 583 92 547 56 
473 9 213 34 452 680 277 634 212 129 440 
474 8 540 633 523 177 359 415 286 23 
475 8 404 381 444 169 44 545 639 507 
476 9 368 292 25 257 439 575 479 468 272 
477 9 17 630 416 325 382 241 490 8 494 
478 5 61 296 454 407 413 
479 9 656 439 476 368 591 575 62 257 292 
480 8 190 485 512 65 350 362 396 357 
481 5 583 472 218 547 92 
482 5 100 425 317 40 397 
483 5 532 490 209 339 71 
484 9 560 329 94 131 313 185 119 305 138 
485 8 190 480 362 512 107 396 65 63 
486 5 211 441 517 200 33 
487 8 152 103 82 335 568 640 356 552 
488 5 122 375 408 127 64 
489 6 323 432 16 107 402 36 
490 4 241 325 596 17 
491 8 125 205 242 515 78 126 38 267 
492 7 127 654 64 408 206 226 102 
493 7 366 142 67 531 304 641 312 
494 6 278 477 516 630 17 416 
495 9 32 606 159 199 379 93 147 390 579 
496 6 549 616 3 258 667 53 
497 6 349 374 418 59 572 520 
498 8 60 363 421 328 460 35 236 612 
499 7 372 367 653 470 31 246 270 
500 9 405 538 601 315 664 49 146 503 112 
501 9 52 203 237 438 559 358 537 164 625 
502 4 198 354 97 143 
503 9 146 173 50 661 49 500 299 405 601 
504 9 464 364 393 288 392 76 627 175 233 
505 3 385 73 576 
506 9 527 679 66 636 451 262 347 587 673 
507 9 685 605 15 639 610 443 545 431 169 
508 9 163 562 311 119 294 518 2 83 345 
509 7 448 600 629 194 11 570 522 
510 6 57 687 557 675 341 186 
511 7 137 406 410 344 631 74 159 
512 8 190 357 396 227 480 63 485 68 
513 9 326 318 308 74 573 28 263 172 458 
514 9 69 158 110 225 214 85 535 426 9 
515 9 78 205 125 101 652 491 234 38 316 
516 9 113 256 301 278 630 416 96 494 382 
517 6 211 441 486 33 200 434 
518 8 294 311 163 273 508 562 134 2 
519 8 22 300 677 424 167 264 115 309 
520 8 418 572 59 617 584 41 334 466 
521 9 80 197 279 120 446 303 105 388 226 
522 6 433 42 194 81 212 277 
523 7 415 474 540 104 177 633 88 
524 9 650 465 289 249 353 71 457 276 603 
525 7 348 585 626 189 401 54 14 
526 9 136 240 55 646 609 196 331 563 156 
527 8 506 679 636 66 451 347 262 673 
528 8 668 14 54 117 401 231 215 585 
529 8 451 234 587 652 636 193 347 66 
530 9 178 56 674 92 417 594 282 218 547 
531 6 142 366 493 67 304 534 
532 4 483 209 71 339 
533 9 603 268 289 249 275 391 79 465 123 
534 8 304 580 67 142 531 281 366 493 
535 9 110 225 158 9 514 343 214 69 27 
536 6 628 678 181 39 165 608 
537 8 182 438 37 625 52 501 665 559 
538 9 315 405 500 112 266 601 49 664 150 
539 8 165 39 30 181 602 264 536 450 
540 8 177 474 359 633 23 415 207 523 
541 5 108 295 95 430 254 
542 9 24 153 632 111 26 337 106 649 6 
543 7 232 123 79 566 121 275 148 
544 6 203 358 559 237 501 52 
545 7 639 169 610 44 685 15 507 
546 9 102 336 64 206 226 166 200 303 127 
547 8 583 92 481 56 118 178 218 472 
548 8 261 207 359 23 149 293 633 133 
549 5 496 616 3 258 53 
550 7 590 614 91 588 331 333 240 
551 7 376 18 38 188 133 463 234 
552 9 640 274 143 21 487 354 669 103 556 
553 7 657 189 283 525 19 348 399 
554 9 380 579 75 613 263 379 28 159 252 
555 9 243 192 436 46 352 595 77 216 426 
556 8 21 669 161 413 274 370 143 552 
557 5 510 180 26 57 661 
558 9 41 615 446 155 120 469 87 466 521 
559 5 203 501 537 52 358 
560 8 484 329 119 313 94 185 131 508 
561 9 11 629 356 598 377 20 217 409 600 
562 9 2 83 461 345 508 134 176 210 294 
563 9 646 609 168 136 526 240 43 114 55 
564 9 682 86 346 621 124 238 220 63 227 
565 9 20 195 183 377 371 5 598 637 217 
566 6 121 232 123 543 79 457 
567 9 399 283 660 72 219 229 47 231 189 
568 8 82 335 152 356 487 629 103 217 
569 5 98 445 420 449 115 
570 9 409 600 11 194 561 644 433 448 471 
571 9 671 48 138 284 89 305 414 131 302 
572 7 584 520 418 497 59 617 349 
573 9 308 581 458 318 389 28 326 513 4 
574 9 244 272 435 422 442 29 297 655 575 
575 9 368 25 476 292 272 257 574 439 244 
576 4 414 187 73 302 
577 9 423 144 622 307 202 117 623 14 30 
578 5 151 68 222 70 512 
579 9 379 554 159 380 32 75 410 613 263 
580 6 534 304 658 67 281 142 
581 9 458 308 28 389 427 573 263 380 4 
582 9 140 337 632 106 111 84 93 26 95 
583 7 481 547 92 472 218 597 56 
584 6 572 520 418 497 59 334 
585 9 626 401 525 54 348 14 189 668 528 
586 5 170 97 221 174 593 
587 9 193 66 529 234 262 451 652 679 101 
588 5 590 96 135 550 333 
589 5 385 505 73 624 187 
590 6 588 550 333 96 135 91 
591 9 648 141 395 656 12 479 620 171 62 
592 8 342 160 45 334 466 273 155 518 
593 2 245 37 
594 8 417 674 530 148 178 56 282 251 
595 9 77 352 426 9 46 27 110 663 158 
596 6 8 597 241 325 490 157 
597 7 400 596 8 118 547 583 481 
598 8 217 195 20 561 565 377 356 647 
599 6 327 191 46 680 85 213 
600 9 570 11 409 194 448 509 561 433 629 
601 9 664 500 405 74 538 315 146 344 406 
602 6 450 314 30 539 39 165 
603 9 289 533 249 268 275 465 524 79 123 
604 9 350 65 162 362 683 480 107 351 485 
605 9 507 685 15 443 365 431 639 610 545 
606 9 147 75 321 495 613 267 32 252 579 
607 9 90 403 116 164 665 52 625 31 228 
608 7 338 670 290 7 361 628 643 
609 9 136 114 526 646 563 684 240 55 196 
610 9 15 639 443 638 545 431 685 507 251 
611 6 250 184 208 58 324 269 
612 8 236 310 280 35 412 460 330 60 
613 9 75 252 321 316 554 380 147 579 606 
614 5 331 550 55 156 240 
615 9 469 87 446 558 120 105 41 462 134 
616 8 3 549 496 53 118 667 282 258 
617 9 59 418 259 520 388 41 279 558 497 
618 4 285 51 253 635 
619 9 128 129 394 686 10 34 220 191 452 
620 9 395 656 648 141 666 471 591 644 12 
621 9 124 238 36 86 564 402 682 62 63 
622 9 307 577 423 202 144 14 54 117 528 
623 9 117 7 154 215 643 144 290 361 423 
624 9 187 302 73 414 671 576 48 89 284 
625 9 37 665 182 438 116 403 52 537 235 
626 8 348 585 525 401 54 14 189 307 
627 9 175 76 364 464 504 248 393 288 392 
628 7 678 181 536 643 608 39 338 
629 8 356 448 561 568 82 509 11 335 
630 9 477 416 17 382 325 241 516 8 494 
631 8 93 199 137 410 511 32 159 332 
632 9 337 111 24 542 106 153 26 582 239 
633 7 359 207 540 474 23 177 548 
634 9 277 440 452 212 320 171 42 34 12 
635 6 13 253 51 285 126 242 
636 8 347 451 506 527 529 66 679 587 
637 7 183 5 195 455 565 371 647 
638 8 251 431 15 443 610 594 685 639 
639 8 545 610 169 15 685 507 443 44 
640 9 552 274 143 487 103 21 152 669 556 
641 7 312 493 366 142 67 531 672 
642 9 91 333 168 550 590 646 240 355 588 
643 8 181 7 628 678 608 623 154 338 
644 9 471 81 433 620 666 194 409 570 42 
645 4 174 221 97 170 
646 9 240 563 526 136 609 55 168 91 114 
647 8 407 61 296 454 217 195 598 478 
648 9 141 395 591 12 620 656 320 479 171 
649 8 6 341 24 542 672 153 510 57 
650 8 276 353 524 71 209 465 532 457 
651 7 324 84 254 430 106 239 95 
652 9 234 101 529 193 78 587 515 451 205 
653 7 367 499 372 470 31 164 237 
654 7 492 127 206 64 259 226 388 
655 8 442 373 435 422 453 574 29 244 
656 9 479 620 395 591 648 141 439 666 12 
657 7 553 19 283 189 567 399 525 
658 4 139 580 304 67 
659 4 271 449 569 98 
660 9 72 219 229 47 399 567 231 283 369 
661 5 299 503 146 173 50 
662 9 149 293 456 397 548 23 261 359 177 
663 9 27 343 260 9 535 110 77 595 352 
664 9 601 74 500 344 405 406 538 146 173 
665 9 116 625 403 37 182 235 438 228 607 
666 9 248 471 439 620 76 656 175 644 257 
667 9 400 258 118 616 496 3 549 386 597 
668 8 528 14 54 231 401 585 117 215 
669 9 21 161 556 413 274 103 454 370 478 
670 5 338 290 608 361 7 
671 9 48 571 89 284 414 302 305 187 138 
672 6 378 6 649 269 341 641 
673 8 262 679 4 66 437 373 453 587 
674 9 56 178 417 530 282 92 594 53 547 
675 4 186 687 57 510 
676 5 215 361 290 154 7 
677 7 264 300 424 519 22 165 539 
678 7 628 181 536 643 608 39 338 
679 9 66 262 673 506 527 373 587 453 4 
680 9 85 327 213 473 69 514 158 34 191 
681 9 266 112 49 288 393 50 315 392 405 
682 9 564 86 346 124 621 220 238 63 227 
683 7 351 162 604 109 350 65 362 
684 9 114 609 136 196 526 55 563 646 291 
685 9 507 605 15 443 610 639 431 545 638 
686 9 619 129 128 394 34 220 171 440 452 
687 5 57 675 510 186 312 
DEPOT_SECTION
   1
   -1
EOF
