NAME :  X-n957-kX-w95-c9.cctp
COMMENT : 	Adapted by Maziero, Usberti and Cavellucci from the Uchoa, Pecin, Pessoa, Poggi, Subramanian, and Vidal (2013)
TYPE :  CCTP
DIMENSION :    566
EDGE_WEIGHT_TYPE : 	EUC_2D	
CAPACITY : 	11
VERTICES_WITHIN_COVERAGE :  9
VERTICES_WITH_DEMAND : 	95
NODE_COORD_SECTION
1 737 450
2 235 789
3 340 234
4 346 320
5 406 309
6 556 636
7 872 923
8 937 83
9 9 321
10 558 18
11 63 833
12 250 509
13 143 192
14 624 286
15 364 117
16 332 953
17 235 142
18 590 430
19 303 692
20 936 665
21 39 410
22 247 581
23 986 739
24 11 283
25 138 747
26 837 511
27 596 206
28 218 339
29 443 922
30 555 133
31 896 306
32 415 752
33 691 216
34 51 0
35 726 19
36 166 333
37 951 932
38 928 807
39 505 590
40 236 284
41 115 882
42 238 887
43 729 26
44 94 697
45 409 899
46 993 715
47 473 607
48 414 55
49 884 327
50 651 407
51 891 372
52 570 733
53 919 529
54 629 220
55 711 630
56 141 492
57 720 382
58 794 51
59 745 451
60 409 990
61 825 781
62 966 938
63 378 175
64 859 269
65 596 131
66 419 557
67 77 908
68 679 268
69 726 860
70 382 728
71 885 15
72 258 313
73 734 905
74 533 912
75 924 636
76 694 621
77 469 223
78 507 707
79 892 168
80 281 800
81 607 285
82 388 354
83 568 781
84 22 348
85 153 579
86 218 236
87 308 904
88 119 154
89 939 105
90 489 374
91 547 736
92 480 1000
93 124 883
94 647 930
95 295 741
96 213 53
97 701 446
98 589 708
99 644 147
100 133 377
101 983 343
102 896 910
103 573 416
104 416 512
105 870 50
106 587 165
107 542 762
108 995 809
109 266 878
110 27 812
111 45 164
112 174 729
113 252 311
114 681 621
115 594 478
116 848 361
117 897 253
118 729 354
119 811 703
120 677 991
121 781 909
122 971 632
123 540 824
124 887 144
125 897 98
126 971 727
127 972 381
128 375 214
129 895 158
130 196 779
131 379 223
132 22 395
133 119 604
134 622 843
135 289 811
136 98 365
137 261 101
138 820 480
139 433 961
140 656 421
141 334 794
142 426 686
143 870 112
144 941 978
145 744 498
146 7 346
147 166 244
148 604 430
149 176 452
150 912 406
151 423 564
152 101 383
153 162 515
154 647 869
155 784 983
156 736 39
157 833 529
158 922 294
159 373 331
160 471 694
161 39 149
162 813 538
163 153 115
164 244 505
165 716 286
166 140 484
167 652 239
168 141 628
169 30 924
170 877 307
171 586 723
172 856 584
173 641 671
174 648 704
175 19 309
176 661 125
177 614 194
178 253 864
179 106 841
180 5 289
181 658 58
182 419 839
183 288 276
184 562 646
185 516 725
186 75 785
187 309 966
188 743 856
189 121 698
190 70 635
191 376 539
192 824 834
193 742 277
194 977 647
195 268 698
196 973 145
197 569 655
198 765 22
199 427 869
200 11 869
201 377 793
202 979 386
203 424 536
204 37 705
205 126 782
206 490 30
207 348 771
208 808 469
209 107 512
210 782 207
211 859 469
212 148 763
213 403 723
214 978 760
215 214 132
216 467 387
217 853 27
218 855 506
219 591 902
220 213 742
221 203 364
222 183 3
223 143 608
224 904 31
225 997 741
226 26 402
227 902 548
228 47 419
229 125 226
230 643 265
231 189 736
232 79 287
233 225 604
234 412 843
235 924 756
236 474 356
237 533 721
238 445 101
239 579 994
240 652 658
241 633 914
242 889 206
243 464 243
244 420 998
245 798 490
246 27 680
247 367 977
248 777 679
249 856 6
250 777 984
251 909 569
252 730 509
253 612 163
254 959 409
255 987 154
256 883 195
257 207 6
258 39 831
259 657 701
260 703 976
261 260 286
262 6 135
263 821 740
264 491 397
265 140 716
266 6 773
267 529 74
268 860 929
269 384 223
270 524 854
271 102 833
272 653 843
273 260 234
274 864 478
275 425 897
276 482 914
277 646 13
278 670 113
279 722 56
280 611 456
281 832 655
282 275 331
283 851 924
284 746 341
285 811 324
286 950 762
287 368 215
288 458 65
289 174 245
290 277 138
291 624 145
292 696 41
293 839 676
294 717 623
295 752 11
296 732 768
297 5 440
298 125 793
299 556 154
300 137 547
301 855 769
302 269 726
303 415 353
304 961 560
305 432 998
306 903 500
307 446 77
308 710 425
309 883 381
310 776 9
311 286 208
312 119 538
313 267 810
314 924 550
315 207 306
316 734 468
317 654 618
318 102 700
319 978 464
320 987 161
321 342 874
322 501 638
323 557 72
324 246 754
325 577 758
326 200 110
327 107 621
328 581 925
329 672 281
330 333 221
331 366 691
332 871 557
333 759 559
334 384 926
335 512 969
336 29 740
337 361 929
338 874 282
339 769 858
340 878 141
341 820 64
342 429 224
343 611 820
344 26 93
345 268 308
346 426 545
347 28 441
348 669 276
349 519 784
350 445 780
351 762 46
352 935 724
353 937 750
354 390 916
355 934 288
356 435 47
357 990 14
358 830 399
359 748 774
360 566 767
361 873 118
362 833 478
363 82 836
364 311 362
365 975 337
366 148 207
367 986 476
368 769 67
369 114 335
370 59 461
371 12 780
372 154 192
373 27 360
374 787 422
375 774 765
376 521 751
377 131 279
378 408 79
379 917 541
380 295 775
381 754 367
382 252 558
383 122 892
384 267 505
385 234 594
386 512 375
387 505 354
388 91 411
389 85 871
390 688 231
391 584 428
392 476 354
393 473 213
394 422 21
395 330 99
396 241 919
397 80 811
398 429 712
399 330 226
400 247 375
401 619 32
402 671 277
403 403 542
404 473 216
405 224 863
406 293 641
407 568 173
408 529 560
409 532 163
410 760 446
411 240 624
412 719 272
413 58 940
414 357 402
415 618 412
416 788 91
417 231 504
418 93 683
419 648 191
420 692 379
421 65 935
422 308 1000
423 750 582
424 488 236
425 566 428
426 177 583
427 246 760
428 233 820
429 98 932
430 378 219
431 381 89
432 355 930
433 458 212
434 228 583
435 250 804
436 209 808
437 275 671
438 170 388
439 692 415
440 405 186
441 514 583
442 208 584
443 280 735
444 492 190
445 125 280
446 163 510
447 325 804
448 634 395
449 277 608
450 354 927
451 582 278
452 113 287
453 93 921
454 501 576
455 479 583
456 74 907
457 88 945
458 540 167
459 619 292
460 678 278
461 410 380
462 447 579
463 596 421
464 711 456
465 333 359
466 320 932
467 566 207
468 238 331
469 671 214
470 389 596
471 408 282
472 407 355
473 226 880
474 252 556
475 637 316
476 494 209
477 123 748
478 405 524
479 290 691
480 16 824
481 664 191
482 482 371
483 478 725
484 115 585
485 630 209
486 643 278
487 215 911
488 270 798
489 212 485
490 84 435
491 608 283
492 613 272
493 229 882
494 253 521
495 63 939
496 622 245
497 656 232
498 277 581
499 253 812
500 454 558
501 660 200
502 574 213
503 688 407
504 475 401
505 131 896
506 606 292
507 321 965
508 437 899
509 643 266
510 242 679
511 592 292
512 398 315
513 333 236
514 460 532
515 267 520
516 237 292
517 0 879
518 644 280
519 299 943
520 642 304
521 410 533
522 699 373
523 320 373
524 266 512
525 661 386
526 504 387
527 599 274
528 649 140
529 715 73
530 182 583
531 325 263
532 587 472
533 331 307
534 656 400
535 120 907
536 260 910
537 632 287
538 473 358
539 44 941
540 323 246
541 293 971
542 171 190
543 244 521
544 340 856
545 596 289
546 391 390
547 602 631
548 448 189
549 530 131
550 242 924
551 452 224
552 254 592
553 477 236
554 150 541
555 125 870
556 594 407
557 501 372
558 634 289
559 608 220
560 618 428
561 47 856
562 708 471
563 448 523
564 616 295
565 249 810
566 347 720
DEMAND_SECTION
2 1
3 1
4 1
5 1
6 1
7 1
8 1
9 1
10 1
11 1
12 1
13 1
14 1
15 1
16 1
17 1
18 1
19 1
20 1
21 1
22 1
23 1
24 1
25 1
26 1
27 1
28 1
29 1
30 1
31 1
32 1
33 1
34 1
35 1
36 1
37 1
38 1
39 1
40 1
41 1
42 1
43 1
44 1
45 1
46 1
47 1
48 1
49 1
50 1
51 1
52 1
53 1
54 1
55 1
56 1
57 1
58 1
59 1
60 1
61 1
62 1
63 1
64 1
65 1
66 1
67 1
68 1
69 1
70 1
71 1
72 1
73 1
74 1
75 1
76 1
77 1
78 1
79 1
80 1
81 1
82 1
83 1
84 1
85 1
86 1
87 1
88 1
89 1
90 1
91 1
92 1
93 1
94 1
95 1
96 1
COVERAGE_SECTION
2 9 435 565 499 427 428 436 488 324 313 
3 9 513 399 330 540 531 287 128 131 430 
4 8 533 159 465 512 82 364 523 5 
5 6 512 471 159 303 472 82 
6 8 184 197 547 322 441 39 98 408 
7 9 268 283 102 37 144 121 62 192 155 
8 9 89 125 224 196 143 361 105 124 340 
9 9 175 146 84 180 24 373 132 232 226 
10 7 323 267 401 206 277 181 288 
11 9 363 258 397 561 271 110 179 389 480 
12 7 164 494 543 524 384 417 515 
13 8 372 366 542 229 88 147 289 163 
14 9 459 537 558 564 491 81 492 506 486 
15 9 431 395 378 63 48 440 238 290 307 
16 9 507 466 187 432 450 519 337 247 541 
17 9 215 290 326 137 542 311 163 96 273 
18 7 391 463 148 103 556 425 560 
19 8 479 437 195 302 443 95 406 566 
20 9 75 194 122 352 126 46 353 23 235 
21 9 228 226 132 347 297 373 490 388 370 
22 7 552 385 434 382 474 498 233 
23 9 225 126 214 46 286 353 352 235 108 
24 8 180 175 9 146 84 232 373 452 
25 8 477 212 265 205 112 298 189 231 
26 9 157 218 362 138 162 274 245 211 208 
27 6 559 177 502 467 485 54 
28 9 468 221 315 113 400 72 516 36 40 
29 8 508 275 139 276 45 354 199 334 
30 7 299 549 458 409 65 407 106 
31 9 170 49 158 338 355 64 117 51 116 
32 8 213 70 350 398 201 142 483 207 
33 9 390 469 501 481 497 167 419 68 485 
34 9 344 222 262 161 163 257 111 88 96 
35 9 43 156 295 279 292 198 351 310 529 
36 9 221 315 28 369 100 438 377 445 452 
37 9 62 144 102 7 268 283 38 108 192 
38 9 286 235 353 108 214 301 352 23 126 
39 8 441 454 455 47 408 322 462 500 
40 9 516 261 113 72 315 345 468 86 183 
41 6 93 383 555 505 535 389 
42 8 493 473 178 405 109 396 536 487 
43 9 35 156 295 279 198 292 351 529 310 
44 7 318 418 189 265 204 477 190 
45 9 275 354 508 199 334 29 234 337 182 
46 9 23 126 225 214 352 286 353 194 20 
47 9 455 39 462 322 454 441 500 151 408 
48 9 356 378 394 307 288 431 238 15 206 
49 9 170 31 51 338 116 158 309 64 355 
50 7 534 140 448 525 415 503 560 
51 9 309 150 116 49 31 170 358 254 127 
52 9 171 91 325 98 360 237 107 83 376 
53 9 379 314 227 306 251 304 332 218 274 
54 9 485 559 496 167 177 497 419 27 501 
55 9 294 76 114 317 423 240 173 248 333 
56 7 166 446 153 209 554 312 149 
57 7 522 420 118 381 503 439 308 
58 9 341 368 351 416 198 310 295 156 217 
59 8 410 316 464 562 97 308 145 374 
60 9 244 305 139 247 334 92 29 354 337 
61 9 301 263 192 375 359 119 296 339 235 
62 9 37 144 102 7 268 283 108 38 192 
63 7 440 128 287 430 131 269 15 
64 9 338 117 170 31 49 158 242 285 355 
65 9 291 106 253 30 299 407 99 528 176 
66 8 151 346 203 403 521 500 462 478 
67 9 456 453 421 429 495 413 389 457 535 
68 6 460 402 348 329 230 509 
69 9 188 339 73 121 272 154 359 296 192 
70 8 213 566 331 32 398 207 142 201 
71 9 224 249 217 105 341 125 8 58 143 
72 9 113 345 282 261 468 516 40 28 183 
73 9 69 121 188 339 260 250 94 155 154 
74 8 328 276 219 270 335 123 29 239 
75 9 20 122 194 251 304 172 314 352 227 
76 8 114 55 294 317 240 423 173 259 
77 8 404 393 553 433 551 243 424 476 
78 9 185 237 483 160 376 91 107 52 322 
79 9 129 124 256 340 242 361 143 125 89 
80 9 488 135 313 380 499 435 565 447 2 
81 9 491 506 545 564 459 492 527 14 511 
82 7 472 159 303 461 546 512 5 
83 9 360 325 107 52 349 91 123 376 343 
84 9 373 146 9 175 132 226 180 21 24 
85 7 426 530 223 300 484 554 133 
86 8 273 289 40 147 516 261 542 315 
87 9 466 519 321 536 109 450 432 16 544 
88 9 13 163 372 366 542 229 111 161 326 
89 9 8 125 196 124 361 129 143 255 340 
90 9 482 557 526 236 264 386 538 392 216 
91 9 237 52 107 376 185 360 325 171 78 
92 9 335 305 244 139 60 29 276 239 74 
93 5 41 383 555 505 535 
94 9 241 154 219 328 120 260 272 73 134 
95 9 443 302 380 19 479 195 324 427 566 
96 9 257 222 326 137 215 163 17 290 395 
97 7 464 308 562 439 316 503 59 
98 9 171 52 91 325 197 237 174 360 173 
99 9 528 291 176 253 278 419 481 65 501 
100 7 152 136 438 369 388 36 221 
101 8 365 127 202 254 355 158 31 150 
102 9 7 268 283 37 62 144 192 38 121 
103 3 425 391 18 
104 7 478 521 203 403 346 563 66 
105 9 217 71 224 249 341 125 143 361 8 
106 9 407 253 299 65 177 27 291 30 458 
107 8 376 360 91 83 349 325 52 237 
108 9 214 286 38 225 23 353 126 235 46 
109 7 178 42 536 493 473 405 396 
110 9 480 258 371 11 266 561 397 186 200 
111 8 161 262 344 88 229 13 366 372 
112 7 231 265 25 220 212 477 130 
113 9 72 345 468 516 261 282 40 28 315 
114 8 76 317 55 294 240 173 423 547 
115 4 532 280 18 148 
116 9 309 358 51 49 285 170 31 150 338 
117 8 338 64 158 242 355 31 170 256 
118 5 284 381 57 522 420 
119 8 263 293 248 281 375 61 301 359 
120 9 260 94 241 239 250 73 155 328 219 
121 9 73 339 188 283 69 155 250 268 192 
122 9 194 75 20 304 46 251 126 314 352 
123 4 270 349 83 107 
124 9 340 129 79 361 143 125 256 242 89 
125 9 143 361 8 89 124 340 105 129 224 
126 9 23 46 225 214 352 286 353 235 20 
127 8 202 254 101 365 150 51 319 309 
128 7 430 287 131 269 63 3 440 
129 9 79 124 340 256 361 242 143 125 89 
130 6 436 2 220 231 212 427 
131 7 430 269 128 287 3 440 330 
132 9 226 21 228 373 347 84 297 146 388 
133 8 484 327 223 168 85 190 300 426 
134 9 343 272 154 219 241 83 123 94 328 
135 9 80 313 488 380 499 447 435 565 141 
136 8 152 369 100 388 373 490 21 228 
137 9 290 17 215 326 96 395 15 163 257 
138 9 362 208 245 26 211 218 274 157 162 
139 9 305 60 244 29 334 92 354 508 275 
140 8 50 534 448 503 525 439 415 560 
141 7 447 207 201 380 135 80 544 
142 7 398 213 160 331 70 483 32 
143 9 361 125 340 124 129 79 105 89 341 
144 9 37 62 102 7 268 283 155 250 38 
145 7 252 316 562 59 464 410 245 
146 9 84 373 9 175 132 180 226 24 21 
147 9 289 366 229 377 86 372 542 445 13 
148 9 463 18 560 391 415 556 280 103 425 
149 4 166 489 56 446 
150 8 309 51 254 127 202 116 211 358 
151 9 66 346 203 462 403 500 521 478 470 
152 7 136 388 100 369 490 228 21 
153 4 446 554 56 166 
154 9 272 134 241 94 343 219 69 328 73 
155 9 250 121 260 283 73 268 7 120 339 
156 9 43 35 279 351 295 198 292 529 368 
157 9 26 162 218 332 138 362 245 172 274 
158 8 355 31 170 117 338 49 64 365 
159 9 82 4 512 5 472 303 533 465 471 
160 9 483 78 142 398 185 322 237 213 376 
161 9 111 262 344 88 13 229 163 366 372 
162 8 157 26 245 218 138 333 332 172 
163 9 326 88 215 372 542 13 17 96 366 
164 7 12 417 543 494 384 524 515 
165 6 412 193 460 68 329 402 
166 6 56 446 153 209 149 312 
167 8 497 230 509 54 469 496 390 485 
168 5 223 133 327 85 484 
169 9 539 413 495 421 456 67 517 200 457 
170 9 31 49 338 64 158 117 355 116 51 
171 9 98 52 325 91 360 237 107 83 174 
172 9 332 251 227 157 162 26 281 379 314 
173 9 240 174 259 317 547 98 114 76 197 
174 8 259 173 240 98 171 52 317 547 
175 9 9 180 24 84 146 373 232 132 226 
176 8 278 528 99 291 253 65 481 181 
177 9 27 485 559 54 253 419 106 502 501 
178 6 109 42 405 493 473 536 
179 7 271 363 555 389 397 41 11 
180 8 24 175 9 146 84 232 373 132 
181 8 292 277 401 278 529 279 176 35 
182 7 234 199 275 45 201 508 350 
183 5 261 345 531 540 72 
184 9 197 6 547 322 98 441 39 237 171 
185 8 237 78 376 91 483 107 52 160 
186 8 397 11 205 298 363 110 271 258 
187 7 507 541 519 16 422 466 432 
188 9 69 339 73 121 359 192 296 272 375 
189 7 318 265 44 418 477 25 112 
190 7 327 418 133 246 44 484 168 
191 4 403 478 521 66 
192 9 61 339 301 188 375 121 263 283 359 
193 5 412 165 68 284 460 
194 9 122 20 75 46 126 304 352 23 225 
195 8 479 302 437 510 19 443 95 324 
196 7 255 320 89 8 129 79 124 
197 9 184 6 547 98 171 322 173 237 52 
198 9 295 310 351 156 43 35 58 368 279 
199 7 275 234 182 508 45 29 354 
200 9 517 561 480 258 169 110 11 389 456 
201 7 207 141 447 32 234 182 70 
202 8 127 254 101 365 150 319 51 367 
203 8 346 521 66 403 478 104 563 151 
204 8 246 336 44 418 318 266 190 371 
205 5 298 212 477 25 186 
206 7 288 356 267 307 10 394 323 
207 7 141 201 447 566 380 70 95 
208 9 138 245 362 26 211 374 410 274 218 
209 5 312 56 166 300 554 
210 9 193 33 412 390 64 256 165 242 469 
211 9 274 362 218 138 26 208 306 157 245 
212 6 25 205 477 298 112 265 
213 8 70 398 32 142 331 566 350 207 
214 9 23 225 286 126 353 46 108 235 352 
215 9 17 326 137 163 290 542 96 372 13 
216 5 504 482 90 264 538 
217 9 249 105 71 341 224 58 310 125 143 
218 9 26 274 157 362 211 138 306 162 332 
219 9 328 241 74 94 154 134 270 343 272 
220 7 231 324 427 112 130 2 302 
221 6 28 438 400 36 468 315 
222 9 257 96 326 163 137 34 215 17 88 
223 7 168 133 85 484 327 426 530 
224 9 71 105 217 249 8 125 89 143 357 
225 9 23 46 214 126 286 353 352 108 235 
226 9 132 21 228 347 373 297 84 146 388 
227 9 379 251 314 53 332 306 172 304 218 
228 8 21 226 347 132 490 370 388 297 
229 8 366 13 147 372 289 377 445 542 
230 6 509 486 518 537 558 14 
231 7 112 220 130 212 25 265 324 
232 8 452 445 377 369 175 24 180 229 
233 6 385 434 411 442 552 22 
234 6 182 199 45 275 201 508 
235 9 353 286 352 38 214 126 23 301 225 
236 5 538 392 482 90 387 
237 9 185 91 78 376 52 107 171 483 98 
238 5 307 288 378 48 356 
239 9 328 335 94 219 74 241 120 92 260 
240 9 173 317 259 174 114 76 547 55 294 
241 9 94 219 154 328 134 272 120 260 239 
242 7 256 79 117 129 124 340 64 
243 7 553 77 551 424 404 393 433 
244 9 305 60 139 247 92 29 334 354 337 
245 9 208 138 362 26 162 157 145 410 218 
246 7 204 336 190 418 44 318 266 
247 9 16 60 337 507 432 450 334 244 187 
248 8 119 281 293 263 55 294 375 359 
249 9 217 71 105 224 341 58 310 198 125 
250 9 155 260 121 73 283 120 268 7 339 
251 9 227 314 379 332 53 304 172 75 306 
252 6 145 316 562 464 333 59 
253 9 291 106 177 65 99 528 407 27 419 
254 8 202 127 150 319 101 367 365 51 
255 6 320 196 89 8 129 79 
256 8 242 79 129 124 340 117 64 361 
257 9 222 96 326 137 163 215 17 290 395 
258 9 110 11 480 561 363 397 200 186 371 
259 8 174 173 240 98 171 317 114 76 
260 9 120 94 250 73 155 241 121 69 154 
261 7 345 40 516 113 72 183 282 
262 9 161 344 111 88 34 13 24 163 229 
263 8 119 61 301 375 293 248 359 281 
264 4 504 526 90 216 
265 8 189 25 112 477 318 212 44 231 
266 9 371 336 110 480 258 186 204 11 397 
267 5 323 549 206 10 30 
268 9 283 7 102 121 37 155 144 250 192 
269 6 131 430 128 287 440 3 
270 3 123 74 349 
271 6 179 363 397 11 389 555 
272 9 154 134 343 241 69 219 94 188 73 
273 6 311 86 183 261 40 516 
274 9 211 218 362 26 138 306 208 157 245 
275 8 508 45 199 29 354 334 234 182 
276 7 29 508 74 275 335 139 199 
277 8 401 181 292 35 43 279 10 529 
278 8 176 528 99 181 291 529 65 253 
279 9 529 156 292 43 35 351 368 295 198 
280 6 148 115 532 560 18 463 
281 8 293 119 248 172 263 75 20 332 
282 9 345 72 113 468 261 364 400 516 183 
283 9 268 7 102 121 155 192 250 37 144 
284 4 118 381 57 522 
285 9 116 284 170 381 49 64 338 358 193 
286 9 353 235 214 126 352 23 38 225 46 
287 9 128 430 131 269 3 330 399 63 513 
288 7 307 356 238 48 206 378 394 
289 9 147 86 366 229 377 542 372 445 13 
290 9 137 17 215 395 311 326 15 273 330 
291 9 99 253 528 65 106 176 177 419 278 
292 8 279 43 35 529 156 181 277 295 
293 8 281 119 248 263 75 172 301 20 
294 8 55 76 114 423 317 240 333 248 
295 9 198 310 35 43 156 351 279 58 368 
296 8 359 375 188 69 263 61 339 248 
297 7 347 226 21 228 132 370 490 
298 5 205 212 477 271 25 
299 8 30 458 407 409 106 549 65 467 
300 7 554 312 85 153 484 446 209 
301 9 61 263 235 192 119 375 38 353 352 
302 9 443 195 95 324 427 479 19 510 380 
303 5 472 82 461 512 546 
304 9 314 379 53 251 227 122 306 75 194 
305 9 244 60 139 92 247 29 335 334 354 
306 9 53 379 274 218 227 211 314 332 26 
307 7 288 238 356 378 48 394 206 
308 7 439 97 503 464 57 59 562 
309 9 51 150 116 49 358 170 31 254 127 
310 9 198 295 351 58 43 156 35 368 341 
311 6 273 399 330 540 513 3 
312 6 300 209 554 484 153 56 
313 9 488 499 80 435 565 135 428 2 380 
314 9 379 53 227 251 304 332 306 172 218 
315 9 516 28 40 468 113 36 72 261 221 
316 7 59 464 562 145 410 97 252 
317 7 114 76 240 547 173 55 294 
318 7 44 189 418 265 477 25 204 
319 8 367 254 202 127 306 53 150 304 
320 6 255 196 89 129 8 79 
321 8 544 87 450 432 337 466 354 334 
322 9 47 39 6 441 455 184 454 160 78 
323 7 267 10 30 549 65 401 206 
324 9 427 220 302 2 443 435 488 95 380 
325 9 360 83 52 107 171 91 98 376 237 
326 9 215 17 163 96 137 290 542 88 372 
327 7 133 168 484 223 190 85 418 
328 9 219 74 241 94 239 335 154 270 134 
329 6 402 348 460 68 518 486 
330 9 399 3 513 540 287 128 531 430 131 
331 5 566 70 213 142 19 
332 9 172 227 251 157 379 218 314 53 26 
333 8 423 162 252 145 294 245 157 55 
334 9 354 337 432 450 45 275 247 16 29 
335 9 92 74 276 239 139 328 29 305 244 
336 9 204 266 371 246 186 110 44 318 480 
337 9 432 450 334 354 16 466 247 507 45 
338 8 64 170 31 117 49 158 355 285 
339 9 188 69 121 73 192 359 375 61 296 
340 9 124 129 361 79 143 125 256 242 89 
341 9 58 416 217 368 105 351 249 143 198 
342 6 551 433 77 243 548 269 
343 9 134 272 83 154 360 123 325 219 107 
344 9 262 161 111 34 88 163 13 372 229 
345 8 72 113 261 282 516 183 468 40 
346 9 203 66 151 521 403 478 500 563 104 
347 7 297 228 21 370 226 132 490 
348 6 402 329 460 68 518 486 
349 4 107 376 123 83 
350 3 32 182 483 
351 9 368 198 156 58 295 43 310 279 35 
352 9 353 235 126 286 23 214 20 46 225 
353 9 235 286 352 126 214 23 38 225 46 
354 9 334 45 337 432 450 275 508 29 199 
355 7 158 31 117 170 338 49 365 
356 8 48 288 394 307 378 238 206 431 
357 9 8 224 89 71 105 125 196 249 217 
358 9 116 374 309 51 208 211 285 362 138 
359 8 296 375 61 263 188 339 69 119 
360 9 83 325 107 52 91 171 376 349 237 
361 9 143 340 124 125 129 79 89 105 8 
362 9 138 208 211 274 26 218 245 157 162 
363 8 11 271 179 397 389 561 258 186 
364 7 523 465 282 4 533 414 400 
365 9 101 127 202 355 158 254 31 51 49 
366 8 13 372 542 229 147 289 88 377 
367 8 319 254 53 306 304 202 379 127 
368 9 351 58 416 156 198 279 341 529 43 
369 8 136 100 452 152 36 445 232 377 
370 5 490 347 228 21 297 
371 9 266 110 336 480 258 186 11 397 204 
372 9 13 366 542 229 88 147 289 163 86 
373 9 84 146 132 226 9 21 175 228 136 
374 9 410 358 59 208 381 138 245 316 362 
375 9 359 296 61 263 119 301 192 248 339 
376 6 107 185 91 237 349 78 
377 8 445 452 147 229 232 289 369 36 
378 9 48 431 307 356 238 288 15 394 395 
379 9 314 53 227 251 306 304 332 218 172 
380 9 80 95 488 135 447 141 443 313 427 
381 6 284 118 57 522 420 374 
382 3 474 22 498 
383 5 93 505 41 535 555 
384 6 524 515 12 494 164 543 
385 7 233 434 22 552 442 411 382 
386 6 557 526 387 90 264 482 
387 4 557 386 90 392 
388 6 490 152 228 136 21 100 
389 9 41 363 179 67 456 555 93 561 271 
390 8 33 469 497 167 68 501 481 460 
391 6 18 463 103 425 148 556 
392 6 236 538 482 90 387 557 
393 9 404 77 433 476 553 551 424 444 243 
394 8 356 48 288 378 307 206 431 238 
395 9 15 431 290 137 378 63 48 17 238 
396 5 550 536 487 42 493 
397 8 363 186 11 271 179 258 298 110 
398 8 142 213 32 160 70 483 331 350 
399 8 330 513 3 540 531 287 128 311 
400 5 221 468 28 282 72 
401 8 277 181 10 323 292 278 267 65 
402 6 348 329 460 68 518 486 
403 8 521 478 66 203 346 191 151 104 
404 9 393 77 433 553 476 551 424 243 444 
405 4 473 493 42 178 
406 4 437 449 479 19 
407 7 106 299 458 467 409 502 30 
408 3 441 454 39 
409 5 458 299 549 407 30 
410 9 59 316 374 464 208 145 308 245 562 
411 7 233 385 552 449 434 22 442 
412 7 165 193 68 460 329 402 348 
413 8 495 421 539 457 169 67 456 453 
414 5 546 523 465 82 461 
415 6 560 148 448 463 556 18 
416 9 368 58 341 351 198 156 279 529 310 
417 6 164 12 543 489 494 384 
418 7 44 318 189 190 265 204 327 
419 9 501 481 485 469 177 54 497 99 253 
420 5 522 57 503 525 439 
421 9 495 413 539 457 456 67 453 429 169 
422 6 541 187 507 16 519 247 
423 8 333 294 55 76 252 162 114 145 
424 6 553 77 243 404 393 476 
425 3 103 391 18 
426 4 530 85 442 223 
427 9 324 2 220 302 443 435 488 565 380 
428 6 565 499 435 436 2 313 
429 6 453 457 67 421 535 456 
430 7 131 128 269 287 3 440 63 
431 9 378 15 48 395 238 307 356 394 288 
432 9 450 337 334 16 466 354 247 507 87 
433 9 551 393 77 404 548 342 553 243 476 
434 6 385 22 442 233 552 382 
435 9 565 499 313 2 488 428 80 135 436 
436 4 428 2 130 565 
437 6 479 195 510 19 406 302 
438 5 100 221 36 149 28 
439 9 503 308 97 140 420 534 50 525 57 
440 7 63 128 269 430 548 131 342 
441 6 39 454 408 455 47 322 
442 6 434 233 530 385 426 22 
443 9 302 95 195 324 427 380 479 19 437 
444 4 476 393 404 77 
445 8 377 452 232 229 147 369 289 36 
446 4 153 56 554 166 
447 7 141 135 207 380 80 201 544 
448 4 50 415 534 525 
449 4 498 552 406 22 
450 9 432 337 334 16 466 354 507 87 247 
451 5 511 527 545 81 491 
452 8 445 377 232 369 229 147 36 289 
453 7 429 67 456 457 535 421 495 
454 7 39 441 455 408 47 500 462 
455 9 454 47 39 462 441 500 514 408 151 
456 9 67 453 421 495 429 413 389 457 539 
457 7 429 421 453 495 413 67 456 
458 7 409 299 407 30 549 106 467 
459 9 564 14 506 81 491 537 558 492 545 
460 6 329 402 348 68 518 486 
461 4 546 472 303 82 
462 9 500 151 455 66 47 346 203 514 454 
463 7 18 148 391 556 560 103 415 
464 7 97 562 316 308 59 439 410 
465 7 523 364 4 159 414 533 82 
466 9 16 519 87 507 450 432 187 337 541 
467 3 502 27 407 
468 9 28 113 72 282 345 516 315 400 40 
469 9 501 33 497 390 481 167 419 485 54 
470 2 151 66 
471 3 5 512 159 
472 7 303 82 461 546 512 159 5 
473 5 493 42 405 178 487 
474 3 382 22 494 
475 6 520 558 537 459 564 14 
476 5 444 393 404 424 77 
477 8 25 212 205 265 298 189 318 112 
478 7 521 104 403 203 346 191 66 
479 8 19 195 437 302 443 510 95 406 
480 9 110 258 371 200 561 11 266 517 397 
481 9 501 419 469 33 485 497 54 390 99 
482 8 90 538 236 392 557 216 526 264 
483 7 160 78 185 376 398 237 350 
484 7 133 223 327 85 300 312 168 
485 9 54 177 419 559 501 27 497 167 496 
486 6 518 509 230 537 558 14 
487 5 396 550 493 42 473 
488 9 80 313 435 499 135 565 380 2 428 
489 3 417 164 12 
490 5 388 370 228 21 152 
491 9 81 506 492 527 545 459 564 14 511 
492 8 491 81 527 14 459 506 564 537 
493 5 473 42 405 178 487 
494 7 543 12 515 524 164 384 417 
495 9 421 413 539 457 67 456 453 169 429 
496 6 54 492 230 559 509 167 
497 8 167 469 54 390 501 230 485 496 
498 3 552 449 22 
499 8 565 435 313 428 488 2 80 135 
500 9 462 514 346 151 66 455 563 203 454 
501 9 481 419 469 485 497 33 54 167 390 
502 2 467 27 
503 9 439 308 420 534 525 140 522 50 57 
504 5 216 264 90 482 526 
505 4 383 93 535 41 
506 9 81 491 545 564 459 511 14 527 492 
507 9 187 16 541 519 466 422 247 432 450 
508 7 275 29 45 199 276 354 334 
509 6 230 486 518 537 558 14 
510 7 195 437 479 302 411 19 406 
511 8 545 506 81 451 491 527 564 459 
512 7 5 159 471 82 472 303 4 
513 8 3 399 540 330 531 287 128 131 
514 7 563 500 203 346 66 104 151 
515 5 524 494 384 12 543 
516 9 40 113 261 72 315 345 468 28 183 
517 9 200 561 169 480 258 110 539 11 456 
518 6 486 558 509 537 230 14 
519 6 466 187 541 507 16 87 
520 7 475 558 537 518 14 459 486 
521 8 478 403 203 346 104 66 151 191 
522 4 420 57 118 503 
523 6 364 465 414 4 282 533 
524 6 384 515 12 494 164 543 
525 4 534 50 448 420 
526 5 386 557 264 90 482 
527 7 491 81 492 545 451 506 511 
528 8 99 176 291 278 253 419 481 65 
529 8 279 292 156 43 351 368 35 181 
530 3 426 442 85 
531 5 540 513 3 399 183 
532 5 115 280 18 391 148 
533 7 4 531 159 465 183 364 282 
534 5 50 525 140 448 503 
535 4 383 505 93 41 
536 7 396 550 42 109 493 473 487 
537 8 558 14 459 486 518 564 520 491 
538 5 236 392 482 90 216 
539 8 413 495 169 421 457 456 67 453 
540 5 513 531 3 399 330 
541 5 187 507 519 422 16 
542 9 372 13 366 147 289 229 88 86 215 
543 7 494 12 164 417 515 524 384 
544 7 321 447 87 141 135 450 201 
545 9 511 506 81 491 527 451 564 459 492 
546 5 461 82 414 472 303 
547 6 197 184 6 317 173 240 
548 8 433 393 551 404 77 342 440 444 
549 4 30 409 299 458 
550 4 396 536 487 42 
551 9 433 77 243 404 342 393 553 548 424 
552 7 22 385 498 434 449 233 382 
553 8 424 77 243 404 393 551 433 476 
554 5 300 153 312 446 85 
555 6 93 41 383 505 179 535 
556 6 463 18 103 391 148 415 
557 8 386 90 526 387 482 264 236 392 
558 8 537 14 518 486 459 520 564 509 
559 6 27 54 485 177 496 502 
560 9 148 415 463 18 280 556 391 448 50 
561 9 258 11 200 363 389 480 110 517 397 
562 6 464 97 316 59 252 145 
563 8 514 203 346 104 500 521 478 66 
564 9 459 506 14 81 491 537 558 545 492 
565 8 499 435 313 428 488 2 80 135 
566 9 331 70 207 19 95 213 479 443 32 
DEPOT_SECTION
   1
   -1
EOF
