NAME :  X-n936-kX-w187-c11.cctp
COMMENT : 	Adapted by Maziero, Usberti and Cavellucci from the Uchoa, Pecin, Pessoa, Poggi, Subramanian, and Vidal (2013)
TYPE :  CCTP
DIMENSION :    890
EDGE_WEIGHT_TYPE : 	EUC_2D	
CAPACITY : 	138
VERTICES_WITHIN_COVERAGE :  11
VERTICES_WITH_DEMAND : 	187
NODE_COORD_SECTION
1 500 500
2 971 544
3 564 976
4 266 4
5 395 95
6 316 877
7 963 89
8 496 96
9 274 493
10 516 598
11 338 849
12 58 395
13 923 411
14 670 912
15 576 101
16 902 552
17 888 709
18 703 539
19 10 341
20 55 984
21 420 132
22 870 218
23 933 196
24 123 372
25 973 824
26 253 201
27 84 941
28 792 164
29 702 811
30 263 756
31 161 986
32 322 75
33 969 514
34 140 665
35 313 386
36 53 583
37 836 244
38 450 730
39 642 334
40 907 431
41 570 705
42 587 264
43 703 666
44 877 132
45 138 487
46 275 598
47 2 354
48 538 460
49 716 573
50 65 579
51 505 17
52 544 958
53 175 838
54 838 67
55 122 410
56 126 430
57 598 544
58 299 442
59 224 930
60 593 453
61 764 848
62 485 95
63 130 114
64 832 863
65 659 293
66 259 936
67 615 141
68 808 263
69 970 317
70 815 888
71 405 330
72 64 525
73 588 746
74 170 392
75 681 640
76 223 283
77 109 297
78 675 904
79 576 171
80 484 439
81 329 79
82 504 393
83 676 664
84 124 658
85 749 89
86 162 848
87 521 0
88 1 873
89 72 718
90 983 770
91 104 702
92 47 781
93 706 244
94 626 678
95 370 431
96 776 346
97 259 339
98 579 606
99 719 491
100 777 297
101 45 562
102 662 602
103 502 327
104 218 628
105 581 867
106 517 232
107 524 21
108 348 100
109 84 93
110 118 76
111 544 801
112 990 739
113 980 477
114 267 231
115 774 530
116 45 336
117 390 140
118 93 808
119 377 216
120 998 949
121 645 597
122 554 435
123 973 506
124 405 399
125 778 252
126 935 755
127 130 186
128 405 776
129 20 901
130 349 926
131 874 686
132 212 933
133 313 230
134 239 121
135 180 574
136 620 990
137 797 316
138 876 34
139 481 60
140 501 833
141 315 125
142 856 368
143 158 494
144 304 611
145 916 16
146 606 344
147 48 866
148 557 242
149 348 238
150 881 199
151 942 308
152 367 909
153 567 429
154 263 687
155 80 592
156 917 557
157 229 120
158 663 574
159 661 630
160 969 401
161 193 230
162 820 144
163 330 976
164 363 421
165 24 571
166 799 697
167 693 323
168 519 860
169 487 344
170 497 48
171 803 6
172 933 729
173 50 642
174 137 27
175 668 500
176 679 303
177 387 948
178 770 982
179 751 922
180 911 626
181 874 634
182 775 271
183 464 526
184 358 1
185 87 466
186 360 776
187 678 210
188 831 505
189 310 98
190 60 386
191 211 11
192 717 474
193 27 576
194 239 512
195 339 610
196 480 11
197 590 578
198 288 823
199 164 489
200 900 201
201 632 524
202 738 109
203 893 40
204 540 895
205 212 305
206 323 70
207 363 67
208 646 520
209 9 393
210 128 947
211 353 737
212 216 578
213 25 274
214 195 119
215 221 479
216 94 951
217 14 611
218 271 437
219 376 441
220 33 583
221 899 242
222 773 188
223 860 280
224 149 839
225 813 956
226 773 271
227 863 14
228 216 323
229 808 127
230 287 138
231 529 712
232 538 620
233 631 17
234 35 132
235 332 451
236 373 454
237 607 153
238 941 985
239 573 829
240 434 192
241 138 825
242 627 320
243 883 457
244 383 339
245 206 590
246 924 152
247 717 463
248 340 43
249 870 772
250 363 386
251 862 991
252 375 592
253 766 958
254 679 316
255 931 697
256 11 913
257 611 501
258 310 130
259 867 257
260 728 74
261 698 23
262 898 404
263 452 788
264 397 910
265 786 605
266 745 715
267 69 902
268 660 810
269 521 591
270 713 540
271 513 141
272 354 109
273 596 71
274 280 435
275 563 585
276 740 301
277 476 563
278 906 759
279 494 590
280 834 195
281 765 282
282 488 289
283 568 869
284 997 212
285 702 13
286 175 81
287 125 900
288 290 663
289 852 555
290 71 327
291 84 429
292 982 249
293 611 223
294 731 863
295 40 563
296 703 347
297 661 662
298 773 288
299 638 588
300 678 775
301 824 341
302 729 935
303 650 197
304 415 366
305 134 657
306 542 714
307 154 654
308 624 499
309 960 5
310 522 197
311 935 115
312 338 567
313 621 926
314 554 225
315 976 124
316 892 594
317 605 401
318 963 118
319 499 330
320 218 594
321 790 923
322 296 46
323 623 94
324 14 439
325 49 257
326 454 598
327 398 986
328 195 838
329 540 227
330 718 784
331 409 746
332 35 456
333 762 832
334 592 591
335 196 254
336 394 226
337 409 522
338 753 35
339 202 846
340 916 395
341 830 95
342 24 750
343 976 279
344 865 302
345 343 344
346 409 702
347 301 254
348 578 746
349 767 318
350 259 335
351 349 767
352 571 676
353 744 582
354 380 734
355 366 576
356 64 936
357 248 717
358 531 123
359 176 708
360 479 758
361 82 818
362 922 369
363 684 955
364 942 265
365 374 998
366 717 478
367 367 372
368 781 973
369 81 883
370 536 97
371 787 785
372 26 285
373 491 117
374 949 12
375 80 279
376 916 998
377 715 860
378 978 655
379 463 711
380 385 797
381 196 283
382 602 591
383 728 198
384 577 759
385 204 79
386 251 30
387 746 628
388 334 850
389 338 954
390 308 324
391 969 149
392 705 430
393 22 125
394 610 463
395 922 681
396 439 747
397 13 834
398 946 578
399 491 438
400 893 830
401 558 441
402 525 263
403 517 36
404 571 882
405 643 965
406 120 476
407 377 460
408 787 273
409 849 702
410 340 19
411 635 520
412 607 304
413 779 347
414 603 139
415 55 419
416 928 789
417 487 234
418 108 249
419 971 558
420 983 839
421 820 413
422 466 494
423 788 959
424 726 276
425 0 885
426 504 525
427 759 351
428 132 804
429 680 566
430 801 108
431 90 614
432 69 317
433 666 531
434 638 898
435 319 639
436 358 855
437 345 118
438 501 939
439 809 837
440 271 94
441 184 431
442 577 166
443 249 631
444 37 855
445 225 839
446 257 910
447 163 960
448 336 595
449 591 477
450 638 385
451 398 781
452 801 917
453 980 748
454 629 565
455 518 59
456 171 816
457 386 852
458 527 405
459 520 113
460 959 231
461 927 484
462 320 976
463 460 840
464 638 118
465 987 640
466 343 933
467 4 457
468 535 683
469 30 800
470 496 80
471 243 194
472 630 363
473 845 547
474 162 843
475 50 364
476 555 775
477 171 505
478 869 873
479 15 809
480 597 797
481 795 196
482 237 62
483 682 724
484 335 977
485 569 427
486 481 295
487 215 59
488 651 692
489 560 666
490 157 438
491 769 951
492 824 134
493 850 450
494 348 742
495 730 945
496 773 913
497 769 561
498 538 228
499 229 200
500 806 122
501 711 514
502 834 378
503 173 688
504 879 789
505 548 987
506 961 861
507 634 81
508 876 764
509 230 630
510 466 535
511 536 102
512 133 535
513 784 861
514 602 148
515 134 487
516 940 737
517 815 360
518 821 842
519 512 487
520 38 639
521 8 577
522 278 643
523 79 371
524 126 655
525 627 223
526 336 973
527 74 924
528 350 839
529 9 780
530 66 944
531 814 382
532 74 990
533 707 856
534 447 745
535 71 122
536 820 364
537 254 702
538 943 660
539 820 679
540 873 665
541 101 533
542 456 728
543 726 474
544 806 226
545 771 559
546 24 828
547 761 118
548 263 505
549 3 602
550 423 799
551 89 151
552 604 17
553 480 109
554 215 101
555 269 982
556 134 993
557 905 394
558 185 224
559 304 162
560 234 264
561 878 612
562 620 156
563 303 278
564 44 855
565 533 864
566 718 798
567 64 437
568 743 738
569 760 816
570 87 637
571 834 898
572 185 572
573 599 142
574 76 267
575 648 838
576 170 474
577 847 75
578 991 131
579 987 776
580 783 329
581 921 646
582 411 976
583 638 775
584 423 993
585 684 597
586 329 406
587 293 468
588 875 548
589 784 495
590 549 509
591 197 614
592 357 841
593 191 919
594 829 509
595 176 239
596 292 100
597 710 967
598 381 271
599 133 135
600 807 453
601 467 749
602 369 804
603 549 358
604 228 411
605 422 893
606 412 751
607 982 733
608 589 381
609 860 42
610 78 903
611 569 345
612 122 157
613 894 355
614 527 51
615 966 7
616 648 970
617 669 263
618 334 63
619 804 987
620 665 637
621 632 101
622 772 217
623 445 251
624 807 906
625 251 470
626 484 123
627 98 682
628 843 317
629 959 30
630 262 911
631 871 459
632 728 510
633 334 535
634 348 353
635 946 531
636 118 14
637 291 752
638 938 361
639 85 112
640 874 752
641 566 966
642 680 491
643 130 180
644 558 532
645 228 473
646 177 434
647 499 981
648 937 557
649 170 92
650 484 525
651 689 524
652 617 651
653 609 240
654 773 84
655 857 102
656 619 498
657 13 695
658 905 706
659 446 478
660 555 993
661 112 144
662 815 693
663 826 813
664 774 487
665 313 120
666 277 759
667 391 455
668 817 760
669 787 325
670 286 363
671 189 724
672 517 641
673 39 562
674 722 245
675 100 949
676 98 751
677 928 681
678 508 959
679 247 144
680 101 476
681 46 938
682 395 820
683 592 826
684 410 990
685 693 941
686 60 300
687 220 235
688 801 457
689 868 188
690 509 886
691 171 754
692 631 311
693 773 569
694 572 581
695 938 403
696 334 749
697 317 863
698 410 401
699 967 345
700 923 234
701 609 241
702 13 883
703 155 385
704 463 764
705 698 572
706 356 465
707 694 529
708 893 883
709 608 537
710 876 170
711 293 93
712 620 941
713 217 857
714 971 225
715 607 215
716 566 671
717 829 126
718 353 996
719 68 960
720 688 990
721 569 563
722 819 29
723 91 351
724 258 668
725 486 578
726 599 841
727 637 370
728 743 89
729 93 635
730 287 690
731 846 975
732 738 183
733 78 389
734 404 706
735 195 232
736 537 567
737 81 414
738 721 77
739 618 854
740 512 627
741 448 179
742 334 10
743 995 688
744 613 12
745 725 542
746 171 228
747 663 226
748 867 142
749 161 250
750 485 465
751 913 100
752 880 698
753 360 974
754 485 582
755 336 126
756 205 23
757 77 83
758 498 141
759 990 797
760 261 397
761 838 659
762 706 222
763 136 687
764 92 894
765 869 500
766 878 112
767 744 525
768 96 830
769 725 444
770 10 324
771 781 904
772 995 534
773 915 464
774 679 632
775 419 805
776 338 854
777 400 176
778 536 577
779 535 103
780 8 650
781 94 338
782 812 968
783 206 62
784 711 300
785 367 345
786 817 375
787 215 838
788 482 199
789 538 736
790 546 974
791 185 253
792 639 364
793 888 908
794 12 388
795 624 519
796 965 418
797 130 464
798 985 43
799 445 191
800 36 437
801 869 362
802 449 675
803 980 804
804 54 321
805 901 710
806 582 253
807 813 96
808 295 739
809 726 504
810 888 766
811 485 952
812 617 620
813 47 135
814 699 715
815 990 890
816 951 664
817 274 884
818 677 618
819 270 576
820 812 834
821 13 418
822 309 509
823 727 310
824 788 858
825 580 301
826 414 438
827 712 540
828 48 732
829 490 483
830 636 970
831 30 346
832 841 214
833 962 807
834 947 684
835 440 957
836 990 333
837 417 506
838 149 678
839 153 236
840 396 878
841 984 703
842 373 62
843 334 190
844 543 908
845 988 913
846 575 465
847 600 467
848 989 243
849 463 540
850 40 530
851 522 854
852 643 379
853 884 415
854 124 779
855 402 955
856 466 117
857 547 294
858 383 811
859 380 304
860 73 831
861 299 858
862 730 158
863 674 908
864 309 487
865 739 812
866 546 173
867 734 916
868 293 376
869 670 846
870 87 244
871 559 950
872 716 790
873 891 306
874 842 77
875 277 644
876 589 803
877 450 327
878 179 362
879 31 55
880 824 185
881 545 822
882 863 311
883 683 106
884 158 219
885 823 342
886 733 905
887 794 607
888 661 205
889 888 583
890 208 385
DEMAND_SECTION
2 88
3 98
4 94
5 89
6 83
7 65
8 85
9 66
10 89
11 80
12 58
13 54
14 75
15 60
16 77
17 69
18 79
19 99
20 86
21 63
22 84
23 92
24 87
25 54
26 93
27 58
28 62
29 98
30 50
31 71
32 55
33 61
34 76
35 76
36 88
37 51
38 78
39 71
40 90
41 90
42 87
43 80
44 74
45 83
46 79
47 77
48 58
49 53
50 99
51 62
52 95
53 61
54 84
55 86
56 91
57 79
58 93
59 76
60 88
61 68
62 80
63 59
64 82
65 53
66 67
67 90
68 51
69 99
70 72
71 70
72 85
73 80
74 80
75 81
76 100
77 60
78 74
79 52
80 70
81 70
82 53
83 92
84 55
85 73
86 63
87 55
88 68
89 100
90 69
91 77
92 55
93 68
94 81
95 89
96 70
97 59
98 76
99 51
100 99
101 92
102 78
103 75
104 84
105 98
106 81
107 96
108 99
109 100
110 71
111 50
112 76
113 80
114 55
115 51
116 79
117 62
118 86
119 62
120 79
121 81
122 84
123 72
124 77
125 61
126 64
127 70
128 84
129 90
130 63
131 74
132 92
133 93
134 58
135 99
136 98
137 57
138 50
139 87
140 85
141 62
142 83
143 82
144 89
145 97
146 68
147 52
148 81
149 91
150 64
151 68
152 87
153 85
154 100
155 74
156 66
157 59
158 95
159 67
160 86
161 58
162 92
163 69
164 92
165 64
166 75
167 52
168 91
169 70
170 52
171 66
172 68
173 61
174 72
175 60
176 70
177 83
178 53
179 57
180 70
181 71
182 61
183 86
184 54
185 73
186 79
187 97
188 86
COVERAGE_SECTION
2 11 419 772 635 33 648 123 398 156 113 16 461 
3 11 641 790 505 660 871 52 136 678 647 712 844 
4 11 386 322 191 756 482 742 487 410 783 248 206 
5 11 842 207 272 21 117 108 437 755 81 618 856 
6 11 697 861 388 776 11 817 436 528 592 130 152 
7 11 318 315 311 578 751 798 629 391 246 374 615 
8 11 62 470 553 373 459 626 856 139 370 511 779 
9 11 548 587 625 864 822 194 645 215 218 58 274 
10 11 269 279 740 778 232 754 725 736 672 275 277 
11 11 388 776 528 436 592 697 6 861 457 602 198 
12 11 190 733 415 737 475 523 567 291 794 800 209 
13 11 340 695 557 40 262 853 362 796 160 638 773 
14 11 863 78 434 685 363 313 712 405 616 302 886 
15 11 273 370 511 779 414 573 323 358 514 67 621 
16 11 156 588 889 648 316 635 289 398 473 765 561 
17 11 805 752 658 131 409 395 255 640 540 172 677 
18 11 827 270 707 651 745 501 705 429 49 433 632 
19 11 47 770 831 116 475 794 804 209 372 290 432 
20 11 532 719 530 681 356 216 27 675 527 556 210 
21 11 117 5 777 856 741 240 553 799 626 272 373 
22 11 150 832 689 200 221 259 37 280 710 700 880 
23 11 200 700 460 246 714 150 221 391 710 689 284 
24 11 703 55 723 523 781 733 74 878 56 737 190 
25 11 420 833 803 759 506 579 90 416 815 453 126 
26 11 471 499 114 687 679 559 560 735 133 161 230 
27 11 216 530 675 527 356 719 610 681 267 210 764 
28 11 222 481 162 880 229 492 500 280 717 547 430 
29 11 566 872 330 865 268 300 533 869 377 569 294 
30 11 666 637 808 357 537 154 730 696 198 671 494 
31 11 447 556 210 675 593 132 216 59 532 27 287 
32 11 206 81 618 189 711 108 248 322 596 207 665 
33 11 123 635 2 772 113 419 461 648 156 398 773 
34 11 305 838 84 524 307 763 503 627 91 359 729 
35 11 868 586 670 634 250 345 760 367 58 274 164 
36 11 50 220 101 295 673 193 155 165 521 217 431 
37 11 832 68 259 544 22 223 280 408 125 880 221 
38 11 542 534 396 379 601 704 360 606 331 346 734 
39 11 242 692 792 472 727 146 254 65 852 412 176 
40 11 13 262 853 773 243 340 557 695 631 461 796 
41 11 306 352 716 489 468 231 348 73 789 384 94 
42 11 806 701 653 148 825 412 293 857 314 715 525 
43 11 83 75 297 774 620 814 159 818 387 488 483 
44 11 748 766 655 710 717 751 246 492 689 162 311 
45 11 515 143 406 797 199 576 477 680 512 490 185 
46 11 819 144 443 522 875 509 320 435 448 212 104 
47 11 19 831 770 794 209 116 475 804 821 190 12 
48 11 401 122 519 846 153 485 590 399 750 829 60 
49 11 705 353 745 270 827 18 429 585 707 158 497 
50 11 36 155 101 295 673 220 193 165 431 72 850 
51 11 107 403 87 196 170 614 455 139 470 8 62 
52 11 790 871 641 3 505 678 660 438 844 647 811 
53 11 474 86 328 456 224 339 241 787 713 445 428 
54 11 874 577 341 609 807 655 722 138 430 227 717 
55 11 56 24 703 737 291 490 733 74 797 523 646 
56 11 55 490 797 291 406 737 646 680 185 703 24 
57 11 709 197 721 795 454 201 644 411 257 694 334 
58 11 274 587 218 235 864 586 625 9 35 760 706 
59 11 132 593 66 446 630 447 817 555 713 31 339 
60 11 847 394 846 449 153 485 401 122 257 656 317 
61 11 333 513 824 569 294 865 439 377 820 518 533 
62 11 8 553 470 373 626 856 139 459 758 170 455 
63 11 599 661 110 612 639 649 109 551 286 535 757 
64 11 518 70 439 571 820 478 824 513 624 663 452 
65 11 176 254 617 692 242 39 167 784 412 747 93 
66 11 630 446 59 132 555 817 593 462 163 389 6 
67 11 414 237 514 562 573 464 621 442 323 79 15 
68 11 408 125 37 182 226 544 298 100 281 137 223 
69 11 836 699 151 343 638 364 292 362 848 873 160 
70 11 624 571 64 452 771 824 513 321 518 496 439 
71 11 244 859 304 785 877 367 634 345 598 124 250 
72 11 850 541 101 295 673 50 36 165 680 185 193 
73 11 348 384 476 41 789 480 306 876 583 231 111 
74 10 703 878 890 441 646 490 24 55 56 604 
75 11 774 620 159 818 83 297 43 102 585 121 488 
76 11 560 205 381 335 228 687 791 735 161 350 595 
77 11 375 781 432 574 290 418 686 723 870 804 749 
78 11 863 14 434 685 363 313 533 869 886 377 867 
79 11 442 866 514 237 573 414 562 67 715 314 310 
80 9 399 750 829 82 659 458 519 48 422 
81 11 32 206 618 189 108 207 248 272 711 437 596 
82 11 458 399 80 169 603 319 122 103 401 153 485 
83 11 297 75 43 620 774 159 488 818 94 814 483 
84 11 524 305 34 307 763 838 627 729 570 91 431 
85 11 728 202 654 260 738 547 338 430 807 500 883 
86 11 474 53 224 241 456 328 339 428 787 713 287 
87 11 107 51 403 196 614 170 455 139 470 552 744 
88 11 425 702 129 444 256 397 564 147 546 479 267 
89 11 828 91 676 627 342 657 92 763 84 173 854 
90 11 579 453 759 112 803 607 833 126 516 25 416 
91 11 627 763 89 84 676 838 34 524 305 828 570 
92 11 469 529 342 479 828 361 546 118 860 676 397 
93 11 674 762 424 617 187 747 383 784 888 176 276 
94 11 652 488 297 83 352 620 159 812 716 41 75 
95 11 164 219 236 407 667 706 235 826 250 124 586 
96 11 413 427 580 669 349 137 517 885 301 536 100 
97 11 350 670 228 868 390 205 760 76 890 35 563 
98 11 334 275 694 382 197 812 232 721 778 736 652 
99 11 366 809 192 543 632 501 247 642 767 651 707 
100 11 298 281 349 182 226 408 137 669 580 276 125 
101 11 295 673 36 165 193 220 50 850 521 72 155 
102 11 121 818 585 158 159 299 774 620 429 75 705 
103 11 319 169 486 282 877 603 857 82 402 611 458 
104 11 509 591 443 320 245 212 724 875 522 46 572 
105 11 283 404 726 239 739 683 565 204 844 881 851 
106 11 498 329 417 402 310 314 148 788 282 866 806 
107 11 403 51 87 614 170 455 196 139 470 370 8 
108 11 272 437 81 755 32 207 189 206 618 665 141 
109 10 757 639 535 110 63 813 551 661 234 599 
110 11 109 63 757 639 174 649 286 599 636 535 661 
111 11 881 476 239 876 384 480 140 683 851 168 565 
112 11 607 453 90 841 579 516 743 126 172 759 803 
113 11 123 33 461 772 796 635 773 2 160 419 695 
114 11 26 347 471 133 560 687 499 563 76 735 161 
115 11 545 767 497 589 693 664 632 745 809 594 353 
116 11 804 831 290 475 432 19 770 686 47 723 523 
117 11 21 777 5 272 437 755 108 240 741 799 843 
118 11 361 768 860 428 854 241 92 676 224 469 564 
119 11 336 149 777 843 598 240 133 799 623 117 741 
120 9 845 815 238 506 376 420 793 708 25 
121 11 299 102 158 454 812 159 818 585 382 620 429 
122 11 401 153 485 48 846 458 60 449 847 317 394 
123 11 33 113 772 635 2 461 419 648 773 156 398 
124 10 698 304 826 250 95 164 367 219 667 236 
125 11 182 226 408 68 281 298 622 544 100 674 424 
126 11 516 172 278 416 453 810 90 607 579 805 112 
127 10 643 612 884 661 599 551 839 746 418 558 
128 11 451 606 380 550 331 775 858 186 396 682 602 
129 11 256 702 425 88 147 681 267 444 564 356 610 
130 11 466 152 389 177 526 753 264 163 484 462 6 
131 11 752 540 17 409 805 658 761 395 181 539 677 
132 11 59 593 66 446 630 447 31 555 713 817 210 
133 11 347 149 843 114 563 119 26 559 471 598 336 
134 11 157 679 554 440 214 230 385 596 482 711 487 
135 11 572 245 212 320 591 512 104 477 509 143 307 
136 11 830 405 616 712 3 641 313 660 720 505 363 
137 11 669 580 100 349 413 96 298 301 885 408 628 
138 11 203 609 227 145 54 577 874 722 655 341 374 
139 11 170 470 62 455 8 403 614 51 196 553 107 
140 10 851 168 463 565 881 111 690 263 239 204 
141 11 665 258 755 189 230 437 596 559 711 108 272 
142 11 801 502 536 613 786 301 517 885 531 628 262 
143 11 199 477 45 576 515 797 406 512 490 680 646 
144 10 46 435 195 448 522 875 819 288 312 443 
145 11 203 374 138 309 629 615 227 609 798 751 7 
146 11 472 242 39 611 792 412 727 608 692 825 852 
147 11 564 444 369 702 267 860 129 546 397 88 610 
148 11 314 329 498 806 42 402 106 653 701 857 293 
149 11 119 133 598 336 347 843 563 859 114 777 559 
150 11 689 200 22 710 832 221 280 23 700 748 880 
151 11 69 364 343 699 873 638 836 362 613 292 700 
152 11 130 264 466 840 177 389 436 605 855 6 457 
153 11 485 122 401 60 846 48 317 458 847 608 449 
154 11 537 724 730 357 288 875 522 443 808 509 30 
155 11 50 431 36 729 101 570 220 295 673 193 173 
156 11 16 648 398 635 889 588 316 419 2 289 33 
157 11 134 554 679 214 385 440 482 230 783 487 649 
158 11 429 102 121 299 585 454 705 433 818 18 49 
159 11 620 774 818 75 102 297 83 121 585 812 299 
160 11 796 695 13 638 340 699 362 557 40 262 836 
161 11 735 558 595 746 335 791 687 884 749 839 499 
162 11 492 717 229 500 28 430 880 748 807 341 280 
163 11 484 526 462 389 718 753 466 365 130 555 177 
164 11 95 219 236 250 586 407 235 667 706 124 367 
165 11 193 220 521 673 295 101 36 549 217 50 850 
166 11 662 539 409 761 266 668 568 131 540 752 387 
167 11 254 176 296 784 823 65 39 276 424 692 617 
168 11 851 565 690 140 204 881 283 844 404 105 239 
169 11 319 103 877 486 82 282 603 458 304 857 611 
170 11 139 403 455 614 51 470 107 196 8 62 87 
171 11 722 338 227 609 54 138 874 577 654 807 341 
172 11 516 126 255 658 805 278 834 677 17 395 607 
173 11 520 570 780 729 217 431 155 36 220 549 627 
174 11 636 110 286 756 649 191 783 757 487 109 385 
175 11 642 208 433 651 411 707 201 308 501 795 656 
176 11 254 65 167 784 617 39 692 823 296 424 242 
177 11 855 582 753 264 327 130 152 466 684 389 365 
178 11 368 253 423 491 619 782 225 495 302 321 597 
179 11 867 496 886 302 495 491 771 253 321 452 423 
180 11 581 561 316 181 538 889 540 816 395 677 398 
181 11 561 540 180 316 761 581 131 889 752 395 539 
182 11 226 408 281 298 125 100 68 276 349 424 137 
183 10 510 849 650 422 277 426 829 659 837 337 
184 11 410 742 248 842 207 618 206 322 32 81 4 
185 11 680 406 291 567 797 515 737 56 332 45 415 
186 11 351 602 380 494 696 451 211 858 128 354 682 
187 11 888 747 762 303 93 383 525 617 674 732 293 
188 11 594 765 473 589 289 600 688 493 664 631 115 
189 11 596 711 665 32 81 141 206 258 108 755 440 
190 11 12 733 475 523 415 737 723 794 291 831 209 
191 11 756 386 487 783 4 482 385 174 286 554 649 
192 10 366 543 247 99 769 809 632 501 642 392 
193 11 165 220 295 673 521 101 36 549 217 50 850 
194 10 548 215 9 645 625 477 212 587 822 819 
195 8 448 144 435 252 312 355 46 522 
196 11 51 170 87 107 403 139 455 614 470 62 8 
197 11 334 382 694 721 275 98 57 454 709 299 812 
198 11 861 697 388 11 776 6 817 528 445 666 592 
199 11 143 576 477 45 515 797 406 490 512 646 215 
200 11 150 23 22 689 710 700 221 246 832 259 280 
201 11 411 795 208 308 709 656 257 433 57 454 175 
202 11 728 85 547 260 738 654 862 883 430 500 229 
203 11 138 145 609 227 577 54 374 751 874 629 655 
204 11 844 565 690 404 283 168 851 105 871 438 52 
205 11 228 76 381 560 335 350 97 791 878 687 595 
206 11 32 81 618 189 248 322 711 108 207 596 272 
207 11 842 618 248 81 108 206 32 5 272 410 437 
208 11 411 201 795 433 175 308 656 257 709 651 642 
209 11 794 821 47 324 12 475 190 831 19 800 415 
210 11 675 216 447 27 556 287 31 527 719 530 764 
211 8 494 696 354 351 186 331 808 734 
212 11 245 320 572 135 591 104 509 819 46 443 194 
213 11 372 325 686 574 770 375 804 432 116 19 870 
214 11 554 157 649 385 286 134 679 783 487 599 63 
215 9 645 625 194 548 576 9 477 199 441 
216 11 675 27 719 530 210 356 527 532 681 20 610 
217 11 549 220 521 193 520 780 165 36 173 295 673 
218 9 274 58 587 625 760 604 9 645 235 
219 8 95 236 407 667 164 706 826 235 
220 11 193 165 36 295 673 101 521 50 217 549 155 
221 11 700 259 22 200 150 364 223 23 460 689 37 
222 11 481 622 28 732 383 544 880 862 280 125 162 
223 11 344 259 882 873 628 37 221 68 22 832 301 
224 11 474 86 241 53 456 428 328 339 768 118 854 
225 11 782 423 619 368 731 321 452 491 253 178 624 
226 11 182 281 408 298 125 100 68 276 349 424 137 
227 11 138 609 203 722 145 54 171 577 874 374 341 
228 11 205 76 350 381 97 878 560 890 335 791 670 
229 11 500 492 430 162 717 807 341 28 547 654 655 
230 11 258 559 141 665 596 679 711 189 440 755 134 
231 11 306 789 468 41 352 489 716 348 379 384 73 
232 11 740 672 10 269 98 275 778 489 694 279 736 
233 9 744 552 273 507 261 285 323 621 15 
234 6 813 393 535 639 551 109 
235 11 706 58 236 95 164 587 864 219 586 407 274 
236 8 407 219 667 706 95 164 235 826 
237 11 514 562 67 573 414 442 79 464 621 15 323 
238 9 376 120 251 845 793 731 815 708 506 
239 11 683 726 881 876 105 111 283 480 739 404 565 
240 11 799 741 777 788 336 623 21 119 117 417 758 
241 11 224 428 474 86 456 53 768 118 854 361 328 
242 11 692 39 412 146 65 472 792 727 825 254 176 
243 11 631 773 493 40 853 765 461 262 13 557 340 
244 11 785 71 859 367 634 345 304 250 124 598 698 
245 11 320 212 591 572 135 104 509 443 819 46 307 
246 11 311 23 391 44 710 318 751 200 748 315 766 
247 10 192 543 366 769 99 392 809 642 632 501 
248 11 618 410 206 207 742 32 81 842 322 184 108 
249 10 508 504 810 640 278 668 416 663 400 17 
250 11 367 164 634 586 785 124 95 345 698 35 244 
251 10 731 376 782 619 225 238 423 368 793 178 
252 7 355 448 195 312 633 144 435 
253 11 491 368 423 178 495 179 321 302 496 225 782 
254 11 176 167 65 784 296 39 692 823 242 617 424 
255 11 677 395 834 658 172 805 538 816 516 17 752 
256 11 129 425 702 88 681 356 267 147 530 444 527 
257 11 656 308 795 201 411 449 709 847 394 208 57 
258 11 141 665 230 755 189 559 596 437 711 108 272 
259 11 223 37 221 22 344 832 882 873 68 150 700 
260 11 738 728 85 202 338 654 547 883 261 285 430 
261 9 285 338 260 738 233 728 85 883 507 
262 11 557 853 340 13 40 695 362 613 801 142 243 
263 10 704 550 775 360 601 396 534 128 463 451 
264 9 152 605 840 177 855 130 457 466 835 
265 11 887 693 387 497 353 545 761 115 49 539 289 
266 11 568 814 166 483 43 662 330 872 371 539 668 
267 11 610 369 527 764 356 27 147 530 681 129 564 
268 11 575 869 300 583 29 566 872 739 330 480 533 
269 11 10 778 279 736 232 725 740 754 275 672 694 
270 11 827 18 745 707 501 651 49 632 767 705 809 
271 11 758 358 459 373 626 779 511 553 866 8 370 
272 11 108 437 755 81 141 665 5 207 189 32 117 
273 10 323 15 507 621 552 744 464 233 370 414 
274 11 218 58 587 760 625 235 586 604 9 35 864 
275 11 694 721 98 197 778 334 736 382 269 232 10 
276 11 823 424 784 281 349 298 100 226 182 580 167 
277 11 725 754 849 510 279 183 650 326 426 10 269 
278 11 810 126 508 640 416 249 172 504 516 805 17 
279 11 754 725 10 269 277 326 740 778 736 232 672 
280 11 880 832 689 481 544 22 150 37 710 28 162 
281 11 298 226 182 100 408 276 125 349 424 68 137 
282 11 486 103 319 402 877 169 417 623 857 106 498 
283 11 105 404 565 204 239 726 844 851 683 168 739 
284 11 714 848 292 460 23 391 343 364 700 578 315 
285 9 261 338 260 738 233 728 85 744 883 
286 11 649 385 783 214 554 487 63 110 482 756 174 
287 11 764 210 369 610 675 267 527 27 216 86 224 
288 9 522 875 730 724 154 435 443 537 144 
289 11 473 588 889 16 594 188 316 765 561 156 887 
290 11 432 804 781 116 686 723 475 523 831 77 375 
291 11 737 567 415 185 733 55 56 12 190 800 680 
292 11 848 714 460 343 284 364 700 69 151 23 221 
293 11 715 525 653 701 806 303 42 747 888 148 314 
294 11 377 533 61 886 333 865 513 867 569 824 29 
295 11 673 101 165 193 220 36 50 850 521 72 155 
296 8 167 254 823 784 176 427 276 39 
297 11 83 620 75 159 488 774 94 43 652 818 102 
298 11 100 281 182 226 408 349 276 125 137 669 580 
299 11 121 454 102 158 382 812 334 429 585 159 197 
300 11 268 583 330 872 29 566 483 814 575 865 869 
301 11 885 517 536 628 786 137 502 669 142 531 580 
302 11 495 867 179 886 685 597 491 253 363 496 771 
303 11 888 187 747 525 293 715 562 653 701 762 237 
304 11 124 698 71 244 367 785 877 250 634 859 826 
305 11 524 34 84 307 838 763 627 729 503 570 91 
306 11 231 789 41 468 348 352 716 489 73 384 476 
307 11 34 305 838 524 84 763 503 359 591 627 729 
308 11 656 257 795 411 201 208 394 449 847 709 175 
309 11 615 374 629 145 798 203 7 138 227 751 609 
310 11 866 106 329 498 788 314 417 148 271 79 758 
311 11 751 318 7 246 315 391 766 578 44 748 655 
312 9 448 355 633 195 252 144 822 819 46 
313 11 712 434 405 830 14 616 863 78 136 871 404 
314 11 329 498 148 106 806 310 402 42 866 715 293 
315 11 318 578 391 7 311 246 751 798 23 284 629 
316 11 889 561 180 16 181 156 588 289 398 648 581 
317 11 608 450 485 852 472 727 153 792 60 146 122 
318 11 315 311 7 578 391 246 751 798 23 766 44 
319 11 103 169 486 282 877 603 857 82 402 611 458 
320 11 245 212 591 104 509 572 135 443 819 46 522 
321 11 452 496 771 624 491 423 179 225 253 70 782 
322 11 206 32 618 248 81 711 386 4 410 742 189 
323 11 621 507 464 273 15 67 414 573 514 237 883 
324 11 467 821 800 332 209 415 567 794 12 190 291 
325 10 213 574 372 375 870 686 418 432 804 77 
326 7 754 725 277 279 849 10 510 
327 9 684 582 584 365 855 177 753 718 835 
328 11 339 53 787 713 445 456 474 86 224 241 428 
329 11 498 314 148 106 310 402 806 417 866 42 788 
330 11 872 566 29 865 300 568 569 268 333 371 483 
331 11 606 128 396 354 451 534 734 38 346 542 550 
332 11 800 324 467 567 415 821 185 291 737 12 209 
333 11 61 569 865 513 824 294 439 820 371 377 566 
334 11 382 197 98 694 275 721 812 454 299 57 121 
335 11 791 735 161 595 381 687 558 749 746 560 76 
336 11 119 598 149 777 240 623 799 843 741 859 133 
337 5 837 183 659 849 510 
338 11 260 654 738 85 728 261 285 171 722 202 547 
339 11 328 787 713 445 53 86 474 456 224 241 593 
340 11 557 13 262 695 362 40 853 638 613 160 796 
341 11 807 874 577 655 54 717 430 500 229 492 162 
342 11 828 529 92 469 657 89 479 676 546 397 361 
343 11 292 364 69 848 151 460 714 836 699 284 700 
344 11 882 223 873 628 259 301 885 613 801 37 142 
345 11 634 785 367 244 390 250 35 859 868 670 71 
346 8 734 354 331 802 606 38 396 542 
347 11 563 133 114 149 560 390 26 843 598 76 471 
348 11 73 384 476 789 41 306 480 876 231 111 583 
349 11 580 669 100 96 137 298 413 276 427 281 823 
350 11 97 670 228 390 868 205 760 76 890 563 35 
351 11 186 696 494 211 602 354 380 451 858 128 637 
352 11 716 489 41 468 306 652 94 231 672 232 789 
353 11 49 693 497 545 745 387 705 265 270 827 887 
354 9 211 331 494 606 734 346 351 186 696 
355 8 252 312 448 195 633 337 144 435 
356 11 530 527 681 27 719 216 267 610 675 20 764 
357 11 537 154 30 730 724 666 808 637 671 288 359 
358 11 459 779 511 271 370 758 373 8 626 15 866 
359 11 503 671 838 763 691 34 307 305 84 91 357 
360 11 601 704 534 542 38 263 396 379 789 606 231 
361 11 118 860 768 92 428 564 469 241 854 444 147 
362 11 638 340 557 613 695 13 262 699 801 160 853 
363 11 685 597 720 616 405 14 495 863 302 830 78 
364 11 700 343 460 151 292 221 714 848 69 873 23 
365 11 718 327 753 684 582 484 526 163 584 855 177 
366 10 192 543 99 247 809 632 769 501 642 392 
367 11 250 634 785 244 345 124 304 164 586 698 35 
368 11 178 423 253 491 619 782 225 321 495 179 452 
369 11 764 610 267 147 527 564 287 444 860 768 356 
370 11 511 779 459 358 8 15 455 470 614 373 271 
371 11 668 569 663 333 820 865 439 568 518 61 330 
372 11 213 325 686 770 804 574 116 375 432 19 831 
373 11 626 553 8 62 758 856 459 271 470 358 779 
374 11 309 615 629 145 798 203 138 7 227 609 751 
375 11 574 686 77 870 325 432 418 290 804 372 213 
376 9 238 251 731 793 120 782 225 845 619 
377 11 533 294 869 886 61 29 865 333 78 867 566 
378 11 465 816 538 743 834 841 677 581 395 255 180 
379 11 542 38 534 601 802 396 360 704 346 734 331 
380 10 858 602 451 682 128 186 775 550 351 592 
381 11 76 205 335 791 560 228 595 749 735 161 687 
382 11 334 197 98 694 812 299 454 275 121 721 57 
383 11 732 762 862 222 674 622 93 187 481 888 747 
384 11 348 73 476 480 789 876 111 41 306 583 231 
385 11 783 487 554 286 649 482 214 157 134 756 191 
386 11 4 482 191 487 756 322 783 440 385 711 554 
387 11 265 353 887 43 49 693 75 774 585 818 497 
388 11 11 776 528 697 436 592 6 861 457 198 602 
389 11 526 466 163 484 462 130 753 718 177 152 365 
390 11 345 670 563 634 350 97 868 35 785 347 859 
391 11 315 578 318 246 311 23 7 284 751 714 460 
392 6 769 247 192 366 543 99 
393 6 234 813 535 639 757 109 
394 11 847 60 449 846 656 257 308 153 485 401 795 
395 11 677 255 834 538 658 816 581 805 17 752 131 
396 11 534 38 542 606 601 704 331 360 263 379 128 
397 11 546 479 444 564 469 88 147 702 425 529 860 
398 11 648 419 156 2 635 16 316 889 180 772 33 
399 11 80 750 829 82 458 48 519 659 422 122 401 
400 10 504 478 708 416 249 810 508 64 663 278 
401 11 122 153 485 48 846 60 458 449 847 394 317 
402 11 106 498 148 857 329 282 314 417 486 806 42 
403 11 107 614 51 170 455 87 139 196 470 8 370 
404 11 283 105 204 844 565 726 239 739 168 851 683 
405 11 616 830 712 136 363 313 720 685 14 863 434 
406 11 797 515 680 45 185 143 56 199 576 490 291 
407 7 236 667 219 706 95 164 826 
408 11 182 226 298 68 125 281 100 137 349 544 669 
409 11 131 752 662 539 17 540 761 166 805 640 658 
410 11 742 248 184 618 322 207 206 842 32 81 4 
411 11 201 208 795 308 656 257 709 433 175 57 454 
412 11 692 242 825 146 42 39 65 611 806 857 472 
413 11 96 580 427 669 349 137 517 536 885 301 786 
414 11 573 514 67 237 562 442 464 79 15 621 323 
415 11 567 12 737 800 291 190 733 332 821 324 209 
416 11 126 278 833 810 504 516 400 803 25 90 508 
417 11 106 788 623 402 310 498 329 282 799 486 741 
418 11 870 574 375 839 77 749 884 325 746 127 595 
419 11 2 398 648 772 635 33 123 156 16 113 465 
420 11 25 506 803 833 759 815 579 90 416 845 400 
421 10 531 502 786 600 493 688 536 517 142 853 
422 9 659 829 183 750 650 510 849 519 426 
423 11 368 491 253 225 782 178 619 321 452 496 179 
424 11 784 276 674 823 93 281 226 182 298 176 100 
425 11 88 702 129 256 444 147 397 564 546 681 267 
426 11 650 510 519 183 829 849 277 590 422 736 644 
427 11 96 413 580 349 669 137 823 276 296 100 517 
428 11 241 854 118 224 456 768 474 361 86 53 676 
429 11 158 705 585 18 49 433 102 707 827 270 651 
430 11 500 807 229 341 717 492 654 162 547 874 54 
431 11 729 570 155 50 36 173 524 84 520 305 220 
432 11 290 804 686 116 781 375 723 77 831 574 475 
433 11 208 651 707 175 411 201 18 429 642 158 795 
434 11 313 14 78 863 712 739 575 869 105 405 404 
435 8 144 195 288 522 875 448 46 730 
436 10 592 528 776 11 388 457 697 840 6 682 
437 11 755 272 108 141 665 258 189 81 32 117 206 
438 8 678 811 647 52 844 690 790 204 
439 11 820 518 663 824 64 513 61 333 70 569 371 
440 11 596 711 189 134 230 482 157 665 258 32 141 
441 9 646 490 74 576 604 890 703 56 199 
442 11 79 514 866 237 573 414 562 67 715 310 314 
443 11 509 104 522 875 724 46 320 288 591 154 144 
444 11 564 147 546 397 702 88 860 425 129 479 369 
445 11 787 713 339 328 53 456 474 86 198 817 224 
446 11 630 66 817 59 132 713 593 861 6 555 697 
447 11 31 210 556 593 132 675 59 216 287 27 532 
448 9 195 312 144 355 252 435 633 46 819 
449 11 847 846 60 394 257 656 308 401 590 795 153 
450 9 852 727 792 472 317 608 39 146 242 
451 11 128 380 550 775 606 858 331 602 186 682 354 
452 11 321 624 771 496 70 571 225 423 491 179 782 
453 11 112 607 90 579 516 841 126 759 172 803 743 
454 11 299 158 709 121 57 382 197 201 334 411 795 
455 11 614 403 170 470 139 107 370 8 51 511 779 
456 11 53 474 224 86 328 241 428 339 787 445 854 
457 9 436 840 592 682 528 858 11 776 602 
458 11 82 122 153 485 401 399 603 80 48 608 169 
459 11 358 779 511 370 8 271 373 758 626 62 553 
460 11 714 292 848 700 364 284 23 343 221 200 151 
461 11 773 123 635 33 243 113 40 765 631 16 13 
462 11 163 484 526 389 718 753 466 555 130 365 66 
463 7 140 263 775 550 168 851 605 
464 11 621 323 67 507 414 562 573 237 514 883 273 
465 11 378 816 538 743 834 841 581 677 398 180 395 
466 11 130 389 152 526 753 163 484 177 462 264 6 
467 11 324 332 800 821 567 209 415 794 850 12 185 
468 11 231 489 306 716 352 41 672 789 740 232 348 
469 11 479 92 529 546 397 342 860 361 444 564 118 
470 11 8 62 139 455 170 553 373 459 614 370 626 
471 11 26 499 114 687 679 735 161 558 559 230 560 
472 11 792 727 852 450 39 146 242 317 608 692 412 
473 11 289 588 594 188 765 889 16 316 115 156 561 
474 11 86 53 224 456 241 328 339 428 787 713 445 
475 11 190 831 116 523 12 733 290 723 804 794 19 
476 11 384 111 348 789 73 876 480 881 239 306 683 
477 11 143 199 576 45 515 512 215 797 406 645 194 
478 10 708 64 793 571 400 70 518 820 439 624 
479 11 469 546 397 529 92 444 564 342 860 88 147 
480 11 876 683 239 384 726 476 583 73 111 348 881 
481 11 222 622 880 28 544 280 832 162 732 125 37 
482 11 487 783 386 385 554 440 756 191 134 157 322 
483 11 814 488 300 83 43 568 266 297 583 330 94 
484 11 526 163 462 389 753 718 365 466 130 177 327 
485 11 153 122 401 60 846 317 48 458 608 847 394 
486 11 282 103 319 877 169 402 623 417 857 106 71 
487 11 783 482 385 756 554 286 386 191 649 157 214 
488 11 94 297 83 483 652 814 620 43 75 159 774 
489 11 716 352 468 41 672 232 306 231 652 740 98 
490 11 646 441 56 797 576 55 74 199 45 406 703 
491 11 253 423 368 178 179 321 496 495 302 225 782 
492 11 717 162 229 500 430 341 807 28 748 655 880 
493 11 631 243 600 421 688 853 765 188 40 594 262 
494 9 211 696 351 354 186 808 637 331 451 
495 11 302 867 597 179 685 253 491 886 363 178 496 
496 11 771 321 179 452 624 491 867 886 253 423 70 
497 11 545 693 115 353 767 265 745 887 49 270 827 
498 11 329 314 106 148 310 402 417 806 866 42 788 
499 11 471 26 687 161 735 114 558 679 335 560 746 
500 11 229 430 492 717 162 807 341 28 547 654 655 
501 11 632 809 707 99 651 18 270 827 745 767 366 
502 11 786 531 536 142 517 301 421 801 885 628 853 
503 11 359 838 763 307 671 34 305 84 524 691 91 
504 10 249 508 810 640 278 400 416 663 126 668 
505 10 660 790 3 641 52 871 647 678 438 136 
506 10 420 25 815 833 845 803 759 708 400 416 
507 9 323 621 464 273 883 15 67 233 414 
508 10 249 640 810 504 278 17 416 668 126 805 
509 11 104 443 591 320 245 724 875 522 212 46 154 
510 11 849 183 650 277 426 422 725 754 829 837 337 
511 11 779 370 459 358 8 15 271 470 373 455 62 
512 11 541 45 143 477 515 199 406 135 572 680 72 
513 11 824 61 439 333 820 70 518 771 64 569 624 
514 11 237 573 414 67 562 442 79 464 15 621 323 
515 11 45 406 797 143 199 680 576 477 512 185 490 
516 11 172 126 278 255 453 607 658 805 112 416 834 
517 11 536 786 885 301 531 502 413 96 142 580 669 
518 10 820 439 64 663 824 513 70 61 478 571 
519 11 829 750 48 426 590 422 650 399 80 183 644 
520 11 173 780 217 570 549 729 220 36 431 657 155 
521 11 165 193 549 220 673 217 295 101 36 50 850 
522 11 875 288 443 724 144 435 46 154 730 509 104 
523 11 733 723 190 475 12 781 737 24 290 116 415 
524 11 84 305 34 307 838 763 627 729 570 91 431 
525 11 293 715 653 701 303 747 888 187 806 42 617 
526 11 484 163 462 389 753 718 466 365 130 177 327 
527 11 356 27 610 530 267 681 216 764 675 719 369 
528 11 592 11 436 388 776 457 602 697 858 682 6 
529 11 469 479 342 92 546 397 828 444 361 860 564 
530 11 356 719 27 681 527 216 675 20 267 610 532 
531 11 786 536 502 517 421 885 301 142 413 96 801 
532 11 20 719 216 530 675 27 356 681 556 527 210 
533 11 377 294 869 29 865 886 61 78 566 333 575 
534 11 396 38 542 601 704 360 606 331 379 263 128 
535 8 639 813 109 551 234 757 661 393 
536 11 517 786 531 502 885 301 142 413 96 421 801 
537 11 357 154 724 730 288 30 808 666 637 875 522 
538 11 816 834 581 677 395 378 255 180 465 743 841 
539 11 662 761 166 409 131 540 752 181 17 887 265 
540 11 131 181 752 761 409 17 395 581 658 561 805 
541 11 512 72 515 680 50 45 406 850 101 155 185 
542 11 38 379 534 601 396 704 360 331 606 802 346 
543 10 192 366 247 99 769 809 632 501 392 642 
544 11 481 37 622 68 832 125 280 880 222 408 182 
545 11 497 693 115 353 767 265 745 887 49 270 827 
546 11 397 479 469 444 564 147 860 529 88 92 702 
547 11 202 85 728 654 430 500 229 862 28 260 807 
548 11 9 194 625 822 645 587 215 864 218 819 274 
549 11 217 521 193 220 165 780 520 36 295 673 101 
550 9 775 128 263 451 682 380 858 606 704 
551 8 661 535 612 639 813 599 643 127 
552 9 744 233 273 507 323 107 614 87 15 
553 11 373 62 626 856 8 470 758 459 271 139 358 
554 11 157 385 214 134 783 487 286 482 649 679 440 
555 11 66 462 163 484 526 59 630 446 389 132 718 
556 11 31 447 210 675 216 532 27 719 20 530 356 
557 11 340 262 13 362 853 695 40 613 638 801 142 
558 11 161 735 746 595 884 791 335 839 749 687 499 
559 11 230 258 141 843 665 755 437 679 596 26 189 
560 11 76 687 335 381 114 205 735 791 161 228 558 
561 11 181 316 889 180 540 581 761 289 588 16 156 
562 11 237 67 514 414 573 464 442 79 303 621 715 
563 11 347 390 133 114 149 560 350 97 345 598 76 
564 11 444 147 546 397 860 702 369 88 129 267 361 
565 11 168 851 204 690 283 404 881 140 844 105 239 
566 11 872 330 29 865 300 569 333 268 533 377 568 
567 11 415 291 800 737 332 185 12 324 733 190 680 
568 11 266 814 330 872 483 371 566 166 865 300 668 
569 11 333 865 61 371 566 824 513 872 330 439 294 
570 11 729 431 173 84 524 155 627 520 305 34 50 
571 11 70 624 64 452 478 321 771 793 518 708 824 
572 11 135 245 212 320 591 512 104 477 509 194 143 
573 11 414 514 237 67 562 442 79 464 15 621 323 
574 11 375 870 325 418 686 77 432 213 372 804 290 
575 11 869 268 739 726 683 29 434 533 583 480 876 
576 11 199 143 477 45 490 515 646 797 441 406 215 
577 11 874 54 341 655 609 807 766 138 717 722 430 
578 11 315 391 318 7 311 246 284 751 23 798 714 
579 11 90 759 453 803 112 833 607 25 126 416 516 
580 11 669 96 413 137 349 100 427 298 885 301 517 
581 11 180 538 395 816 677 834 181 255 540 561 378 
582 7 684 327 584 855 835 177 365 
583 11 300 268 480 876 73 384 575 348 483 683 29 
584 7 684 582 327 835 855 365 177 
585 11 818 102 705 158 429 774 121 49 159 75 620 
586 11 35 164 250 235 58 868 95 367 634 274 219 
587 11 864 58 9 274 218 625 235 822 548 706 645 
588 11 289 16 473 889 156 765 316 594 188 648 561 
589 11 664 115 688 594 188 600 767 632 809 543 99 
590 11 644 519 426 48 846 449 721 736 57 257 829 
591 11 104 245 320 509 212 135 572 443 307 34 305 
592 10 528 436 11 776 388 457 602 858 682 697 
593 11 132 59 447 446 713 210 287 66 630 31 339 
594 11 188 473 765 589 289 115 664 688 588 600 493 
595 11 746 558 791 161 749 735 839 335 884 687 381 
596 11 711 189 440 665 141 258 230 32 81 206 755 
597 11 363 495 685 720 302 867 253 179 491 178 616 
598 11 859 149 336 119 71 623 244 785 563 133 345 
599 11 63 661 612 643 551 127 639 649 110 535 214 
600 10 688 421 493 664 589 188 594 631 531 243 
601 11 360 704 534 542 38 396 379 263 606 331 550 
602 11 858 380 186 682 451 592 528 351 128 775 457 
603 11 611 608 458 103 82 319 146 169 857 825 317 
604 9 890 760 441 218 646 274 74 645 625 
605 6 264 840 457 152 177 463 
606 11 331 128 396 451 354 534 38 734 346 550 542 
607 11 112 453 841 90 516 579 743 172 126 834 255 
608 11 317 146 611 472 603 450 727 485 153 792 852 
609 11 138 227 54 203 577 874 722 655 341 145 171 
610 11 267 764 369 527 356 27 530 287 681 147 216 
611 11 603 146 608 825 412 857 242 472 317 103 692 
612 9 661 643 599 127 551 63 639 535 884 
613 11 801 362 142 557 638 340 262 873 882 344 853 
614 11 455 403 107 170 51 470 139 370 87 511 779 
615 11 309 374 629 798 145 203 7 138 227 751 318 
616 11 405 830 136 363 712 720 313 685 14 597 863 
617 11 65 747 176 93 187 254 762 674 784 424 525 
618 11 206 32 81 248 207 842 108 189 322 410 272 
619 10 782 368 225 423 178 731 253 491 251 321 
620 11 159 774 75 818 297 83 102 585 121 43 652 
621 11 323 464 507 67 273 414 883 573 15 514 562 
622 11 222 481 544 125 383 732 182 226 28 674 68 
623 11 417 282 336 486 240 799 788 598 741 106 119 
624 11 452 70 321 771 571 496 64 225 513 824 423 
625 9 645 215 9 548 218 587 194 274 58 
626 11 373 553 856 758 62 8 271 459 470 358 779 
627 11 91 84 763 524 89 305 34 570 729 838 173 
628 11 882 344 301 885 223 137 873 517 536 801 142 
629 11 374 615 309 798 145 7 203 138 751 311 318 
630 11 446 66 817 59 132 6 861 713 555 593 697 
631 11 243 493 765 773 40 853 188 262 461 600 594 
632 11 809 501 99 767 745 270 366 827 543 18 192 
633 10 312 822 355 864 448 252 9 706 195 337 
634 11 345 785 367 250 244 35 390 586 859 868 71 
635 11 2 648 33 123 419 156 398 16 772 461 113 
636 11 174 110 757 109 756 286 191 649 879 783 63 
637 11 808 666 30 696 357 494 351 537 730 211 154 
638 11 362 699 340 695 613 557 160 13 151 69 262 
639 9 535 109 757 551 661 813 63 110 599 
640 10 508 249 810 278 504 17 805 752 658 409 
641 11 3 871 790 52 505 660 678 136 712 844 313 
642 11 175 651 99 366 501 707 192 433 208 247 809 
643 10 127 612 661 599 884 551 839 746 63 558 
644 11 590 721 736 57 709 778 694 275 426 197 257 
645 9 215 625 194 548 9 218 576 441 604 
646 9 441 490 576 74 56 703 604 797 199 
647 7 678 811 438 790 505 52 660 
648 11 156 398 635 419 16 2 33 889 316 123 772 
649 11 286 385 214 63 554 783 110 487 599 157 174 
650 11 183 426 510 849 422 277 829 519 725 754 659 
651 11 707 18 433 501 827 270 175 642 745 632 809 
652 11 94 812 297 159 620 352 488 716 98 489 83 
653 11 701 293 525 715 806 42 148 747 314 303 888 
654 11 85 728 547 430 807 202 260 500 738 338 229 
655 11 766 341 577 874 44 717 54 748 807 492 229 
656 11 308 257 795 411 201 208 449 394 847 709 175 
657 11 780 828 342 520 89 173 217 529 627 91 92 
658 11 805 17 752 255 395 677 172 131 516 834 540 
659 5 422 837 750 829 183 
660 10 505 3 790 641 52 871 647 678 136 438 
661 9 612 599 551 63 643 639 127 535 109 
662 11 539 166 409 761 131 540 752 668 266 17 181 
663 10 820 439 518 371 64 668 504 824 249 513 
664 11 589 688 115 600 767 543 632 809 99 192 366 
665 11 141 258 189 755 596 230 437 711 108 272 559 
666 11 30 637 808 357 696 537 198 730 351 154 494 
667 6 407 236 219 826 95 706 
668 10 371 249 663 640 508 166 409 662 504 810 
669 11 580 137 349 413 96 100 427 298 301 885 517 
670 11 868 35 97 350 760 390 345 586 634 274 604 
671 11 359 691 503 357 838 763 537 34 307 30 154 
672 11 740 232 10 468 269 489 279 716 352 754 778 
673 11 295 101 165 193 220 36 50 850 521 72 155 
674 11 93 762 424 383 125 187 617 784 226 281 622 
675 11 216 27 210 530 719 527 356 532 610 287 681 
676 11 854 89 91 828 118 92 428 361 627 691 342 
677 11 395 255 834 538 816 658 581 805 172 17 752 
678 7 438 647 811 52 790 505 871 
679 11 134 157 230 471 554 440 26 214 499 559 596 
680 11 185 406 797 515 45 291 56 567 541 143 72 
681 11 356 530 527 719 27 256 267 129 20 610 216 
682 9 858 380 775 602 457 550 451 592 128 
683 11 726 239 876 480 739 105 881 283 111 575 404 
684 8 327 584 582 855 365 835 177 753 
685 11 363 597 302 14 495 863 78 867 720 616 886 
686 11 432 804 290 375 372 574 116 213 325 77 781 
687 11 735 161 335 560 499 558 791 595 26 114 471 
688 10 600 664 589 421 493 188 594 631 531 543 
689 11 150 710 22 200 280 832 880 748 44 221 37 
690 9 168 204 565 851 844 140 438 283 404 
691 11 671 359 854 456 428 503 676 763 241 838 53 
692 11 242 39 412 65 146 254 176 472 825 792 727 
693 11 497 545 353 265 115 887 767 745 49 387 270 
694 11 275 197 721 334 98 382 778 736 57 644 232 
695 11 13 340 160 796 557 362 262 40 638 853 613 
696 9 494 211 351 186 808 637 354 666 602 
697 11 6 861 388 776 11 528 436 592 817 198 152 
698 9 124 304 826 250 95 164 219 367 667 
699 11 836 69 638 151 362 160 695 343 340 796 613 
700 11 221 364 460 23 200 714 22 150 259 292 848 
701 11 653 293 525 715 806 42 148 747 314 303 412 
702 11 425 88 129 256 444 147 564 397 546 267 681 
703 11 74 878 24 55 490 890 56 441 646 723 523 
704 11 601 360 534 263 396 38 542 379 550 606 331 
705 11 49 429 585 18 158 270 827 745 707 102 353 
706 8 236 407 235 219 667 95 164 864 
707 11 651 18 827 270 501 433 745 175 632 429 642 
708 9 793 478 400 571 64 506 70 518 624 
709 11 57 795 201 411 454 257 308 656 208 197 721 
710 11 689 150 748 44 200 22 280 246 880 832 766 
711 11 596 189 440 32 665 206 81 141 258 230 322 
712 11 313 405 830 616 434 136 14 641 871 863 3 
713 11 339 787 445 328 53 86 474 456 817 446 593 
714 11 460 848 292 284 23 364 700 343 221 200 391 
715 11 293 525 653 701 806 303 42 79 314 888 148 
716 11 352 489 468 41 306 231 652 672 232 94 98 
717 11 492 162 229 500 341 430 807 655 748 44 766 
718 11 365 753 484 526 163 462 389 327 684 177 582 
719 11 530 356 27 20 216 532 681 675 527 267 610 
720 11 597 363 616 685 405 830 495 136 302 14 178 
721 11 694 275 197 736 644 57 334 778 382 98 709 
722 11 171 54 609 227 874 577 138 338 341 807 654 
723 11 781 523 290 24 432 733 475 190 116 804 12 
724 11 154 875 288 522 537 730 443 509 357 104 435 
725 11 754 279 277 10 269 326 849 510 778 736 650 
726 11 683 739 239 105 876 283 480 575 404 881 111 
727 11 792 472 852 450 39 146 317 608 242 692 254 
728 11 85 202 260 738 654 547 338 430 883 807 862 
729 11 570 431 84 524 173 155 305 627 520 34 50 
730 9 154 288 537 724 357 875 522 808 435 
731 10 251 782 225 619 423 368 452 376 178 321 
732 11 383 862 222 622 762 28 481 674 187 93 547 
733 11 190 523 12 737 415 475 291 723 24 55 567 
734 8 346 354 331 606 38 396 802 542 
735 11 161 558 595 335 791 746 687 749 884 839 499 
736 11 778 269 275 721 10 694 644 279 725 232 426 
737 11 291 733 415 567 12 190 55 523 56 800 185 
738 11 260 728 85 202 883 654 338 547 261 285 862 
739 11 726 575 683 105 434 239 283 869 404 876 268 
740 11 672 232 10 269 279 754 725 778 468 489 326 
741 11 799 240 788 777 21 758 856 417 626 117 336 
742 11 410 184 248 322 618 206 207 842 32 4 81 
743 11 841 378 607 834 465 816 112 538 453 255 677 
744 9 552 233 273 507 323 261 107 285 621 
745 11 270 827 18 767 501 49 632 707 809 651 705 
746 11 595 558 884 839 161 735 749 791 335 687 127 
747 11 888 187 303 525 617 762 93 293 653 701 715 
748 11 44 710 766 655 717 492 689 162 246 150 341 
749 11 839 595 746 791 884 335 558 161 735 381 418 
750 10 829 80 399 422 519 659 48 650 426 183 
751 11 311 766 44 7 246 318 655 748 203 315 577 
752 11 131 17 805 658 409 540 395 255 677 640 761 
753 11 718 526 484 365 163 389 177 327 462 466 855 
754 10 725 279 277 10 326 269 849 510 778 740 
755 11 437 141 665 272 258 108 189 81 559 230 596 
756 11 191 487 783 386 482 385 4 286 174 649 554 
757 10 109 639 535 110 879 813 63 234 393 551 
758 11 271 626 373 459 553 358 856 8 62 779 511 
759 11 803 579 90 833 25 420 453 112 416 607 126 
760 10 604 868 218 274 670 35 890 97 58 350 
761 11 539 540 662 181 409 131 166 752 561 887 17 
762 11 93 674 187 383 747 888 732 617 424 303 622 
763 11 838 34 305 84 524 91 503 307 627 359 671 
764 11 369 610 267 287 527 27 356 147 530 675 216 
765 11 188 594 631 243 588 473 493 289 773 461 16 
766 11 44 655 748 751 577 874 341 717 311 492 710 
767 11 632 745 809 115 270 501 827 99 18 545 497 
768 11 361 118 860 241 428 224 369 564 854 147 444 
769 6 247 392 543 192 366 99 
770 11 19 831 47 116 372 804 213 686 475 432 290 
771 11 496 321 452 624 179 70 513 824 886 491 867 
772 11 2 33 419 123 635 113 648 398 156 461 16 
773 11 461 243 40 631 13 765 853 262 695 113 493 
774 11 75 818 620 159 83 102 297 585 43 121 158 
775 9 550 682 128 451 380 858 263 602 463 
776 11 11 388 528 436 592 697 6 861 457 198 602 
777 11 117 240 119 799 21 741 336 843 437 5 149 
778 11 736 269 275 10 694 721 232 279 644 725 754 
779 11 511 370 459 358 8 15 271 470 373 455 62 
780 11 520 217 173 657 549 220 521 193 570 36 165 
781 11 723 290 432 523 804 77 24 116 475 686 733 
782 11 225 619 423 368 731 178 491 253 321 452 251 
783 11 487 385 482 286 756 554 649 191 386 214 157 
784 11 823 424 167 276 176 254 296 65 93 617 674 
785 11 244 634 345 367 71 250 859 304 390 124 35 
786 11 531 536 517 502 885 301 421 142 413 96 801 
787 11 445 339 713 328 53 456 474 86 224 198 817 
788 11 417 799 741 310 106 240 758 498 329 623 271 
789 11 306 231 348 476 41 384 73 468 360 111 352 
790 10 505 52 3 660 641 871 678 647 438 811 
791 11 335 595 735 161 749 558 746 381 839 687 884 
792 11 727 472 852 450 39 146 242 317 608 692 254 
793 9 708 478 571 64 70 400 731 624 251 
794 11 209 821 47 475 831 12 19 190 324 415 800 
795 11 201 411 308 208 257 656 709 57 433 454 175 
796 11 160 695 13 340 40 113 638 362 557 262 773 
797 11 406 515 45 680 56 490 143 576 199 185 55 
798 11 629 615 309 374 7 145 318 315 311 578 203 
799 11 240 741 788 777 417 623 336 21 119 758 117 
800 11 332 324 415 567 821 467 12 291 737 209 794 
801 11 142 613 502 557 536 301 885 262 882 628 362 
802 6 379 346 542 38 734 534 
803 11 759 833 25 579 90 420 416 453 506 112 126 
804 11 432 116 290 686 831 475 781 770 372 19 723 
805 11 658 17 752 255 131 395 172 677 516 278 640 
806 11 42 148 653 701 314 293 715 825 329 498 525 
807 11 341 430 500 229 717 874 54 492 577 654 655 
808 11 637 666 30 696 730 357 494 537 211 154 351 
809 11 632 99 501 366 767 543 192 270 745 827 707 
810 10 508 249 278 640 504 416 126 17 805 172 
811 5 438 678 647 835 52 
812 11 652 382 121 299 334 98 159 102 197 620 454 
813 6 234 393 535 639 551 109 
814 11 483 266 43 568 488 83 300 297 330 75 872 
815 10 845 506 420 120 25 803 833 759 708 793 
816 11 538 834 378 677 395 581 255 465 743 841 180 
817 11 630 446 861 6 697 66 198 713 445 59 388 
818 11 774 159 75 102 585 620 121 83 158 297 299 
819 11 46 144 212 320 443 245 509 522 875 312 448 
820 11 439 518 663 824 64 513 61 333 70 371 569 
821 11 324 209 794 800 467 415 332 12 567 190 47 
822 10 864 633 9 587 548 235 706 312 58 194 
823 11 276 784 424 167 349 296 281 254 176 298 100 
824 11 513 61 439 820 333 518 70 64 771 569 624 
825 11 412 857 42 611 806 146 242 692 148 603 402 
826 7 667 698 219 124 407 236 95 
827 11 270 18 745 707 501 651 49 632 705 767 809 
828 11 89 342 92 657 676 529 91 469 627 479 118 
829 10 750 519 422 650 80 426 659 399 183 48 
830 11 405 616 136 712 313 363 720 685 14 641 3 
831 11 116 19 475 47 770 804 290 794 432 190 209 
832 11 280 22 37 880 544 689 150 481 259 710 68 
833 11 803 25 759 416 420 579 90 506 126 453 400 
834 11 677 816 255 538 395 378 841 581 172 658 743 
835 7 582 855 584 684 811 327 177 
836 11 69 699 151 343 638 160 362 364 292 695 796 
837 5 337 659 422 183 510 
838 11 34 763 307 305 503 84 524 359 91 627 671 
839 11 749 884 746 595 558 791 161 735 335 418 127 
840 8 457 605 264 152 436 592 682 528 
841 11 743 607 112 834 453 378 816 255 516 172 538 
842 11 207 248 618 5 108 81 206 272 32 410 184 
843 11 559 133 119 149 755 258 777 141 230 336 347 
844 11 204 404 690 565 871 283 52 438 168 105 851 
845 10 815 120 506 420 238 25 708 793 803 833 
846 11 449 60 847 401 394 48 122 153 485 257 590 
847 11 394 449 60 846 257 656 308 401 153 485 122 
848 11 292 714 284 460 343 364 700 23 69 151 221 
849 11 510 183 277 650 426 725 422 754 337 837 279 
850 11 72 101 673 295 165 193 220 36 50 521 541 
851 11 168 565 140 690 881 204 283 404 111 239 844 
852 9 450 727 792 472 317 39 146 608 242 
853 11 262 40 557 340 13 243 631 493 142 695 801 
854 11 428 676 118 241 691 361 768 456 224 860 474 
855 9 177 582 327 684 835 584 264 753 365 
856 11 553 626 373 62 8 758 21 470 271 459 139 
857 11 825 402 42 148 806 103 611 282 319 412 603 
858 10 380 682 602 451 775 592 128 457 186 550 
859 11 598 244 71 785 345 634 367 304 149 877 390 
860 11 361 768 118 564 147 444 546 369 469 92 397 
861 11 697 6 388 817 198 776 11 528 436 592 630 
862 11 732 383 202 547 222 28 762 728 883 85 622 
863 11 78 14 434 685 363 313 886 302 867 533 869 
864 11 822 587 9 235 58 548 706 633 274 625 218 
865 11 569 566 333 872 330 29 61 294 377 533 371 
866 11 79 442 310 271 358 314 329 498 758 514 573 
867 11 886 179 302 495 496 685 491 771 253 294 321 
868 11 670 35 760 586 97 350 390 345 274 634 218 
869 11 575 268 533 29 377 739 78 434 863 294 14 
870 11 418 574 375 325 77 686 839 213 127 372 749 
871 11 52 641 3 790 505 660 844 678 204 438 712 
872 11 330 566 29 865 300 569 268 568 333 533 377 
873 11 344 882 223 613 628 151 259 801 221 364 362 
874 11 577 54 341 655 807 609 766 430 717 722 138 
875 11 522 288 443 724 435 144 154 46 730 509 104 
876 11 480 683 239 726 476 111 384 881 583 73 348 
877 11 169 71 486 319 103 304 282 244 859 623 698 
878 11 74 703 890 228 24 205 441 604 646 55 490 
879 9 757 109 393 234 535 639 813 110 636 
880 11 280 481 832 28 162 689 544 222 492 710 22 
881 11 111 239 851 565 140 168 683 476 876 283 726 
882 11 344 628 873 223 301 801 885 259 613 142 137 
883 11 464 738 621 202 260 507 323 728 85 862 67 
884 11 746 839 558 595 749 161 735 127 791 643 335 
885 11 301 517 536 628 786 137 502 669 531 142 580 
886 11 867 179 302 495 496 294 377 771 685 533 78 
887 11 265 693 387 497 545 353 761 539 289 473 115 
888 11 303 187 747 525 762 293 715 617 93 653 701 
889 11 316 561 16 588 156 289 180 181 648 473 398 
890 9 604 878 74 441 703 760 646 228 97 
DEPOT_SECTION
   1
   -1
EOF
