NAME :  X-n936-kX-w374-c11.cctp
COMMENT : 	Adapted by Maziero, Usberti and Cavellucci from the Uchoa, Pecin, Pessoa, Poggi, Subramanian, and Vidal (2013)
TYPE :  CCTP
DIMENSION :    936
EDGE_WEIGHT_TYPE : 	EUC_2D	
CAPACITY : 	138
VERTICES_WITHIN_COVERAGE :  11
VERTICES_WITH_DEMAND : 	374
NODE_COORD_SECTION
1 500 500
2 971 544
3 564 976
4 266 4
5 395 95
6 316 877
7 963 89
8 496 96
9 274 493
10 516 598
11 338 849
12 58 395
13 923 411
14 670 912
15 576 101
16 902 552
17 888 709
18 703 539
19 10 341
20 55 984
21 420 132
22 870 218
23 933 196
24 123 372
25 973 824
26 253 201
27 84 941
28 792 164
29 702 811
30 263 756
31 161 986
32 322 75
33 969 514
34 140 665
35 313 386
36 53 583
37 836 244
38 450 730
39 642 334
40 907 431
41 570 705
42 587 264
43 703 666
44 877 132
45 138 487
46 275 598
47 2 354
48 538 460
49 716 573
50 65 579
51 505 17
52 544 958
53 175 838
54 838 67
55 122 410
56 126 430
57 598 544
58 299 442
59 224 930
60 593 453
61 764 848
62 485 95
63 130 114
64 832 863
65 659 293
66 259 936
67 615 141
68 808 263
69 970 317
70 815 888
71 405 330
72 64 525
73 588 746
74 170 392
75 681 640
76 223 283
77 109 297
78 675 904
79 576 171
80 484 439
81 329 79
82 504 393
83 676 664
84 124 658
85 749 89
86 162 848
87 521 0
88 1 873
89 72 718
90 983 770
91 104 702
92 47 781
93 706 244
94 626 678
95 370 431
96 776 346
97 259 339
98 579 606
99 719 491
100 777 297
101 45 562
102 662 602
103 502 327
104 218 628
105 581 867
106 517 232
107 524 21
108 348 100
109 84 93
110 118 76
111 544 801
112 990 739
113 980 477
114 267 231
115 774 530
116 45 336
117 390 140
118 93 808
119 377 216
120 998 949
121 645 597
122 554 435
123 973 506
124 405 399
125 778 252
126 935 755
127 130 186
128 405 776
129 20 901
130 349 926
131 874 686
132 212 933
133 313 230
134 239 121
135 180 574
136 620 990
137 797 316
138 876 34
139 481 60
140 501 833
141 315 125
142 856 368
143 158 494
144 304 611
145 916 16
146 606 344
147 48 866
148 557 242
149 348 238
150 881 199
151 942 308
152 367 909
153 567 429
154 263 687
155 80 592
156 917 557
157 229 120
158 663 574
159 661 630
160 969 401
161 193 230
162 820 144
163 330 976
164 363 421
165 24 571
166 799 697
167 693 323
168 519 860
169 487 344
170 497 48
171 803 6
172 933 729
173 50 642
174 137 27
175 668 500
176 679 303
177 387 948
178 770 982
179 751 922
180 911 626
181 874 634
182 775 271
183 464 526
184 358 1
185 87 466
186 360 776
187 678 210
188 831 505
189 310 98
190 60 386
191 211 11
192 717 474
193 27 576
194 239 512
195 339 610
196 480 11
197 427 835
198 590 578
199 288 823
200 164 489
201 900 201
202 632 524
203 738 109
204 893 40
205 540 895
206 212 305
207 323 70
208 363 67
209 646 520
210 9 393
211 128 947
212 353 737
213 216 578
214 25 274
215 195 119
216 221 479
217 456 958
218 94 951
219 14 611
220 398 493
221 271 437
222 376 441
223 33 583
224 899 242
225 773 188
226 860 280
227 149 839
228 813 956
229 773 271
230 863 14
231 216 323
232 808 127
233 287 138
234 529 712
235 538 620
236 631 17
237 35 132
238 332 451
239 373 454
240 607 153
241 941 985
242 573 829
243 434 192
244 138 825
245 627 320
246 883 457
247 383 339
248 206 590
249 924 152
250 717 463
251 340 43
252 870 772
253 363 386
254 862 991
255 375 592
256 766 958
257 679 316
258 931 697
259 11 913
260 611 501
261 310 130
262 867 257
263 728 74
264 698 23
265 898 404
266 438 862
267 452 788
268 397 910
269 786 605
270 745 715
271 69 902
272 660 810
273 521 591
274 713 540
275 916 907
276 513 141
277 354 109
278 596 71
279 280 435
280 563 585
281 740 301
282 476 563
283 906 759
284 494 590
285 834 195
286 765 282
287 488 289
288 568 869
289 997 212
290 702 13
291 175 81
292 125 900
293 290 663
294 852 555
295 71 327
296 84 429
297 982 249
298 611 223
299 731 863
300 442 967
301 40 563
302 703 347
303 661 662
304 773 288
305 638 588
306 678 775
307 824 341
308 729 935
309 650 197
310 415 366
311 134 657
312 542 714
313 154 654
314 624 499
315 960 5
316 522 197
317 935 115
318 338 567
319 621 926
320 554 225
321 976 124
322 422 479
323 892 594
324 605 401
325 963 118
326 68 159
327 499 330
328 218 594
329 790 923
330 296 46
331 623 94
332 14 439
333 49 257
334 454 598
335 398 986
336 195 838
337 540 227
338 718 784
339 409 746
340 35 456
341 762 832
342 592 591
343 196 254
344 394 226
345 418 462
346 409 522
347 753 35
348 202 846
349 916 395
350 830 95
351 24 750
352 976 279
353 865 302
354 343 344
355 409 702
356 301 254
357 578 746
358 767 318
359 259 335
360 349 767
361 571 676
362 744 582
363 380 734
364 366 576
365 64 936
366 248 717
367 531 123
368 176 708
369 479 758
370 82 818
371 922 369
372 684 955
373 942 265
374 374 998
375 717 478
376 367 372
377 781 973
378 81 883
379 536 97
380 787 785
381 26 285
382 491 117
383 949 12
384 80 279
385 916 998
386 715 860
387 978 655
388 463 711
389 385 797
390 196 283
391 602 591
392 728 198
393 577 759
394 204 79
395 251 30
396 746 628
397 334 850
398 338 954
399 308 324
400 969 149
401 705 430
402 22 125
403 610 463
404 922 681
405 439 747
406 13 834
407 946 578
408 713 402
409 491 438
410 893 830
411 558 441
412 525 263
413 517 36
414 571 882
415 643 965
416 120 476
417 377 460
418 787 273
419 849 702
420 340 19
421 635 520
422 607 304
423 779 347
424 603 139
425 55 419
426 928 789
427 487 234
428 404 845
429 108 249
430 971 558
431 983 839
432 820 413
433 466 494
434 788 959
435 726 276
436 0 885
437 504 525
438 759 351
439 132 804
440 680 566
441 801 108
442 90 614
443 69 317
444 666 531
445 638 898
446 319 639
447 358 855
448 345 118
449 501 939
450 809 837
451 271 94
452 184 431
453 577 166
454 249 631
455 37 855
456 225 839
457 257 910
458 163 960
459 336 595
460 591 477
461 638 385
462 398 781
463 801 917
464 980 748
465 13 199
466 629 565
467 518 59
468 171 816
469 386 852
470 861 799
471 527 405
472 520 113
473 959 231
474 927 484
475 320 976
476 460 840
477 638 118
478 987 640
479 343 933
480 4 457
481 535 683
482 30 800
483 496 80
484 243 194
485 461 987
486 374 512
487 630 363
488 845 547
489 434 479
490 162 843
491 50 364
492 555 775
493 171 505
494 869 873
495 15 809
496 700 403
497 597 797
498 795 196
499 237 62
500 682 724
501 335 977
502 569 427
503 379 633
504 481 295
505 215 59
506 651 692
507 560 666
508 157 438
509 769 951
510 824 134
511 850 450
512 348 742
513 730 945
514 703 412
515 773 913
516 769 561
517 538 228
518 229 200
519 806 122
520 711 514
521 834 378
522 173 688
523 879 789
524 548 987
525 961 861
526 634 81
527 876 764
528 230 630
529 466 535
530 536 102
531 133 535
532 784 861
533 602 148
534 134 487
535 940 737
536 815 360
537 821 842
538 512 487
539 38 639
540 8 577
541 278 643
542 79 371
543 126 655
544 627 223
545 336 973
546 74 924
547 350 839
548 9 780
549 57 143
550 66 944
551 814 382
552 74 990
553 707 856
554 447 745
555 71 122
556 820 364
557 254 702
558 943 660
559 632 31
560 820 679
561 873 665
562 101 533
563 456 728
564 726 474
565 436 619
566 806 226
567 458 967
568 771 559
569 24 828
570 761 118
571 7 144
572 263 505
573 419 445
574 3 602
575 423 799
576 89 151
577 604 17
578 397 585
579 480 109
580 215 101
581 269 982
582 134 993
583 905 394
584 185 224
585 304 162
586 234 264
587 878 612
588 620 156
589 303 278
590 44 855
591 533 864
592 718 798
593 64 437
594 743 738
595 455 890
596 760 816
597 87 637
598 834 898
599 185 572
600 599 142
601 76 267
602 648 838
603 715 431
604 170 474
605 439 608
606 847 75
607 991 131
608 987 776
609 783 329
610 921 646
611 411 976
612 638 775
613 423 993
614 684 597
615 329 406
616 293 468
617 875 548
618 784 495
619 549 509
620 197 614
621 357 841
622 191 919
623 829 509
624 176 239
625 292 100
626 710 967
627 381 271
628 133 135
629 807 453
630 467 749
631 369 804
632 549 358
633 228 411
634 422 893
635 412 751
636 982 733
637 589 381
638 860 42
639 78 903
640 569 345
641 122 157
642 894 355
643 395 686
644 527 51
645 769 426
646 966 7
647 336 670
648 648 970
649 669 263
650 345 688
651 334 63
652 804 987
653 665 637
654 632 101
655 772 217
656 445 251
657 807 906
658 251 470
659 484 123
660 98 682
661 843 317
662 959 30
663 262 911
664 871 459
665 728 510
666 334 535
667 348 353
668 946 531
669 118 14
670 291 752
671 938 361
672 85 112
673 874 752
674 566 966
675 680 491
676 130 180
677 558 532
678 228 473
679 177 434
680 499 981
681 937 557
682 170 92
683 484 525
684 689 524
685 479 920
686 617 651
687 609 240
688 773 84
689 857 102
690 619 498
691 13 695
692 905 706
693 446 478
694 555 993
695 112 144
696 815 693
697 826 813
698 634 14
699 774 487
700 313 120
701 277 759
702 391 455
703 817 760
704 787 325
705 286 363
706 189 724
707 517 641
708 701 412
709 39 562
710 722 245
711 100 949
712 98 751
713 928 681
714 508 959
715 247 144
716 101 476
717 46 938
718 395 820
719 592 826
720 410 990
721 693 941
722 60 300
723 220 235
724 801 457
725 868 188
726 509 886
727 171 754
728 631 311
729 773 569
730 572 581
731 938 403
732 334 749
733 317 863
734 410 401
735 967 345
736 923 234
737 609 241
738 13 883
739 155 385
740 486 997
741 463 764
742 698 572
743 356 465
744 694 529
745 893 883
746 608 537
747 876 170
748 293 93
749 620 941
750 217 857
751 971 225
752 607 215
753 566 671
754 829 126
755 353 996
756 38 186
757 356 695
758 68 960
759 688 990
760 569 563
761 819 29
762 397 484
763 91 351
764 258 668
765 486 578
766 599 841
767 637 370
768 743 89
769 93 635
770 287 690
771 846 975
772 738 183
773 78 389
774 404 706
775 195 232
776 537 567
777 81 414
778 721 77
779 618 854
780 512 627
781 448 179
782 334 10
783 995 688
784 613 12
785 725 542
786 171 228
787 663 226
788 867 142
789 161 250
790 485 465
791 913 100
792 880 698
793 213 444
794 360 974
795 485 582
796 336 126
797 35 152
798 205 23
799 77 83
800 498 141
801 990 797
802 261 397
803 838 659
804 706 222
805 136 687
806 92 894
807 869 500
808 878 112
809 744 525
810 96 830
811 725 444
812 10 324
813 781 904
814 995 534
815 915 464
816 679 632
817 419 805
818 338 854
819 400 176
820 536 577
821 535 103
822 8 650
823 94 338
824 812 968
825 206 62
826 711 300
827 367 345
828 817 375
829 215 838
830 482 199
831 538 736
832 437 640
833 546 974
834 185 253
835 381 687
836 639 364
837 888 908
838 12 388
839 624 519
840 965 418
841 130 464
842 985 43
843 445 191
844 36 437
845 869 362
846 449 675
847 980 804
848 54 321
849 901 710
850 582 253
851 813 96
852 295 739
853 726 504
854 888 766
855 485 952
856 617 620
857 47 135
858 699 715
859 990 890
860 951 664
861 274 884
862 677 618
863 270 576
864 812 834
865 13 418
866 309 509
867 727 310
868 788 858
869 580 301
870 414 438
871 712 540
872 48 732
873 490 483
874 636 970
875 30 346
876 841 214
877 962 807
878 947 684
879 440 957
880 990 333
881 417 506
882 149 678
883 153 236
884 396 878
885 984 703
886 373 62
887 334 190
888 543 908
889 988 913
890 575 465
891 600 467
892 989 243
893 463 540
894 40 530
895 522 854
896 870 975
897 643 379
898 884 415
899 124 779
900 402 955
901 466 117
902 547 294
903 383 811
904 380 304
905 73 831
906 299 858
907 730 158
908 674 908
909 309 487
910 739 812
911 546 173
912 734 916
913 220 444
914 293 376
915 670 846
916 87 244
917 559 950
918 716 790
919 891 306
920 842 77
921 277 644
922 589 803
923 450 327
924 179 362
925 31 55
926 824 185
927 545 822
928 863 311
929 683 106
930 158 219
931 823 342
932 733 905
933 794 607
934 661 205
935 888 583
936 208 385
DEMAND_SECTION
2 88
3 98
4 94
5 89
6 83
7 65
8 85
9 66
10 89
11 80
12 58
13 54
14 75
15 60
16 77
17 69
18 79
19 99
20 86
21 63
22 84
23 92
24 87
25 54
26 93
27 58
28 62
29 98
30 50
31 71
32 55
33 61
34 76
35 76
36 88
37 51
38 78
39 71
40 90
41 90
42 87
43 80
44 74
45 83
46 79
47 77
48 58
49 53
50 99
51 62
52 95
53 61
54 84
55 86
56 91
57 79
58 93
59 76
60 88
61 68
62 80
63 59
64 82
65 53
66 67
67 90
68 51
69 99
70 72
71 70
72 85
73 80
74 80
75 81
76 100
77 60
78 74
79 52
80 70
81 70
82 53
83 92
84 55
85 73
86 63
87 55
88 68
89 100
90 69
91 77
92 55
93 68
94 81
95 89
96 70
97 59
98 76
99 51
100 99
101 92
102 78
103 75
104 84
105 98
106 81
107 96
108 99
109 100
110 71
111 50
112 76
113 80
114 55
115 51
116 79
117 62
118 86
119 62
120 79
121 81
122 84
123 72
124 77
125 61
126 64
127 70
128 84
129 90
130 63
131 74
132 92
133 93
134 58
135 99
136 98
137 57
138 50
139 87
140 85
141 62
142 83
143 82
144 89
145 97
146 68
147 52
148 81
149 91
150 64
151 68
152 87
153 85
154 100
155 74
156 66
157 59
158 95
159 67
160 86
161 58
162 92
163 69
164 92
165 64
166 75
167 52
168 91
169 70
170 52
171 66
172 68
173 61
174 72
175 60
176 70
177 83
178 53
179 57
180 70
181 71
182 61
183 86
184 54
185 73
186 79
187 97
188 86
189 75
190 84
191 92
192 87
193 78
194 74
195 50
196 62
197 69
198 92
199 50
200 73
201 100
202 99
203 98
204 63
205 59
206 50
207 97
208 82
209 50
210 74
211 80
212 62
213 66
214 88
215 79
216 94
217 58
218 83
219 51
220 97
221 71
222 94
223 57
224 50
225 60
226 73
227 6
228 4
229 4
230 4
231 1
232 2
233 2
234 1
235 9
236 7
237 4
238 7
239 2
240 8
241 3
242 9
243 7
244 4
245 8
246 2
247 2
248 4
249 1
250 6
251 1
252 3
253 2
254 8
255 5
256 8
257 4
258 1
259 4
260 3
261 6
262 5
263 6
264 3
265 2
266 6
267 3
268 8
269 1
270 6
271 10
272 1
273 7
274 5
275 6
276 1
277 10
278 7
279 8
280 8
281 5
282 5
283 2
284 10
285 1
286 6
287 2
288 4
289 3
290 5
291 7
292 5
293 2
294 3
295 6
296 9
297 2
298 7
299 5
300 8
301 5
302 1
303 8
304 7
305 4
306 5
307 5
308 5
309 3
310 6
311 7
312 4
313 5
314 6
315 8
316 2
317 3
318 6
319 4
320 9
321 2
322 9
323 7
324 10
325 5
326 10
327 6
328 3
329 6
330 7
331 7
332 1
333 8
334 4
335 8
336 9
337 8
338 2
339 8
340 10
341 9
342 1
343 10
344 4
345 5
346 3
347 10
348 3
349 2
350 9
351 5
352 7
353 4
354 7
355 6
356 2
357 6
358 1
359 6
360 8
361 5
362 8
363 2
364 8
365 4
366 7
367 2
368 1
369 1
370 9
371 7
372 7
373 10
374 4
375 1
COVERAGE_SECTION
2 11 430 814 668 33 681 123 407 156 113 16 474 
3 11 674 833 524 694 917 52 136 714 680 749 888 
4 11 395 330 191 798 499 782 505 420 825 251 207 
5 11 886 208 277 21 117 108 448 796 81 651 901 
6 11 733 906 397 818 11 861 447 547 621 130 152 
7 11 325 321 317 607 791 842 662 400 249 383 646 
8 11 62 483 579 382 472 659 901 139 379 530 821 
9 11 572 616 658 909 866 194 678 216 221 58 279 
10 11 273 284 780 820 235 795 765 776 707 280 282 
11 11 397 818 547 447 621 733 6 906 469 631 199 
12 11 190 773 425 777 491 542 593 296 838 844 210 
13 11 349 731 583 40 265 898 371 840 160 671 815 
14 11 908 78 445 721 372 319 749 415 648 308 932 
15 11 278 379 530 821 424 600 331 367 533 67 654 
16 11 156 617 935 681 323 668 294 407 488 807 587 
17 11 849 792 692 131 419 404 258 673 561 172 713 
18 11 871 274 744 684 785 520 742 440 49 444 665 
19 11 47 812 875 116 491 838 848 210 381 295 443 
20 11 552 758 550 717 365 218 27 711 546 582 211 
21 11 117 5 819 901 781 243 579 843 659 277 382 
22 11 150 876 725 201 224 262 37 285 747 736 926 
23 11 201 736 473 249 751 150 224 400 747 725 289 
24 11 739 55 763 542 823 773 74 924 56 777 190 
25 11 431 877 847 801 525 608 90 426 859 464 126 
26 11 484 518 114 723 715 585 586 775 133 161 233 
27 11 218 550 711 546 365 758 639 717 271 211 806 
28 11 225 498 162 926 232 510 519 285 754 570 441 
29 11 592 918 338 910 272 306 553 915 386 596 299 
30 11 701 670 852 366 557 154 770 732 199 706 512 
31 11 458 582 211 711 622 132 218 59 552 27 292 
32 11 207 81 651 189 748 108 251 330 625 208 700 
33 11 123 668 2 814 113 430 474 681 156 407 815 
34 11 311 882 84 543 313 805 522 660 91 368 769 
35 11 914 615 705 667 253 354 802 376 58 279 164 
36 11 50 223 101 301 709 193 155 165 540 219 442 
37 11 876 68 262 566 22 226 285 418 125 926 224 
38 11 563 554 405 388 630 741 369 635 339 355 774 
39 11 245 728 836 487 767 146 257 65 897 422 176 
40 11 13 265 898 815 246 349 583 731 664 474 840 
41 11 312 361 753 507 481 234 357 73 831 393 94 
42 11 850 737 687 148 869 422 298 902 320 752 544 
43 11 83 75 303 816 653 858 159 862 396 506 500 
44 11 788 808 689 747 754 791 249 510 725 162 317 
45 11 534 143 416 841 200 604 493 716 531 508 185 
46 11 863 144 454 541 921 528 328 446 459 213 104 
47 11 19 875 812 838 210 116 491 848 865 190 12 
48 11 411 122 538 890 153 502 619 409 790 873 60 
49 11 742 362 785 274 871 18 440 614 744 158 516 
50 11 36 155 101 301 709 223 193 165 442 72 894 
51 11 107 413 87 196 170 644 467 139 483 8 62 
52 11 833 917 674 3 524 714 694 449 888 680 855 
53 11 490 86 336 468 227 348 244 829 750 456 439 
54 11 920 606 350 638 851 689 761 138 441 230 754 
55 11 56 24 739 777 296 508 773 74 841 542 679 
56 11 55 508 841 296 416 777 679 716 185 739 24 
57 11 746 198 760 839 466 202 677 421 260 730 342 
58 11 279 616 221 238 909 615 658 9 35 802 743 
59 11 132 622 66 457 663 458 861 581 750 31 348 
60 11 891 403 890 460 153 502 411 122 260 690 324 
61 11 341 532 868 596 299 910 450 386 864 537 553 
62 11 8 579 483 382 659 901 139 472 800 170 467 
63 11 628 695 110 641 672 682 109 576 291 555 799 
64 11 537 70 450 598 864 494 868 532 657 697 463 
65 11 176 257 649 728 245 39 167 826 422 787 93 
66 11 663 457 59 132 581 861 622 475 163 398 6 
67 11 424 240 533 588 600 477 654 453 331 79 15 
68 11 418 125 37 182 229 566 304 100 286 137 226 
69 11 880 735 151 352 671 373 297 371 892 919 160 
70 11 657 598 64 463 813 868 532 329 537 515 450 
71 11 247 904 310 827 923 376 667 354 627 124 253 
72 11 894 562 101 301 709 50 36 165 716 185 193 
73 11 357 393 492 41 831 497 312 922 612 234 111 
74 11 739 924 936 452 679 508 24 55 56 633 793 
75 11 816 653 159 862 83 303 43 102 614 121 506 
76 11 586 206 390 343 231 723 834 775 161 359 624 
77 11 384 823 443 601 295 429 722 763 916 848 789 
78 11 908 14 445 721 372 319 553 915 932 386 912 
79 11 453 911 533 240 600 424 588 67 752 320 316 
80 11 409 790 873 82 693 471 538 48 433 489 573 
81 11 32 207 651 189 108 208 251 277 748 448 625 
82 11 471 409 80 169 632 327 122 103 411 153 502 
83 11 303 75 43 653 816 159 506 862 94 858 500 
84 11 543 311 34 313 805 882 660 769 597 91 442 
85 11 768 203 688 263 778 570 347 441 851 519 929 
86 11 490 53 227 244 468 336 348 439 829 750 292 
87 11 107 51 413 196 644 170 467 139 483 577 784 
88 11 436 738 129 455 259 406 590 147 569 495 271 
89 11 872 91 712 660 351 691 92 805 84 173 899 
90 11 608 464 801 112 847 636 877 126 535 25 426 
91 11 660 805 89 84 712 882 34 543 311 872 597 
92 11 482 548 351 495 872 370 569 118 905 712 406 
93 11 710 804 435 649 187 787 392 826 934 176 281 
94 11 686 506 303 83 361 653 159 856 753 41 75 
95 11 164 222 239 417 702 743 238 870 253 124 615 
96 11 423 438 609 704 358 137 536 931 307 556 100 
97 11 359 705 231 914 399 206 802 76 936 35 589 
98 11 342 280 730 391 198 856 235 760 820 776 686 
99 11 375 853 192 564 665 520 250 675 809 684 744 
100 11 304 286 358 182 229 418 137 704 609 281 125 
101 11 301 709 36 165 193 223 50 894 540 72 155 
102 11 121 862 614 158 159 305 816 653 440 75 742 
103 11 327 169 504 287 923 632 902 82 412 640 471 
104 11 528 620 454 328 248 213 764 921 541 46 599 
105 11 288 414 766 242 779 719 591 205 888 927 895 
106 11 517 337 427 412 316 320 148 830 287 911 850 
107 11 413 51 87 644 170 467 196 139 483 379 8 
108 11 277 448 81 796 32 208 189 207 651 700 141 
109 11 799 672 555 110 63 857 549 576 695 237 628 
110 11 109 63 799 672 174 682 291 628 669 555 695 
111 11 927 492 242 922 393 497 140 719 895 168 591 
112 11 636 464 90 885 608 535 783 126 172 801 847 
113 11 123 33 474 814 840 668 815 2 160 430 731 
114 11 26 356 484 133 586 723 518 589 76 775 161 
115 11 568 809 516 618 729 699 665 785 853 623 362 
116 11 848 875 295 491 443 19 812 722 47 763 542 
117 11 21 819 5 277 448 796 108 243 781 843 887 
118 11 370 810 905 439 899 244 92 712 227 482 590 
119 11 344 149 819 887 627 243 133 843 656 117 781 
120 11 889 859 241 275 525 385 431 837 745 25 896 
121 11 305 102 158 466 856 159 862 614 391 653 440 
122 11 411 153 502 48 890 471 60 460 891 324 403 
123 11 33 113 814 668 2 474 430 681 815 156 407 
124 11 734 310 870 253 95 164 376 573 222 702 239 
125 11 182 229 418 68 286 304 655 566 100 710 435 
126 11 535 172 283 426 464 854 90 636 608 849 112 
127 11 676 641 930 695 628 576 883 786 429 584 326 
128 11 462 635 389 575 339 817 903 186 405 718 631 
129 11 259 738 436 88 147 717 271 455 590 365 639 
130 11 479 152 398 177 545 794 268 163 501 475 6 
131 11 792 561 17 419 849 692 803 404 181 560 713 
132 11 59 622 66 457 663 458 31 581 750 861 211 
133 11 356 149 887 114 589 119 26 585 484 627 344 
134 11 157 715 580 451 215 233 394 625 499 748 505 
135 11 599 248 213 328 620 531 104 493 528 143 313 
136 11 874 415 648 749 3 674 319 694 759 524 372 
137 11 704 609 100 358 423 96 304 307 931 418 661 
138 11 204 638 230 145 54 606 920 761 689 350 383 
139 11 170 483 62 467 8 413 644 51 196 579 107 
140 11 895 168 476 591 927 111 726 267 266 242 205 
141 11 700 261 796 189 233 448 625 585 748 108 277 
142 11 845 521 556 642 828 307 536 931 551 661 265 
143 11 200 493 45 604 534 841 416 531 508 716 679 
144 11 46 446 195 459 541 921 863 293 318 454 647 
145 11 204 383 138 315 662 646 230 638 842 791 7 
146 11 487 245 39 640 836 422 767 637 728 869 897 
147 11 590 455 378 738 271 905 129 569 406 88 639 
148 11 320 337 517 850 42 412 106 687 737 902 298 
149 11 119 133 627 344 356 887 589 904 114 819 585 
150 11 725 201 22 747 876 224 285 23 736 788 926 
151 11 69 373 352 735 919 671 880 371 642 297 736 
152 11 130 268 479 884 177 398 447 634 900 6 469 
153 11 502 122 411 60 890 48 324 471 891 637 460 
154 11 557 764 770 366 293 921 541 454 852 528 30 
155 11 50 442 36 769 101 597 223 301 709 193 173 
156 11 16 681 407 668 935 617 323 430 2 294 33 
157 11 134 580 715 215 394 451 499 233 825 505 682 
158 11 440 102 121 305 614 466 742 444 862 18 49 
159 11 653 816 862 75 102 303 83 121 614 856 305 
160 11 840 731 13 671 349 735 371 583 40 265 880 
161 11 775 584 624 786 343 834 723 930 789 883 518 
162 11 510 754 232 519 28 441 926 788 851 350 285 
163 11 501 545 475 398 755 794 479 374 130 581 177 
164 11 95 222 239 253 615 417 238 702 743 124 376 
165 11 193 223 540 709 301 101 36 574 219 50 894 
166 11 696 560 419 803 270 703 594 131 561 792 396 
167 11 257 176 302 826 867 65 39 281 435 728 649 
168 11 895 591 726 140 205 927 288 888 414 105 242 
169 11 327 103 923 504 82 287 632 471 310 902 640 
170 11 139 413 467 644 51 483 107 196 8 62 87 
171 11 761 347 230 638 54 138 920 606 688 851 350 
172 11 535 126 258 692 849 283 878 713 17 404 636 
173 11 539 597 822 769 219 442 155 36 223 574 660 
174 11 669 110 291 798 682 191 825 799 505 109 394 
175 11 675 209 444 684 421 744 202 314 520 839 690 
176 11 257 65 167 826 649 39 728 867 302 435 245 
177 11 900 611 794 268 335 130 152 479 720 398 374 
178 11 377 256 434 509 652 824 228 513 308 329 626 
179 11 912 515 932 308 513 509 813 256 329 463 434 
180 11 610 587 323 181 558 935 561 860 404 713 407 
181 11 587 561 180 323 803 610 131 935 792 404 560 
182 11 229 418 286 304 125 100 68 281 358 435 137 
183 11 529 893 683 433 282 437 873 693 881 346 489 
184 11 420 782 251 886 208 651 207 330 32 81 4 
185 11 716 416 296 593 841 534 777 56 340 45 425 
186 11 360 631 389 512 732 462 212 903 128 363 718 
187 11 934 787 804 309 93 392 544 649 710 772 298 
188 11 623 807 488 618 294 629 724 511 699 664 115 
189 11 625 748 700 32 81 141 207 261 108 796 451 
190 11 12 773 491 542 425 777 763 838 296 875 210 
191 11 798 395 505 825 4 499 394 174 291 580 682 
192 11 375 564 250 99 811 853 665 520 675 603 401 
193 11 165 223 301 709 540 101 36 574 219 50 894 
194 11 572 216 9 678 658 493 213 616 866 863 913 
195 11 459 144 446 255 318 364 503 647 578 46 541 
196 11 51 170 87 107 413 139 467 644 483 62 8 
197 11 428 266 817 476 718 575 469 903 267 884 389 
198 11 342 391 730 760 280 98 57 466 746 305 856 
199 11 906 733 397 11 818 6 861 547 456 701 621 
200 11 143 604 493 45 534 841 416 508 531 679 216 
201 11 150 23 22 725 747 736 224 249 876 262 285 
202 11 421 839 209 314 746 690 260 444 57 466 175 
203 11 768 85 570 263 778 688 907 929 441 519 232 
204 11 138 145 638 230 606 54 383 791 920 662 689 
205 11 888 591 726 414 288 168 895 105 917 449 52 
206 11 231 76 390 586 343 359 97 834 924 723 624 
207 11 32 81 651 189 251 330 748 108 208 625 277 
208 11 886 651 251 81 108 207 32 5 277 420 448 
209 11 421 202 839 444 175 314 690 260 746 684 675 
210 11 838 865 47 332 12 491 190 875 19 844 425 
211 11 711 218 458 27 582 292 31 546 758 550 806 
212 11 512 732 363 360 186 757 650 339 835 852 774 
213 11 248 328 599 135 620 104 528 863 46 454 194 
214 11 381 333 722 601 812 384 848 443 116 19 916 
215 11 580 157 682 394 291 134 715 825 505 628 63 
216 11 678 658 913 793 194 572 604 9 493 200 452 
217 11 567 879 300 485 855 685 611 613 449 680 740 
218 11 711 27 758 550 211 365 546 552 717 20 639 
219 11 574 223 540 193 539 822 165 36 173 301 709 
220 11 762 881 322 346 486 345 417 489 702 239 693 
221 11 279 58 616 658 802 633 913 9 678 793 238 
222 11 95 239 417 702 164 743 870 573 238 345 762 
223 11 193 165 36 301 709 101 540 50 219 574 155 
224 11 736 262 22 201 150 373 226 23 473 725 37 
225 11 498 655 28 772 392 566 926 907 285 125 162 
226 11 353 262 928 919 661 37 224 68 22 876 307 
227 11 490 86 244 53 468 439 336 348 810 118 899 
228 11 824 434 652 377 771 329 463 509 256 178 657 
229 11 182 286 418 304 125 100 68 281 358 435 137 
230 11 138 638 204 761 145 54 171 606 920 383 350 
231 11 206 76 359 390 97 924 586 936 343 834 705 
232 11 519 510 441 162 754 851 350 28 570 688 689 
233 11 261 585 141 700 625 715 748 189 451 796 134 
234 11 312 831 481 41 361 507 753 357 388 393 73 
235 11 780 707 10 273 98 280 820 507 730 284 776 
236 11 698 559 784 577 278 526 264 290 331 654 15 
237 11 857 402 797 549 571 555 326 672 756 576 109 
238 11 743 58 239 95 164 616 909 222 615 417 279 
239 11 417 222 702 743 95 164 762 238 870 220 345 
240 11 533 588 67 600 424 453 79 477 654 15 331 
241 11 385 120 896 254 275 889 837 771 859 745 525 
242 11 719 766 927 922 105 111 288 497 779 414 591 
243 11 843 781 819 830 344 656 21 119 117 427 800 
244 11 227 439 490 86 468 53 810 118 899 370 336 
245 11 728 39 422 146 65 487 836 767 869 257 176 
246 11 664 815 511 40 898 807 474 265 13 583 349 
247 11 827 71 904 376 667 354 310 253 124 627 734 
248 11 328 213 620 599 135 104 528 454 863 46 313 
249 11 317 23 400 44 747 325 791 201 788 321 808 
250 11 192 564 375 811 99 603 401 853 675 665 520 
251 11 651 420 207 208 782 32 81 886 330 184 108 
252 11 527 523 854 673 470 283 703 426 697 410 17 
253 11 376 164 667 615 827 124 95 354 734 35 247 
254 11 896 771 385 824 652 228 241 434 377 837 178 
255 11 364 578 459 195 503 318 605 565 666 144 446 
256 11 509 377 434 178 513 179 329 308 515 228 824 
257 11 176 167 65 826 302 39 728 867 245 649 435 
258 11 713 404 878 692 172 849 558 860 535 17 792 
259 11 129 436 738 88 717 365 271 147 550 455 546 
260 11 690 314 839 202 421 460 746 891 403 209 57 
261 11 141 700 233 796 189 585 625 448 748 108 277 
262 11 226 37 224 22 353 876 928 919 68 150 736 
263 11 778 768 85 203 347 688 570 929 264 290 441 
264 11 290 347 263 778 698 559 236 768 85 929 526 
265 11 583 898 349 13 40 731 371 642 845 142 246 
266 11 197 476 595 634 428 884 469 718 817 268 575 
267 11 741 575 817 369 630 405 554 128 197 476 462 
268 11 152 634 884 177 900 130 469 479 595 266 879 
269 11 933 729 396 516 362 568 803 115 49 560 294 
270 11 594 858 166 500 43 696 338 918 380 560 703 
271 11 639 378 546 806 365 27 147 550 717 129 590 
272 11 602 915 306 612 29 592 918 779 338 497 553 
273 11 10 820 284 776 235 765 780 795 280 707 730 
274 11 871 18 785 744 520 684 49 665 809 742 853 
275 11 837 745 494 525 889 859 410 241 598 896 385 
276 11 800 367 472 382 659 821 530 579 911 8 379 
277 11 108 448 796 81 141 700 5 208 189 32 117 
278 11 331 15 526 654 559 577 784 477 236 379 424 
279 11 221 58 616 802 658 238 615 633 9 35 909 
280 11 730 760 98 198 820 342 776 391 273 235 10 
281 11 867 435 826 286 358 304 100 229 182 609 167 
282 11 765 795 893 529 284 183 683 334 437 10 273 
283 11 854 126 527 673 426 252 172 523 535 849 17 
284 11 795 765 10 273 282 334 780 820 776 235 707 
285 11 926 876 725 498 566 22 150 37 747 28 162 
286 11 304 229 182 100 418 281 125 358 435 68 137 
287 11 504 103 327 412 923 169 427 656 902 106 517 
288 11 105 414 591 205 242 766 888 895 719 168 779 
289 11 751 892 297 473 23 400 352 373 736 607 321 
290 11 264 347 263 778 698 236 559 768 85 784 929 
291 11 682 394 825 215 580 505 63 110 499 798 174 
292 11 806 211 378 639 711 271 546 27 218 86 227 
293 11 541 921 770 764 154 446 647 454 557 144 650 
294 11 488 617 935 16 623 188 323 807 587 156 933 
295 11 443 848 823 116 722 763 491 542 875 77 384 
296 11 777 593 425 185 773 55 56 12 190 844 716 
297 11 892 751 473 352 289 373 736 69 151 23 224 
298 11 752 544 687 737 850 309 42 787 934 148 320 
299 11 386 553 61 932 341 910 532 912 596 868 29 
300 11 879 567 217 485 611 613 720 900 855 335 740 
301 11 709 101 165 193 223 36 50 894 540 72 155 
302 11 167 257 867 826 176 408 438 496 281 39 514 
303 11 83 653 75 159 506 816 94 43 686 862 102 
304 11 100 286 182 229 418 358 281 125 137 704 609 
305 11 121 466 102 158 391 856 342 440 614 159 198 
306 11 272 612 338 918 29 592 500 858 602 910 915 
307 11 931 536 556 661 828 137 521 704 142 551 609 
308 11 513 912 179 932 721 626 509 256 372 515 813 
309 11 934 187 787 544 298 752 588 687 737 804 240 
310 11 124 734 71 247 376 827 923 253 667 904 870 
311 11 543 34 84 313 882 805 660 769 522 597 91 
312 11 234 831 41 481 357 361 753 507 73 393 492 
313 11 34 311 882 543 84 805 522 368 620 660 769 
314 11 690 260 839 421 202 209 403 460 891 746 175 
315 11 646 383 662 145 842 204 7 138 230 791 638 
316 11 911 106 337 517 830 320 427 148 276 79 800 
317 11 791 325 7 249 321 400 808 607 44 788 689 
318 11 459 364 666 195 255 144 578 866 486 863 46 
319 11 749 445 415 874 14 648 908 78 136 917 414 
320 11 337 517 148 106 850 316 412 42 911 752 298 
321 11 325 607 400 7 317 249 791 842 23 289 662 
322 11 489 345 693 762 881 220 573 702 870 346 433 
323 11 935 587 180 16 181 156 617 294 407 681 610 
324 11 637 461 502 897 487 767 153 836 60 146 122 
325 11 321 317 7 607 400 249 791 842 23 808 44 
326 11 549 576 857 797 555 756 237 695 672 641 402 
327 11 103 169 504 287 923 632 902 82 412 640 471 
328 11 248 213 620 104 528 599 135 454 863 46 541 
329 11 463 515 813 657 509 434 179 228 256 70 824 
330 11 207 32 651 251 81 748 395 4 420 782 189 
331 11 654 526 477 278 15 67 424 600 533 240 929 
332 11 480 865 844 340 210 425 593 838 12 190 296 
333 11 214 601 381 384 916 722 429 443 848 465 77 
334 11 605 565 795 765 282 284 832 578 893 10 529 
335 11 720 611 613 374 900 177 794 755 300 879 485 
336 11 348 53 829 750 456 468 490 86 227 244 439 
337 11 517 320 148 106 316 412 850 427 911 42 830 
338 11 918 592 29 910 306 594 596 272 341 380 500 
339 11 635 128 405 363 462 554 774 38 355 563 575 
340 11 844 332 480 593 425 865 185 296 777 12 210 
341 11 61 596 910 532 868 299 450 864 380 386 592 
342 11 391 198 98 730 280 760 856 466 305 57 121 
343 11 834 775 161 624 390 723 584 789 786 586 76 
344 11 119 627 149 819 243 656 843 887 781 904 133 
345 11 322 573 489 870 702 762 693 220 417 881 239 
346 11 881 220 486 762 322 489 183 693 893 529 345 
347 11 263 688 778 85 768 264 290 171 761 203 570 
348 11 336 829 750 456 53 86 490 468 227 244 622 
349 11 583 13 265 731 371 40 898 671 642 160 840 
350 11 851 920 606 689 54 754 441 519 232 510 162 
351 11 872 548 92 482 691 89 495 712 569 406 370 
352 11 297 373 69 892 151 473 751 880 735 289 736 
353 11 928 226 919 661 262 307 931 642 845 37 142 
354 11 667 827 376 247 399 253 35 904 914 705 71 
355 11 774 643 835 363 339 846 635 38 757 405 563 
356 11 589 133 114 149 586 399 26 887 627 76 484 
357 11 73 393 492 831 41 312 497 922 234 111 612 
358 11 609 704 100 96 137 304 423 281 438 286 867 
359 11 97 705 231 399 914 206 802 76 936 589 35 
360 11 186 732 512 212 631 363 389 462 903 128 670 
361 11 753 507 41 481 312 686 94 234 707 235 831 
362 11 49 729 516 568 785 396 742 269 274 871 933 
363 11 212 339 512 635 774 355 360 757 186 835 732 
364 11 255 318 578 459 195 666 503 486 346 144 446 
365 11 550 546 717 27 758 218 271 639 711 20 806 
366 11 557 154 30 770 764 701 852 670 706 293 368 
367 11 472 821 530 276 379 800 382 8 659 15 911 
368 11 522 706 882 805 727 34 313 311 84 91 366 
369 11 630 741 554 563 38 267 405 388 831 635 234 
370 11 118 905 810 92 439 590 482 244 899 455 147 
371 11 671 349 583 642 731 13 265 735 845 160 898 
372 11 721 626 759 648 415 14 513 908 308 874 78 
373 11 736 352 473 151 297 224 751 892 69 919 23 
374 11 755 335 794 720 611 501 545 163 613 900 177 
375 11 192 564 99 250 853 665 811 520 675 603 401 
376 11 253 667 827 247 354 124 310 164 615 734 35 
377 11 178 434 256 509 652 824 228 329 513 179 463 
378 11 806 639 271 147 546 590 292 455 905 810 365 
379 11 530 821 472 367 8 15 467 483 644 382 276 
380 11 703 596 697 341 864 910 450 594 537 61 338 
381 11 214 333 722 812 848 601 116 384 443 19 875 
382 11 659 579 8 62 800 901 472 276 483 367 821 
383 11 315 646 662 145 842 204 138 7 230 638 791 
384 11 601 722 77 916 333 443 429 295 848 381 214 
385 11 241 896 254 771 275 837 120 824 228 889 652 
386 11 553 299 915 932 61 29 910 341 78 912 592 
387 11 478 860 558 783 878 885 713 610 404 258 180 
388 11 563 38 554 630 846 405 369 741 355 774 339 
389 11 903 631 462 718 128 186 817 575 360 428 621 
390 11 76 206 343 834 586 231 624 789 775 161 723 
391 11 342 198 98 730 856 305 466 280 121 760 57 
392 11 772 804 907 225 710 655 93 187 498 934 787 
393 11 357 73 492 497 831 922 111 41 312 612 234 
394 11 825 505 580 291 682 499 215 157 134 798 191 
395 11 4 499 191 505 798 330 825 451 394 748 580 
396 11 269 362 933 43 49 729 75 816 614 862 516 
397 11 11 818 547 733 447 621 6 906 469 199 631 
398 11 545 479 163 501 475 130 794 755 177 152 374 
399 11 354 705 589 667 359 97 914 35 827 356 904 
400 11 321 607 325 249 317 23 7 289 791 751 473 
401 11 603 514 708 811 496 408 250 192 375 564 99 
402 11 237 571 857 797 549 555 326 756 672 799 109 
403 11 891 60 460 890 690 260 314 153 502 411 839 
404 11 713 258 878 558 692 860 610 849 17 792 131 
405 11 554 38 563 635 630 741 339 369 267 388 128 
406 11 569 495 455 590 482 88 147 738 436 548 905 
407 11 681 430 156 2 668 16 323 935 180 814 33 
408 11 496 514 708 401 603 811 302 250 645 438 192 
409 11 80 790 873 82 471 48 538 693 433 122 411 
410 11 523 470 494 745 426 252 854 527 64 697 283 
411 11 122 153 502 48 890 60 471 460 891 403 324 
412 11 106 517 148 902 337 287 320 427 504 850 42 
413 11 107 644 51 170 467 87 139 196 483 8 379 
414 11 288 105 205 888 591 766 242 779 168 895 719 
415 11 648 874 749 136 372 319 759 721 14 908 445 
416 11 841 534 716 45 185 143 56 200 604 508 296 
417 11 239 702 222 743 95 762 220 164 345 870 573 
418 11 182 229 304 68 125 286 100 137 358 566 704 
419 11 131 792 696 560 17 561 803 166 849 673 692 
420 11 782 251 184 651 330 208 207 886 32 81 4 
421 11 202 209 839 314 690 260 746 444 175 57 466 
422 11 728 245 869 146 42 39 65 640 850 902 487 
423 11 96 609 438 704 358 137 536 556 931 307 828 
424 11 600 533 67 240 588 453 477 79 15 654 331 
425 11 593 12 777 844 296 190 773 340 865 332 210 
426 11 126 283 877 854 523 535 410 847 25 90 527 
427 11 106 830 656 412 316 517 337 287 843 504 781 
428 11 469 197 718 884 266 903 817 447 621 575 634 
429 11 916 601 384 883 77 789 930 333 786 127 624 
430 11 2 407 681 814 668 33 123 156 16 113 478 
431 11 25 525 847 877 801 859 608 90 426 889 410 
432 11 551 521 828 629 511 724 556 536 645 142 898 
433 11 693 873 183 489 790 683 529 322 893 538 437 
434 11 377 509 256 228 824 178 652 329 463 515 179 
435 11 826 281 710 867 93 286 229 182 304 176 100 
436 11 88 738 129 259 455 147 406 590 569 717 271 
437 11 683 529 538 183 873 893 282 619 433 776 677 
438 11 96 423 609 358 704 137 867 281 302 100 536 
439 11 244 899 118 227 468 810 490 370 86 53 712 
440 11 158 742 614 18 49 444 102 744 871 274 684 
441 11 519 851 232 350 754 510 688 162 570 920 54 
442 11 769 597 155 50 36 173 543 84 539 311 223 
443 11 295 848 722 116 823 384 763 77 875 601 491 
444 11 209 684 744 175 421 202 18 440 675 158 839 
445 11 319 14 78 908 749 779 602 915 105 415 414 
446 11 144 195 647 293 541 921 459 650 46 503 770 
447 11 621 547 818 11 397 469 733 884 6 428 718 
448 11 796 277 108 141 700 261 189 81 32 117 207 
449 11 714 855 685 680 52 217 567 888 726 833 205 
450 11 864 537 697 868 64 532 61 341 70 596 380 
451 11 625 748 189 134 233 499 157 700 261 32 141 
452 11 679 508 793 913 74 604 633 936 739 56 200 
453 11 79 533 911 240 600 424 588 67 752 316 320 
454 11 528 104 541 921 764 46 328 293 620 154 144 
455 11 590 147 569 406 738 88 905 436 129 495 378 
456 11 829 750 348 336 53 468 490 86 199 861 227 
457 11 663 66 861 59 132 750 622 906 6 581 733 
458 11 31 211 582 622 132 711 59 218 292 27 552 
459 11 195 318 144 364 255 446 503 666 46 578 863 
460 11 891 890 60 403 260 690 314 411 619 839 153 
461 11 897 767 836 487 324 637 39 146 496 245 708 
462 11 128 389 575 817 635 903 339 631 186 718 363 
463 11 329 657 813 515 70 598 228 434 509 179 824 
464 11 112 636 90 608 535 885 126 801 172 847 783 
465 11 756 797 571 326 333 237 549 857 402 214 381 
466 11 305 158 746 121 57 391 198 202 342 421 839 
467 11 644 413 170 483 139 107 379 8 51 530 821 
468 11 53 490 227 86 336 244 439 348 829 456 899 
469 11 428 447 884 621 718 547 903 197 11 818 631 
470 11 523 252 527 697 854 410 673 537 703 283 864 
471 11 82 122 153 502 411 409 632 80 48 637 169 
472 11 367 821 530 379 8 276 382 800 659 62 579 
473 11 751 297 892 736 373 289 23 352 224 201 151 
474 11 815 123 668 33 246 113 40 807 664 16 13 
475 11 163 501 545 398 755 794 479 581 130 374 66 
476 11 266 197 140 595 267 817 575 428 168 895 634 
477 11 654 331 67 526 424 588 600 240 533 929 278 
478 11 387 860 558 783 878 885 610 713 407 180 404 
479 11 130 398 152 545 794 163 501 177 475 268 6 
480 11 332 340 844 865 593 210 425 838 894 12 185 
481 11 234 507 312 753 361 41 707 831 780 235 357 
482 11 495 92 548 569 406 351 905 370 455 590 118 
483 11 8 62 139 467 170 579 382 472 644 379 659 
484 11 26 518 114 723 715 775 161 584 585 233 586 
485 11 567 740 300 217 879 613 680 855 611 720 714 
486 11 220 346 762 881 666 743 417 239 322 702 364 
487 11 836 767 897 461 39 146 245 324 637 728 422 
488 11 294 617 623 188 807 935 16 323 115 156 587 
489 11 322 693 345 881 433 573 762 220 870 702 346 
490 11 86 53 227 468 244 336 348 439 829 750 456 
491 11 190 875 116 542 12 773 295 763 848 838 19 
492 11 393 111 357 831 73 922 497 927 242 312 719 
493 11 143 200 604 45 534 531 216 841 416 678 194 
494 11 745 64 837 598 410 70 537 275 864 450 657 
495 11 482 569 406 548 92 455 590 351 905 88 147 
496 11 514 708 408 401 603 811 302 250 897 461 767 
497 11 922 719 242 393 766 492 612 73 111 357 927 
498 11 225 655 926 28 566 285 876 162 772 125 37 
499 11 505 825 395 394 580 451 798 191 134 157 330 
500 11 858 506 306 83 43 594 270 303 612 338 94 
501 11 545 163 475 398 794 755 374 479 130 177 335 
502 11 153 122 411 60 890 324 48 471 637 891 403 
503 11 255 195 578 835 643 459 647 364 832 565 446 
504 11 287 103 327 923 169 412 656 427 902 106 71 
505 11 825 499 394 798 580 291 395 191 682 157 215 
506 11 94 303 83 500 686 858 653 43 75 159 816 
507 11 753 361 481 41 707 235 312 234 686 780 98 
508 11 679 452 56 841 604 55 74 200 45 416 739 
509 11 256 434 377 178 179 329 515 513 308 228 824 
510 11 754 162 232 519 441 350 851 28 788 689 926 
511 11 664 246 629 432 724 898 807 188 40 623 265 
512 11 212 732 360 363 186 757 852 650 670 339 462 
513 11 308 912 626 179 721 256 509 932 372 178 515 
514 11 708 496 408 401 603 811 250 192 302 564 375 
515 11 813 329 179 463 657 509 912 932 256 434 70 
516 11 568 729 115 362 809 269 785 933 49 274 871 
517 11 337 320 106 148 316 412 427 850 911 42 830 
518 11 484 26 723 161 775 114 584 715 343 586 786 
519 11 232 441 510 754 162 851 350 28 570 688 689 
520 11 665 853 744 99 684 18 274 871 785 809 375 
521 11 828 551 556 142 536 307 432 845 931 661 898 
522 11 368 882 805 313 706 34 311 84 543 727 91 
523 11 252 470 527 854 673 283 410 426 697 126 703 
524 11 694 833 3 674 52 917 680 714 740 449 136 
525 11 431 25 859 877 889 847 275 801 745 410 426 
526 11 331 654 477 278 559 929 15 67 236 424 698 
527 11 252 673 854 523 283 470 17 426 703 126 849 
528 11 104 454 620 328 248 764 921 541 213 46 154 
529 11 893 183 683 282 437 433 765 795 873 881 346 
530 11 821 379 472 367 8 15 276 483 382 467 62 
531 11 562 45 143 493 534 200 416 135 599 716 72 
532 11 868 61 450 341 864 70 537 813 64 596 657 
533 11 240 600 424 67 588 453 79 477 15 654 331 
534 11 45 416 841 143 200 716 604 493 531 185 508 
535 11 172 126 283 258 464 636 692 849 112 426 878 
536 11 556 828 931 307 551 521 423 96 142 609 704 
537 11 864 450 64 697 868 532 70 61 494 598 470 
538 11 873 790 48 437 619 433 683 409 80 183 677 
539 11 173 822 219 597 574 769 223 36 442 691 155 
540 11 165 193 574 223 709 219 301 101 36 50 894 
541 11 921 293 454 764 144 446 46 154 770 528 104 
542 11 773 763 190 491 12 823 777 24 295 116 425 
543 11 84 311 34 313 882 805 660 769 597 91 442 
544 11 298 752 687 737 309 787 934 187 850 42 649 
545 11 501 163 475 398 794 755 479 374 130 177 335 
546 11 365 27 639 550 271 717 218 806 711 758 378 
547 11 621 11 447 397 818 469 631 733 903 718 6 
548 11 482 495 351 92 569 406 872 455 370 905 590 
549 11 857 326 797 237 555 576 402 672 756 571 695 
550 11 365 758 27 717 546 218 711 20 271 639 552 
551 11 828 556 521 536 432 931 307 142 423 96 845 
552 11 20 758 218 550 711 27 365 717 582 546 211 
553 11 386 299 915 29 910 932 61 78 592 341 602 
554 11 405 38 563 630 741 369 635 339 388 267 128 
555 11 672 549 857 109 576 237 326 799 695 797 402 
556 11 536 828 551 521 931 307 142 423 96 432 845 
557 11 366 154 764 770 293 30 852 701 670 921 541 
558 11 860 878 610 713 404 387 258 180 478 783 885 
559 11 236 698 784 577 526 278 331 264 654 290 477 
560 11 696 803 166 419 131 561 792 181 17 933 269 
561 11 131 181 792 803 419 17 404 610 692 587 849 
562 11 531 72 534 716 50 45 416 894 101 155 185 
563 11 38 388 554 630 405 741 369 339 635 846 355 
564 11 192 375 250 99 811 853 665 520 603 401 675 
565 11 605 832 334 578 846 503 795 284 765 255 282 
566 11 498 37 655 68 876 125 285 926 225 418 182 
567 11 217 300 485 879 855 740 680 613 611 449 685 
568 11 516 729 115 362 809 269 785 933 49 274 871 
569 11 406 495 482 455 590 147 905 548 88 92 738 
570 11 203 85 768 688 441 519 232 907 28 263 851 
571 11 402 797 237 857 549 756 465 326 555 576 672 
572 11 9 194 658 866 678 616 216 909 221 863 279 
573 11 870 345 702 322 489 222 693 417 734 762 239 
574 11 219 540 193 223 165 822 539 36 301 709 101 
575 11 817 128 267 462 718 197 389 903 635 428 741 
576 11 326 695 549 555 641 672 857 628 676 127 797 
577 11 784 236 698 559 278 526 331 107 644 87 15 
578 11 255 364 605 503 565 334 318 459 195 346 832 
579 11 382 62 659 901 8 483 800 472 276 139 367 
580 11 157 394 215 134 825 505 291 499 682 715 451 
581 11 66 475 163 501 545 59 663 457 398 132 755 
582 11 31 458 211 711 218 552 27 758 20 550 365 
583 11 349 265 13 371 898 731 40 642 671 845 142 
584 11 161 775 786 624 930 834 343 883 789 723 518 
585 11 233 261 141 887 700 796 448 715 625 26 189 
586 11 76 723 343 390 114 206 775 834 161 231 584 
587 11 181 323 935 180 561 610 803 294 617 16 156 
588 11 240 67 533 424 600 477 453 79 309 654 752 
589 11 356 399 133 114 149 586 359 97 354 627 76 
590 11 455 147 569 406 905 738 378 88 129 271 370 
591 11 168 895 205 726 288 414 927 140 888 105 242 
592 11 918 338 29 910 306 596 341 272 553 386 594 
593 11 425 296 844 777 340 185 12 332 773 190 716 
594 11 270 858 338 918 500 380 592 166 910 306 703 
595 11 266 634 685 476 726 884 268 197 449 217 428 
596 11 341 910 61 380 592 868 532 918 338 450 299 
597 11 769 442 173 84 543 155 660 539 311 34 50 
598 11 70 657 64 463 494 329 813 837 537 745 868 
599 11 135 248 213 328 620 531 104 493 528 194 143 
600 11 424 533 240 67 588 453 79 477 15 654 331 
601 11 384 916 333 429 722 77 443 214 381 848 295 
602 11 915 272 779 766 719 29 445 553 612 497 922 
603 11 401 811 514 708 408 250 496 192 564 375 645 
604 11 200 143 493 45 508 534 679 841 452 416 216 
605 11 565 334 832 578 795 765 282 284 503 255 846 
606 11 920 54 350 689 638 851 808 138 754 761 441 
607 11 321 400 325 7 317 249 289 791 23 842 751 
608 11 90 801 464 847 112 877 636 25 126 426 535 
609 11 704 96 423 137 358 100 438 304 931 307 536 
610 11 180 558 404 860 713 878 181 258 561 587 387 
611 11 720 335 613 900 300 879 177 374 217 567 485 
612 11 306 272 497 922 73 393 602 357 500 719 29 
613 11 720 611 335 300 485 879 900 567 217 374 177 
614 11 862 102 742 158 440 816 121 49 159 75 653 
615 11 35 164 253 238 58 914 95 376 667 279 222 
616 11 909 58 9 279 221 658 238 866 572 743 678 
617 11 294 16 488 935 156 807 323 623 188 681 587 
618 11 699 115 724 623 188 629 809 665 853 564 99 
619 11 677 538 437 48 890 460 760 776 57 260 873 
620 11 104 248 328 528 213 135 599 454 313 34 311 
621 11 547 447 11 818 397 469 631 903 718 733 428 
622 11 132 59 458 457 750 211 292 66 663 31 348 
623 11 188 488 807 618 294 115 699 724 617 629 511 
624 11 786 584 834 161 789 775 883 343 930 723 390 
625 11 748 189 451 700 141 261 233 32 81 207 796 
626 11 372 513 721 759 308 912 256 179 509 178 648 
627 11 904 149 344 119 71 656 247 827 589 133 354 
628 11 63 695 641 676 576 127 672 682 110 555 215 
629 11 724 432 511 645 699 618 188 623 664 551 246 
630 11 369 741 554 563 38 405 388 267 635 339 575 
631 11 903 389 186 718 462 621 547 360 128 817 469 
632 11 640 637 471 103 82 327 146 169 902 869 324 
633 11 936 913 793 802 452 221 679 279 74 678 658 
634 11 268 884 595 266 428 469 152 197 685 177 476 
635 11 339 128 405 462 363 554 38 774 355 575 563 
636 11 112 464 885 90 535 608 783 172 126 878 258 
637 11 324 146 640 487 632 461 767 502 153 836 897 
638 11 138 230 54 204 606 920 761 689 350 145 171 
639 11 271 806 378 546 365 27 550 292 717 147 218 
640 11 632 146 637 869 422 902 245 487 324 103 728 
641 11 695 676 628 127 576 63 326 672 555 549 930 
642 11 845 371 142 583 671 349 265 919 928 353 898 
643 11 835 355 774 757 363 650 503 846 647 339 832 
644 11 467 413 107 170 51 483 139 379 87 530 821 
645 11 724 629 811 432 603 408 699 551 250 401 564 
646 11 315 383 662 842 145 204 7 138 230 791 325 
647 11 650 757 446 293 835 770 503 195 643 541 921 
648 11 415 874 136 372 749 759 319 721 14 626 908 
649 11 65 787 176 93 187 257 804 710 826 435 544 
650 11 757 647 835 212 643 512 446 363 770 293 732 
651 11 207 32 81 251 208 886 108 189 330 420 277 
652 11 824 377 228 434 178 771 256 509 254 329 896 
653 11 159 816 75 862 303 83 102 614 121 43 686 
654 11 331 477 526 67 278 424 929 600 15 533 588 
655 11 225 498 566 125 392 772 182 229 28 710 68 
656 11 427 287 344 504 243 843 830 627 781 106 119 
657 11 463 70 329 813 598 515 64 228 532 868 434 
658 11 678 216 9 572 221 913 616 194 279 793 58 
659 11 382 579 901 800 62 8 276 472 483 367 821 
660 11 91 84 805 543 89 311 34 597 769 882 173 
661 11 928 353 307 931 226 137 919 536 556 845 142 
662 11 383 646 315 842 145 7 204 138 791 317 325 
663 11 457 66 861 59 132 6 906 750 581 622 733 
664 11 246 511 807 815 40 898 188 265 474 629 623 
665 11 853 520 99 809 785 274 375 871 564 18 192 
666 11 318 866 486 364 909 459 255 9 743 195 346 
667 11 354 827 376 253 247 35 399 615 904 914 71 
668 11 2 681 33 123 430 156 407 16 814 474 113 
669 11 174 110 799 109 798 291 191 682 925 825 63 
670 11 852 701 30 732 366 512 360 557 770 212 154 
671 11 371 735 349 731 642 583 160 13 151 69 265 
672 11 555 109 799 576 549 695 857 63 110 326 628 
673 11 527 252 854 283 523 17 470 849 792 692 419 
674 11 3 917 833 52 524 694 714 136 749 888 319 
675 11 175 684 99 375 520 744 192 444 209 250 853 
676 11 127 641 695 628 930 576 883 786 326 63 584 
677 11 619 760 776 57 746 820 730 280 437 198 260 
678 11 216 658 913 793 194 572 9 221 604 452 633 
679 11 452 508 793 604 74 913 56 739 633 841 200 
680 11 740 714 855 485 449 567 833 217 524 52 694 
681 11 156 407 668 430 16 2 33 935 323 123 814 
682 11 291 394 215 63 580 825 110 505 628 157 174 
683 11 183 437 529 893 433 282 873 538 765 795 693 
684 11 744 18 444 520 871 274 175 675 785 665 853 
685 11 449 855 595 217 726 714 567 879 300 634 680 
686 11 94 856 303 159 653 361 506 753 98 507 83 
687 11 737 298 544 752 850 42 148 787 320 309 934 
688 11 85 768 570 441 851 203 263 519 778 347 232 
689 11 808 350 606 920 44 754 54 788 851 510 232 
690 11 314 260 839 421 202 209 460 403 891 746 175 
691 11 822 872 351 539 89 173 219 548 660 91 92 
692 11 849 17 792 258 404 713 172 131 535 878 561 
693 11 489 322 433 345 881 790 573 873 762 220 183 
694 11 524 3 833 674 52 917 680 714 136 740 449 
695 11 641 628 576 63 676 672 127 326 555 549 109 
696 11 560 166 419 803 131 561 792 703 270 17 181 
697 11 864 450 537 470 380 64 703 523 868 252 532 
698 11 236 559 784 577 264 526 290 278 331 654 477 
699 11 618 724 115 629 809 564 665 853 99 192 375 
700 11 141 261 189 796 625 233 448 748 108 277 585 
701 11 30 670 852 366 732 557 199 770 360 154 512 
702 11 417 239 222 345 870 573 762 95 743 220 322 
703 11 380 252 697 673 470 527 166 419 696 523 854 
704 11 609 137 358 423 96 100 438 304 307 931 536 
705 11 914 35 97 359 802 399 354 615 667 279 633 
706 11 368 727 522 366 882 805 557 34 313 30 154 
707 11 780 235 10 481 273 507 284 753 361 795 820 
708 11 514 496 408 401 603 811 250 192 302 564 897 
709 11 301 101 165 193 223 36 50 894 540 72 155 
710 11 93 804 435 392 125 187 649 826 229 286 655 
711 11 218 27 211 550 758 546 365 552 639 292 717 
712 11 899 89 91 872 118 92 439 370 660 727 351 
713 11 404 258 878 558 860 692 610 849 172 17 792 
714 11 449 680 855 52 833 740 524 685 567 217 917 
715 11 134 157 233 484 580 451 26 215 518 585 625 
716 11 185 416 841 534 45 296 56 593 562 143 72 
717 11 365 550 546 758 27 259 271 129 20 639 218 
718 11 903 389 428 817 631 469 197 575 462 621 128 
719 11 766 242 922 497 779 105 927 288 111 602 414 
720 11 335 613 611 900 374 300 879 177 485 794 567 
721 11 372 626 308 14 513 908 78 912 759 648 932 
722 11 443 848 295 384 381 601 116 214 333 77 823 
723 11 775 161 343 586 518 584 834 624 26 114 484 
724 11 629 699 618 645 432 511 188 623 664 551 564 
725 11 150 747 22 201 285 876 926 788 44 224 37 
726 11 168 205 591 895 888 685 140 449 595 288 414 
727 11 706 368 899 468 439 522 712 805 244 882 53 
728 11 245 39 422 65 146 257 176 487 869 836 767 
729 11 516 568 362 269 115 933 809 785 49 396 274 
730 11 280 198 760 342 98 391 820 776 57 677 235 
731 11 13 349 160 840 583 371 265 40 671 898 642 
732 11 512 212 360 186 852 670 363 701 757 650 631 
733 11 6 906 397 818 11 547 447 621 861 199 152 
734 11 124 310 870 573 253 95 164 222 376 702 345 
735 11 880 69 671 151 371 160 731 352 349 840 642 
736 11 224 373 473 23 201 751 22 150 262 297 892 
737 11 687 298 544 752 850 42 148 787 320 309 422 
738 11 436 88 129 259 455 147 590 406 569 271 717 
739 11 74 924 24 55 508 936 56 452 679 763 542 
740 11 680 485 567 714 855 217 300 449 879 524 613 
741 11 630 369 554 267 405 38 563 388 575 635 339 
742 11 49 440 614 18 158 274 871 785 744 102 362 
743 11 239 417 238 222 702 95 164 762 220 486 909 
744 11 684 18 871 274 520 444 785 175 665 440 675 
745 11 837 494 275 410 598 64 525 70 537 657 470 
746 11 57 839 202 421 466 260 314 690 209 198 760 
747 11 725 150 788 44 201 22 285 249 926 876 808 
748 11 625 189 451 32 700 207 81 141 261 233 330 
749 11 319 415 874 648 445 136 14 674 917 908 3 
750 11 348 829 456 336 53 86 490 468 861 457 622 
751 11 473 892 297 289 23 373 736 352 224 201 400 
752 11 298 544 687 737 850 309 42 79 320 934 148 
753 11 361 507 481 41 312 234 686 707 235 94 98 
754 11 510 162 232 519 350 441 851 689 788 44 808 
755 11 374 794 501 545 163 475 398 335 720 177 611 
756 11 465 797 326 549 571 857 237 576 402 333 555 
757 11 650 835 647 643 212 363 512 774 355 732 503 
758 11 550 365 27 20 218 552 717 711 546 271 639 
759 11 626 372 648 721 415 874 513 136 308 14 178 
760 11 730 280 198 776 677 57 342 820 391 98 746 
761 11 171 54 638 230 920 606 138 347 350 851 688 
762 11 220 322 345 702 881 417 486 489 239 346 573 
763 11 823 542 295 24 443 773 491 190 116 848 12 
764 11 154 921 293 541 557 770 454 528 366 104 446 
765 11 795 284 282 10 273 334 893 529 820 776 683 
766 11 719 779 242 105 922 288 497 602 414 927 111 
767 11 836 487 897 461 39 146 324 637 245 728 257 
768 11 85 203 263 778 688 570 347 441 929 851 907 
769 11 597 442 84 543 173 155 311 660 539 34 50 
770 11 154 293 557 764 366 921 541 852 647 650 446 
771 11 254 896 824 228 652 434 377 463 385 178 329 
772 11 392 907 225 655 804 28 498 710 187 93 570 
773 11 190 542 12 777 425 491 296 763 24 55 593 
774 11 355 643 835 363 339 635 757 38 405 846 563 
775 11 161 584 624 343 834 786 723 789 930 883 518 
776 11 820 273 280 760 10 730 677 284 765 235 437 
777 11 296 773 425 593 12 190 55 542 56 844 185 
778 11 263 768 85 203 929 688 347 570 264 290 907 
779 11 766 602 719 105 445 242 288 915 414 922 272 
780 11 707 235 10 273 284 795 765 820 481 507 334 
781 11 843 243 830 819 21 800 901 427 659 117 344 
782 11 420 184 251 330 651 207 208 886 32 4 81 
783 11 885 387 636 878 478 860 112 558 464 258 713 
784 11 577 236 698 559 278 526 331 264 107 290 654 
785 11 274 871 18 809 520 49 665 744 853 684 742 
786 11 624 584 930 883 161 775 789 834 343 723 127 
787 11 934 187 309 544 649 804 93 298 687 737 752 
788 11 44 747 808 689 754 510 725 162 249 150 350 
789 11 883 624 786 834 930 343 584 161 775 390 429 
790 11 873 80 409 433 538 693 48 489 683 437 183 
791 11 317 808 44 7 249 325 689 788 204 321 606 
792 11 131 17 849 692 419 561 404 258 713 673 803 
793 11 913 452 678 216 633 679 658 604 508 221 936 
794 11 755 545 501 374 163 398 177 335 475 479 900 
795 11 765 284 282 10 334 273 893 529 820 780 605 
796 11 448 141 700 277 261 108 189 81 585 233 625 
797 11 237 857 549 571 402 326 756 555 465 576 672 
798 11 191 505 825 395 499 394 4 291 174 682 580 
799 11 109 672 555 110 925 857 63 549 237 402 576 
800 11 276 659 382 472 579 367 901 8 62 821 530 
801 11 847 608 90 877 25 431 464 112 426 636 126 
802 11 633 914 221 279 705 35 936 97 58 359 913 
803 11 560 561 696 181 419 131 166 792 587 933 17 
804 11 93 710 187 392 787 934 772 649 435 309 655 
805 11 882 34 311 84 543 91 522 313 660 368 706 
806 11 378 639 271 292 546 27 365 147 550 711 218 
807 11 188 623 664 246 617 488 511 294 815 474 16 
808 11 44 689 788 791 606 920 350 754 317 510 747 
809 11 665 785 853 115 274 520 871 99 18 568 516 
810 11 370 118 905 244 439 227 378 590 899 147 455 
811 11 603 250 401 564 192 375 514 708 408 99 496 
812 11 19 875 47 116 381 848 214 722 491 443 295 
813 11 515 329 463 657 179 70 532 868 932 509 912 
814 11 2 33 430 123 668 113 681 407 156 474 16 
815 11 474 246 40 664 13 807 898 265 731 113 511 
816 11 75 862 653 159 83 102 303 614 43 121 158 
817 11 575 718 197 128 462 389 903 267 428 631 476 
818 11 11 397 547 447 621 733 6 906 469 199 631 
819 11 117 243 119 843 21 781 344 887 448 5 149 
820 11 776 273 280 10 730 760 235 284 677 765 795 
821 11 530 379 472 367 8 15 276 483 382 467 62 
822 11 539 219 173 691 574 223 540 193 597 36 165 
823 11 763 295 443 542 848 77 24 116 491 722 773 
824 11 228 652 434 377 771 178 509 256 329 463 254 
825 11 505 394 499 291 798 580 682 191 395 215 157 
826 11 867 435 167 281 176 257 302 65 93 649 710 
827 11 247 667 354 376 71 253 904 310 399 124 35 
828 11 551 556 536 521 931 307 432 142 423 96 845 
829 11 456 348 750 336 53 468 490 86 227 199 861 
830 11 427 843 781 316 106 243 800 517 337 656 276 
831 11 312 234 357 492 41 393 73 481 369 111 361 
832 11 565 605 846 334 503 643 355 578 835 774 795 
833 11 524 52 3 694 674 917 714 680 449 740 855 
834 11 343 624 775 161 789 584 786 390 883 723 930 
835 11 643 757 774 355 650 363 647 503 212 512 339 
836 11 767 487 897 461 39 146 245 324 637 728 257 
837 11 745 275 494 598 896 64 70 410 771 657 254 
838 11 210 865 47 491 875 12 19 190 332 425 844 
839 11 202 421 314 209 260 690 746 57 444 466 175 
840 11 160 731 13 349 40 113 671 371 583 265 815 
841 11 416 534 45 716 56 508 143 604 200 185 55 
842 11 662 646 315 383 7 145 325 321 317 607 204 
843 11 243 781 830 819 427 656 344 21 119 800 117 
844 11 340 332 425 593 865 480 12 296 777 210 838 
845 11 142 642 521 583 556 307 931 265 928 661 371 
846 11 832 388 355 563 38 643 774 565 605 835 554 
847 11 801 877 25 608 90 431 426 464 525 112 126 
848 11 443 116 295 722 875 491 823 812 381 19 763 
849 11 692 17 792 258 131 404 172 713 535 283 673 
850 11 42 148 687 737 320 298 752 869 337 517 544 
851 11 350 441 519 232 754 920 54 510 606 688 689 
852 11 670 701 30 732 770 366 512 557 212 154 360 
853 11 665 99 520 375 809 564 192 274 785 871 744 
854 11 527 252 283 673 523 470 426 126 17 849 172 
855 11 449 714 217 567 680 685 485 740 879 300 52 
856 11 686 391 121 305 342 98 159 102 198 653 466 
857 11 237 549 797 402 555 326 571 672 576 756 109 
858 11 500 270 43 594 506 83 306 303 338 75 918 
859 11 889 525 431 120 25 275 847 877 801 745 837 
860 11 558 878 387 713 404 610 258 478 783 885 180 
861 11 663 457 906 6 733 66 199 750 456 59 397 
862 11 816 159 75 102 614 653 121 83 158 303 305 
863 11 46 144 213 328 454 248 528 541 921 318 459 
864 11 450 537 697 868 64 532 61 341 70 380 596 
865 11 332 210 838 844 480 425 340 12 593 190 47 
866 11 909 666 9 616 572 238 743 318 486 58 194 
867 11 281 826 435 167 358 302 286 257 176 304 100 
868 11 532 61 450 864 341 537 70 64 813 596 657 
869 11 422 902 42 640 850 146 245 728 148 632 412 
870 11 573 345 702 734 222 124 322 417 239 95 489 
871 11 274 18 785 744 520 684 49 665 742 809 853 
872 11 89 351 92 691 712 548 91 482 660 495 118 
873 11 790 538 433 683 80 437 693 409 183 48 489 
874 11 415 648 136 749 319 372 759 721 14 674 3 
875 11 116 19 491 47 812 848 295 838 443 190 210 
876 11 285 22 37 926 566 725 150 498 262 747 68 
877 11 847 25 801 426 431 608 90 525 126 464 410 
878 11 713 860 258 558 404 387 885 610 172 692 783 
879 11 300 217 567 611 485 900 613 720 855 335 177 
880 11 69 735 151 352 671 160 371 373 297 731 840 
881 11 346 220 322 762 489 693 486 345 433 183 529 
882 11 34 805 313 311 522 84 543 368 91 660 706 
883 11 789 930 786 624 584 834 161 775 343 429 127 
884 11 469 634 268 428 152 447 266 197 621 718 547 
885 11 783 636 112 878 464 387 860 258 535 172 558 
886 11 208 251 651 5 108 81 207 277 32 420 184 
887 11 585 133 119 149 796 261 819 141 233 344 356 
888 11 205 414 726 591 917 288 52 449 168 105 895 
889 11 859 120 525 275 431 241 25 745 837 847 877 
890 11 460 60 891 411 403 48 122 153 502 260 619 
891 11 403 460 60 890 260 690 314 411 153 502 122 
892 11 297 751 289 473 352 373 736 23 69 151 224 
893 11 529 183 282 683 437 765 433 795 346 881 284 
894 11 72 101 709 301 165 193 223 36 50 540 562 
895 11 168 591 140 726 927 205 288 414 111 242 888 
896 11 254 771 385 824 228 652 837 241 275 434 598 
897 11 461 767 836 487 324 39 146 637 245 496 708 
898 11 265 40 583 349 13 246 664 511 142 731 845 
899 11 439 712 118 244 727 370 810 468 227 905 490 
900 11 177 611 335 720 879 300 613 268 794 374 217 
901 11 579 659 382 62 8 800 21 483 276 472 139 
902 11 869 412 42 148 850 103 640 287 327 422 632 
903 11 389 718 631 462 817 428 621 128 469 186 575 
904 11 627 247 71 827 354 667 376 310 149 923 399 
905 11 370 810 118 590 147 455 569 378 482 92 406 
906 11 733 6 397 861 199 818 11 547 447 621 663 
907 11 772 392 203 570 225 28 804 768 929 85 655 
908 11 78 14 445 721 372 319 932 308 912 553 915 
909 11 866 616 9 238 58 572 743 666 279 658 221 
910 11 596 592 341 918 338 29 61 299 386 553 380 
911 11 79 453 316 276 367 320 337 517 800 533 600 
912 11 932 179 308 513 515 721 509 813 256 299 329 
913 11 793 678 633 216 452 658 679 221 604 936 279 
914 11 705 35 802 615 97 359 399 354 279 667 221 
915 11 602 272 553 29 386 779 78 445 908 299 14 
916 11 429 601 384 333 77 722 883 214 127 381 789 
917 11 52 674 3 833 524 694 888 714 205 449 749 
918 11 338 592 29 910 306 596 272 594 341 553 386 
919 11 353 928 226 642 661 151 262 845 224 373 371 
920 11 606 54 350 689 851 638 808 441 754 761 138 
921 11 541 293 454 764 446 144 154 46 770 528 104 
922 11 497 719 242 766 492 111 393 927 612 73 357 
923 11 169 71 504 327 103 310 287 247 904 656 734 
924 11 74 739 936 231 24 206 452 633 679 55 508 
925 11 799 109 402 237 555 672 857 110 549 571 669 
926 11 285 498 876 28 162 725 566 225 510 747 22 
927 11 111 242 895 591 140 168 719 492 922 288 766 
928 11 353 661 919 226 307 845 931 262 642 142 137 
929 11 477 778 654 203 263 526 331 768 85 907 67 
930 11 786 883 584 624 789 161 775 127 834 676 343 
931 11 307 536 556 661 828 137 521 704 551 142 609 
932 11 912 179 308 513 515 299 386 813 721 553 78 
933 11 269 729 396 516 568 362 803 560 294 488 115 
934 11 309 187 787 544 804 298 752 649 93 687 737 
935 11 323 587 16 617 156 294 180 181 681 488 407 
936 11 633 924 74 452 739 802 679 793 913 231 97 
DEPOT_SECTION
   1
   -1
EOF
