NAME :  X-n916-kX-w91-c11.cctp
COMMENT : 	Adapted by Maziero, Usberti and Cavellucci from the Uchoa, Pecin, Pessoa, Poggi, Subramanian, and Vidal (2013)
TYPE :  CCTP
DIMENSION :    567
EDGE_WEIGHT_TYPE : 	EUC_2D	
CAPACITY : 	33
VERTICES_WITHIN_COVERAGE :  11
VERTICES_WITH_DEMAND : 	91
NODE_COORD_SECTION
1 0 0
2 471 44
3 63 475
4 766 504
5 895 595
6 816 377
7 462 590
8 997 596
9 775 993
10 16 97
11 839 348
12 558 896
13 423 912
14 169 411
15 75 602
16 402 52
17 388 208
18 202 39
19 510 841
20 555 484
21 920 633
22 369 718
23 432 696
24 624 872
25 472 323
26 753 701
27 584 440
28 292 665
29 202 310
30 764 255
31 662 486
32 822 575
33 469 13
34 640 165
35 814 886
36 554 82
37 336 745
38 950 229
39 142 835
40 407 932
41 69 205
42 86 764
43 202 165
44 376 632
45 639 987
46 775 98
47 503 855
48 38 960
49 215 73
50 566 78
51 4 517
52 44 457
53 676 337
54 338 568
55 623 911
56 626 931
57 97 43
58 799 942
59 725 430
60 93 953
61 264 347
62 986 595
63 631 614
64 331 362
65 158 793
66 760 436
67 115 641
68 307 764
69 469 817
70 315 388
71 906 830
72 564 25
73 88 246
74 671 892
75 181 139
76 723 784
77 609 798
78 174 403
79 76 671
80 984 939
81 830 579
82 3 893
83 176 164
84 625 158
85 249 590
86 663 347
87 21 500
88 501 372
89 572 218
90 483 270
91 604 201
92 548 281
93 125 178
94 870 931
95 759 839
96 79 105
97 545 62
98 161 102
99 1 827
100 16 732
101 24 521
102 848 600
103 585 594
104 618 577
105 44 300
106 489 239
107 479 978
108 768 731
109 274 30
110 546 837
111 890 640
112 594 308
113 878 716
114 498 448
115 145 96
116 473 5
117 906 899
118 277 752
119 630 686
120 521 401
121 850 425
122 374 186
123 712 433
124 814 730
125 740 622
126 120 490
127 376 534
128 982 560
129 815 625
130 659 994
131 804 110
132 549 366
133 57 742
134 848 739
135 381 700
136 442 808
137 581 91
138 416 56
139 729 620
140 163 73
141 160 129
142 468 902
143 694 730
144 319 644
145 831 476
146 863 921
147 524 71
148 18 360
149 987 845
150 998 548
151 550 142
152 637 527
153 168 0
154 178 804
155 275 772
156 587 967
157 331 4
158 811 598
159 560 886
160 712 512
161 528 75
162 980 512
163 90 78
164 788 322
165 665 990
166 400 702
167 131 24
168 238 610
169 392 541
170 40 394
171 713 806
172 823 571
173 863 568
174 145 20
175 509 893
176 629 447
177 717 78
178 525 774
179 695 620
180 721 979
181 594 451
182 514 110
183 899 994
184 772 937
185 533 82
186 399 742
187 273 688
188 360 780
189 650 339
190 272 771
191 362 515
192 716 823
193 307 627
194 787 639
195 28 212
196 38 119
197 130 518
198 535 632
199 832 952
200 874 955
201 106 653
202 934 692
203 638 325
204 126 820
205 382 958
206 884 840
207 706 90
208 424 652
209 841 543
210 863 886
211 179 817
212 430 197
213 512 412
214 111 1
215 811 631
216 366 758
217 227 575
218 398 905
219 285 104
220 245 215
221 569 401
222 159 310
223 20 90
224 212 39
225 13 641
226 855 610
227 95 571
228 780 936
229 63 84
230 334 695
231 988 790
232 497 712
233 676 581
234 625 400
235 351 55
236 572 827
237 584 930
238 482 749
239 110 723
240 230 362
241 540 63
242 161 162
243 137 87
244 177 274
245 149 697
246 916 866
247 634 157
248 42 213
249 655 154
250 123 1000
251 21 698
252 435 615
253 120 425
254 54 726
255 475 624
256 923 980
257 391 94
258 463 618
259 568 659
260 999 831
261 719 93
262 796 547
263 123 595
264 515 939
265 550 757
266 695 337
267 40 727
268 217 284
269 536 956
270 262 332
271 91 91
272 697 755
273 894 726
274 919 962
275 253 535
276 703 346
277 416 895
278 330 596
279 475 780
280 365 803
281 844 845
282 802 755
283 77 246
284 759 835
285 71 176
286 244 82
287 564 436
288 749 216
289 30 624
290 677 208
291 980 257
292 582 317
293 421 870
294 183 454
295 442 766
296 867 873
297 582 382
298 35 597
299 527 786
300 991 617
301 581 780
302 964 211
303 696 784
304 102 90
305 227 699
306 76 258
307 705 580
308 752 531
309 246 128
310 834 350
311 809 825
312 468 650
313 523 626
314 110 964
315 422 180
316 940 246
317 513 333
318 446 78
319 992 939
320 24 763
321 17 536
322 70 381
323 142 464
324 621 976
325 878 960
326 286 774
327 349 202
328 841 520
329 134 20
330 103 639
331 555 920
332 987 735
333 608 750
334 471 58
335 482 339
336 966 994
337 501 384
338 3 25
339 632 304
340 180 66
341 300 608
342 591 113
343 569 817
344 165 31
345 137 397
346 858 354
347 846 618
348 0 438
349 308 337
350 772 594
351 684 931
352 76 667
353 750 130
354 538 354
355 725 339
356 758 410
357 664 460
358 90 978
359 301 417
360 480 247
361 749 43
362 30 919
363 481 281
364 291 346
365 297 568
366 41 933
367 32 959
368 535 246
369 351 192
370 402 223
371 125 815
372 542 231
373 356 901
374 50 932
375 456 587
376 249 311
377 993 242
378 499 264
379 801 81
380 740 343
381 947 194
382 22 856
383 120 843
384 285 767
385 647 167
386 69 955
387 681 214
388 10 764
389 303 406
390 306 364
391 443 329
392 256 544
393 246 156
394 744 203
395 795 267
396 484 108
397 152 734
398 403 167
399 80 925
400 970 207
401 159 405
402 142 807
403 631 386
404 374 989
405 568 286
406 187 768
407 369 80
408 166 764
409 74 791
410 53 1000
411 787 73
412 787 362
413 547 281
414 172 865
415 24 961
416 687 320
417 156 826
418 63 961
419 297 604
420 122 849
421 500 280
422 216 326
423 788 310
424 120 859
425 952 262
426 50 951
427 521 285
428 566 179
429 51 802
430 602 414
431 568 274
432 363 614
433 266 562
434 21 904
435 978 188
436 436 737
437 85 979
438 553 441
439 118 745
440 348 368
441 281 341
442 231 337
443 479 274
444 589 30
445 486 301
446 261 354
447 169 825
448 934 247
449 547 203
450 810 114
451 366 344
452 138 699
453 121 678
454 150 301
455 520 532
456 185 796
457 184 339
458 254 377
459 785 101
460 944 220
461 392 85
462 223 275
463 72 966
464 451 269
465 542 240
466 590 292
467 816 399
468 10 893
469 431 819
470 507 957
471 610 313
472 104 710
473 445 305
474 91 921
475 530 28
476 772 457
477 568 311
478 649 30
479 792 295
480 310 398
481 108 980
482 113 943
483 627 268
484 469 247
485 48 802
486 299 571
487 319 377
488 506 64
489 277 359
490 325 320
491 585 222
492 131 436
493 280 364
494 175 812
495 678 290
496 960 590
497 927 210
498 494 399
499 563 224
500 227 316
501 234 332
502 345 175
503 125 846
504 420 185
505 16 979
506 746 95
507 874 368
508 735 65
509 16 952
510 698 290
511 519 268
512 392 244
513 822 706
514 567 222
515 569 663
516 939 225
517 252 380
518 64 517
519 875 542
520 786 222
521 205 294
522 189 798
523 93 968
524 497 523
525 329 391
526 548 355
527 630 125
528 322 213
529 41 883
530 390 957
531 435 336
532 144 827
533 131 239
534 484 279
535 413 905
536 775 116
537 932 226
538 807 379
539 332 319
540 808 87
541 549 147
542 456 720
543 185 820
544 18 846
545 50 970
546 370 207
547 46 964
548 541 303
549 206 314
550 877 322
551 533 279
552 307 397
553 561 527
554 71 969
555 47 963
556 960 209
557 698 347
558 408 243
559 677 170
560 39 922
561 37 1000
562 133 830
563 107 466
564 798 121
565 294 796
566 521 264
567 996 220
DEMAND_SECTION
2 8
3 6
4 7
5 6
6 10
7 10
8 5
9 7
10 8
11 8
12 6
13 6
14 6
15 6
16 5
17 8
18 6
19 10
20 9
21 8
22 9
23 6
24 10
25 10
26 6
27 6
28 6
29 9
30 9
31 10
32 9
33 6
34 5
35 5
36 6
37 10
38 8
39 5
40 6
41 9
42 8
43 7
44 8
45 6
46 7
47 6
48 5
49 7
50 9
51 8
52 8
53 10
54 8
55 7
56 10
57 6
58 5
59 6
60 10
61 7
62 6
63 7
64 8
65 9
66 9
67 9
68 6
69 10
70 7
71 9
72 5
73 7
74 9
75 6
76 5
77 9
78 6
79 5
80 5
81 5
82 7
83 10
84 10
85 6
86 9
87 7
88 10
89 10
90 7
91 10
92 7
COVERAGE_SECTION
2 11 334 33 116 488 318 138 147 475 161 396 16 
3 11 52 518 563 87 126 101 51 348 253 321 492 
4 10 308 476 262 160 66 145 328 59 209 172 
5 11 173 226 21 111 102 347 519 496 81 209 32 
6 9 538 467 310 412 11 346 121 507 164 
7 10 375 258 255 252 312 313 208 524 455 198 
8 11 62 300 496 128 150 21 162 5 202 111 519 
9 11 58 180 184 228 199 200 325 165 351 94 35 
10 11 223 196 229 96 338 271 163 304 285 57 195 
11 10 310 346 6 507 538 550 412 467 164 423 
12 11 159 331 237 175 110 264 269 55 47 24 236 
13 9 535 277 40 218 293 142 530 205 373 
14 7 78 401 345 294 492 253 323 
15 11 227 298 330 263 289 67 201 352 79 225 518 
16 10 138 461 257 407 235 318 2 334 33 116 
17 11 546 370 122 512 327 504 369 558 212 315 398 
18 11 224 340 49 344 140 153 174 286 329 109 167 
19 11 47 110 69 175 299 236 343 159 178 279 12 
20 11 438 553 287 181 27 455 114 524 176 213 221 
21 11 111 5 496 202 226 300 62 347 102 8 173 
22 11 135 166 186 216 230 37 188 23 436 68 280 
23 11 166 542 436 208 135 186 312 22 232 295 238 
24 11 55 74 56 159 236 12 237 77 343 331 351 
25 11 335 445 391 473 531 317 363 534 443 421 90 
26 11 108 143 124 513 194 282 272 125 139 76 215 
27 11 181 287 438 430 221 176 20 234 297 403 120 
28 10 187 144 193 230 341 419 305 168 278 85 
29 11 549 521 422 500 268 457 501 442 462 222 244 
30 8 395 520 288 479 394 423 164 510 
31 11 357 152 176 160 123 181 59 27 234 430 233 
32 11 172 81 158 102 209 262 173 226 347 129 350 
33 11 116 2 334 475 488 138 318 16 147 161 241 
34 10 385 247 84 249 559 527 91 290 387 342 
35 11 210 281 296 58 146 228 311 184 199 94 95 
36 11 50 185 97 241 161 137 147 342 182 488 72 
37 11 216 68 188 22 230 384 326 118 186 135 280 
38 11 460 516 537 316 556 302 448 400 497 425 381 
39 11 532 562 417 503 204 383 420 371 402 447 424 
40 10 13 218 535 530 205 277 373 293 404 142 
41 11 248 285 195 283 73 306 93 533 196 105 96 
42 10 409 133 439 239 254 429 485 472 267 320 
43 11 83 75 242 393 141 309 220 98 93 115 49 
44 11 432 208 144 278 252 135 193 54 166 230 341 
45 11 130 324 165 156 56 351 55 237 180 74 331 
46 11 459 536 411 506 131 379 564 540 450 353 508 
47 11 19 175 110 69 142 159 12 299 236 343 136 
48 10 367 547 555 415 426 545 509 418 366 505 
49 11 286 224 18 340 140 98 309 344 109 75 115 
50 11 36 137 97 241 185 161 147 342 72 444 182 
51 11 101 321 87 518 3 52 348 298 227 289 15 
52 11 3 348 87 170 518 563 101 51 322 253 126 
53 11 86 266 416 557 189 276 203 495 355 510 339 
54 10 278 486 365 127 432 341 419 191 169 193 
55 11 56 24 237 74 351 324 12 156 159 331 45 
56 11 55 237 324 156 45 351 24 74 130 165 331 
57 11 163 167 214 329 304 271 174 229 243 96 344 
58 10 228 184 199 9 35 146 94 200 325 210 
59 11 123 66 356 476 357 160 31 4 276 557 380 
60 11 523 314 482 386 358 463 437 554 399 418 481 
61 11 446 270 441 489 493 364 458 442 501 517 240 
62 11 8 300 496 128 150 21 162 5 111 202 519 
63 11 104 103 233 179 119 259 515 307 152 139 198 
64 11 440 487 390 525 70 349 451 480 490 552 364 
65 11 402 154 494 456 408 522 211 417 447 532 406 
66 10 476 356 59 123 467 4 538 412 6 145 
67 11 330 201 453 263 352 79 15 452 245 472 227 
68 7 384 326 118 155 37 565 190 
69 11 136 279 469 19 47 295 299 238 178 293 110 
70 9 480 487 552 525 389 390 64 359 440 
71 11 206 246 296 281 117 210 149 231 260 311 146 
72 11 444 475 97 241 50 36 147 161 185 137 488 
73 10 283 306 533 41 248 195 105 285 93 454 
74 11 351 24 55 56 192 237 171 165 324 45 180 
75 11 141 83 242 43 98 115 309 393 93 140 243 
76 11 171 303 272 192 143 284 95 108 282 26 311 
77 11 301 343 236 333 265 110 24 299 178 303 272 
78 7 14 401 345 294 492 253 457 
79 11 352 201 330 453 472 67 254 251 239 289 267 
80 10 319 336 274 256 117 149 246 183 325 260 
81 11 32 172 158 102 173 209 226 347 262 129 215 
82 8 468 434 362 529 382 560 544 366 
83 11 242 75 43 141 93 98 393 115 309 220 243 
84 11 247 34 385 249 527 91 559 342 428 290 491 
85 10 168 217 433 392 419 365 486 341 275 193 
86 11 189 53 203 266 557 416 276 403 339 495 355 
87 11 101 51 321 518 3 52 348 563 298 126 227 
88 10 337 498 120 335 213 317 354 132 526 25 
89 10 514 499 491 449 372 91 465 428 368 431 
90 10 443 534 363 378 421 360 484 445 106 464 
91 11 491 89 514 428 499 84 34 247 385 449 249 
92 10 413 551 405 431 548 427 511 566 477 368 
93 11 242 83 285 141 533 41 75 73 43 283 98 
94 10 146 200 325 199 210 117 274 296 183 35 
95 11 284 192 311 171 76 35 303 281 282 184 228 
96 11 271 229 304 163 196 223 243 10 57 115 285 
97 11 241 161 36 147 185 50 475 488 72 137 444 
98 11 115 141 243 140 340 75 242 304 49 83 271 
99 9 544 382 485 429 388 82 468 320 529 
100 11 267 320 388 251 254 133 42 485 429 409 79 
101 11 321 51 87 518 3 52 298 348 227 15 563 
102 11 226 347 81 173 32 158 172 129 5 215 209 
103 11 104 63 198 259 313 515 553 152 455 233 119 
104 11 103 63 152 233 553 307 179 259 515 198 31 
105 6 306 283 148 73 322 248 
106 4 360 484 378 90 
107 11 470 264 269 142 40 13 175 530 331 535 205 
108 11 26 282 124 513 76 143 272 134 303 171 194 
109 11 286 157 224 18 49 219 235 340 309 407 344 
110 11 236 343 19 47 159 299 12 178 175 301 77 
111 11 21 5 226 347 102 202 129 113 173 215 81 
112 11 292 466 471 477 405 339 431 203 483 92 548 
113 11 273 134 513 202 124 111 282 21 347 215 226 
114 8 213 498 120 438 337 20 287 524 
115 11 243 98 140 141 304 340 271 75 163 96 242 
116 11 33 2 334 475 488 138 318 147 16 161 241 
117 10 246 210 296 94 146 206 200 274 325 71 
118 6 384 155 190 326 68 565 
119 11 515 259 333 63 143 179 272 103 301 265 198 
120 11 213 337 498 88 132 221 354 438 114 526 287 
121 5 467 145 6 507 538 
122 10 546 369 17 327 502 398 370 504 315 212 
123 11 59 66 356 357 476 31 160 176 276 557 4 
124 11 513 282 134 108 113 26 273 194 311 215 129 
125 11 139 350 179 194 307 215 129 158 233 26 308 
126 9 563 197 323 492 3 518 253 294 52 
127 4 169 191 54 278 
128 9 150 62 496 8 162 300 5 21 519 
129 11 215 158 194 347 102 226 81 32 350 172 125 
130 11 165 45 324 180 351 56 156 55 237 74 9 
131 7 450 564 459 540 379 536 46 
132 11 526 354 297 221 120 88 317 337 477 213 292 
133 11 254 267 42 320 100 388 409 239 251 472 429 
134 11 124 113 513 273 282 108 311 202 26 281 206 
135 11 166 22 186 230 23 216 37 208 436 44 542 
136 11 469 69 295 279 293 238 436 19 47 280 186 
137 11 50 342 36 97 185 241 161 147 151 527 444 
138 10 16 318 461 257 407 334 2 235 33 116 
139 11 125 179 307 350 194 233 215 26 158 129 308 
140 11 340 98 115 243 344 18 49 141 174 167 224 
141 11 75 98 242 115 83 243 43 140 93 340 304 
142 11 175 13 277 535 293 47 264 470 40 218 19 
143 11 272 303 76 26 108 119 171 333 192 77 179 
144 11 193 28 341 419 278 230 432 44 187 486 54 
145 5 328 121 476 209 4 
146 10 94 210 200 325 199 117 296 35 58 274 
147 10 161 185 241 488 97 36 182 50 475 396 
148 5 170 322 105 348 52 
149 11 260 231 246 71 80 319 117 206 332 296 210 
150 8 128 162 8 62 496 300 5 21 
151 9 541 428 182 342 36 137 449 185 50 
152 11 31 104 233 357 160 553 176 103 307 63 181 
153 11 174 344 329 167 18 214 224 340 140 57 49 
154 10 494 456 211 522 543 65 447 417 402 406 
155 6 190 326 384 118 565 68 
156 11 324 237 269 56 45 331 55 12 130 264 165 
157 11 235 109 407 16 138 461 257 219 286 224 18 
158 11 32 81 129 172 215 102 350 347 226 194 262 
159 11 12 331 237 110 175 236 47 24 19 55 264 
160 11 308 4 31 307 357 152 233 123 476 59 66 
161 10 147 185 241 97 488 36 50 182 475 137 
162 5 150 128 496 62 8 
163 11 271 304 229 96 57 243 115 196 167 223 140 
164 10 423 479 412 380 310 395 11 538 6 355 
165 11 130 45 324 180 351 56 156 55 74 237 9 
166 11 135 23 22 186 436 208 542 216 230 44 37 
167 11 329 174 214 344 57 153 140 243 340 163 304 
168 11 85 217 433 419 341 392 193 365 486 275 28 
169 3 127 191 54 
170 6 322 148 348 52 3 253 
171 11 192 76 303 272 284 95 143 108 74 311 282 
172 11 32 81 158 209 262 102 173 226 347 328 129 
173 11 519 209 81 102 172 5 32 226 328 347 158 
174 11 329 167 344 153 214 57 140 340 18 243 224 
175 11 47 142 264 12 159 19 331 470 110 269 237 
176 11 181 357 430 27 234 31 403 287 221 438 152 
177 7 261 207 508 506 361 46 353 
178 11 299 265 238 279 301 343 110 232 19 69 236 
179 11 139 307 233 125 63 350 104 119 194 26 308 
180 11 9 165 351 130 184 228 45 58 74 324 56 
181 11 27 287 176 430 438 20 221 234 297 357 403 
182 9 396 185 161 147 488 151 36 541 241 
183 10 256 274 325 200 336 94 199 146 117 80 
184 11 228 58 9 199 35 180 351 146 94 95 284 
185 10 161 147 241 36 97 488 50 182 137 475 
186 11 216 436 22 166 135 295 188 23 542 37 280 
187 9 28 305 230 118 144 193 384 68 190 
188 9 216 280 37 186 68 22 565 326 384 
189 11 86 203 53 339 416 266 471 557 403 276 495 
190 6 155 326 384 118 565 68 
191 3 127 169 54 
192 11 171 76 303 284 95 272 74 311 143 24 108 
193 11 341 144 419 278 28 432 486 365 54 44 85 
194 11 215 129 350 158 125 139 347 26 102 32 81 
195 11 248 41 285 283 306 73 105 196 93 533 10 
196 11 10 223 96 229 271 163 285 304 41 195 248 
197 7 126 323 563 227 518 263 3 
198 11 313 259 515 255 103 312 258 7 232 375 63 
199 10 58 200 94 146 325 228 184 35 9 210 
200 10 325 94 146 199 183 274 256 117 210 58 
201 11 330 67 453 352 79 452 472 15 263 245 239 
202 11 273 21 113 111 332 300 134 5 496 62 231 
203 11 189 339 471 86 53 112 416 495 292 266 466 
204 8 371 562 532 402 39 383 503 420 
205 8 530 404 40 218 535 13 373 277 
206 10 71 296 281 246 210 117 311 35 146 94 
207 7 261 177 508 506 353 361 46 
208 11 252 312 23 44 258 166 255 135 375 432 7 
209 9 328 172 173 519 32 81 262 102 158 
210 10 296 146 117 281 94 35 206 246 200 71 
211 9 494 543 154 447 522 456 417 65 532 
212 5 504 315 370 398 17 
213 10 120 498 337 114 88 438 287 221 132 354 
214 11 167 329 174 57 153 344 163 140 304 243 271 
215 11 129 194 158 347 102 226 350 81 32 172 125 
216 11 188 37 186 22 280 68 135 166 230 436 295 
217 6 85 168 433 392 275 365 
218 9 535 277 13 40 293 373 530 205 142 
219 9 309 286 393 109 49 235 407 502 224 
220 6 393 462 43 268 528 83 
221 11 297 287 430 132 27 438 120 526 181 234 354 
222 9 454 457 244 29 549 521 422 268 500 
223 11 10 196 229 96 338 163 271 304 57 285 243 
224 11 18 49 340 344 286 153 140 109 174 329 98 
225 11 289 298 251 352 79 15 267 330 100 201 254 
226 11 102 347 81 5 129 173 111 158 32 215 172 
227 11 15 263 518 197 298 330 67 201 289 126 321 
228 10 184 58 199 9 35 180 146 94 200 351 
229 11 96 163 271 304 196 223 10 57 243 115 338 
230 11 22 135 37 28 144 187 166 216 193 68 44 
231 11 260 149 332 71 246 202 273 206 113 117 296 
232 11 238 542 436 23 178 312 265 279 295 299 515 
233 11 307 179 63 104 139 152 125 160 308 103 31 
234 11 403 430 176 297 221 27 181 86 189 287 357 
235 9 407 16 461 157 257 138 109 219 318 
236 11 343 110 77 301 159 299 19 24 12 178 265 
237 11 331 156 56 12 55 159 269 324 24 264 45 
238 11 279 542 232 295 436 178 299 265 69 136 23 
239 11 472 439 452 397 453 245 42 133 254 79 352 
240 9 442 458 517 501 446 61 422 270 500 
241 11 97 161 147 185 36 50 488 475 72 137 182 
242 11 83 75 141 93 43 98 115 243 533 393 140 
243 11 115 98 140 304 271 141 163 340 57 96 167 
244 11 521 454 222 268 29 462 549 533 422 457 500 
245 9 452 453 397 239 472 439 201 67 408 
246 10 117 71 206 296 210 149 281 146 94 260 
247 11 84 34 385 249 527 559 91 342 290 428 387 
248 11 195 41 285 283 306 73 105 93 533 196 96 
249 9 385 34 247 559 84 527 290 387 91 
250 6 481 314 358 437 523 60 
251 11 100 267 254 133 225 79 352 320 388 289 472 
252 11 258 375 7 208 255 312 44 432 23 169 313 
253 10 492 345 563 401 323 14 78 126 322 294 
254 11 267 133 100 251 320 42 472 239 388 79 352 
255 11 258 312 7 252 375 313 208 198 23 232 542 
256 10 274 183 336 325 200 94 80 319 117 146 
257 9 461 407 16 138 235 318 398 334 315 
258 11 255 7 252 312 375 208 313 198 23 44 232 
259 11 515 198 313 103 119 63 232 104 255 333 265 
260 11 149 231 246 71 332 319 80 117 206 296 210 
261 7 207 177 506 508 353 46 361 
262 11 172 32 209 81 308 4 328 158 350 173 102 
263 10 227 67 330 15 201 197 453 352 298 79 
264 11 470 269 331 175 107 142 12 159 237 156 47 
265 11 178 299 301 333 343 238 232 77 236 279 110 
266 11 557 276 53 416 355 86 189 380 510 495 203 
267 11 254 133 100 251 320 388 42 472 79 239 352 
268 9 462 521 29 549 500 244 376 422 501 
269 11 264 470 331 156 237 107 12 175 159 142 324 
270 10 61 441 446 376 501 442 489 364 493 500 
271 11 304 163 96 229 243 57 115 196 98 223 140 
272 11 143 303 76 171 192 108 26 333 119 77 284 
273 11 113 134 202 513 124 111 332 282 21 71 206 
274 10 256 183 325 200 336 94 117 80 146 319 
275 5 392 433 217 85 365 
276 11 557 266 355 53 416 380 86 189 510 495 203 
277 9 535 13 218 293 40 142 373 530 205 
278 10 54 341 419 432 193 486 365 144 44 433 
279 11 238 295 69 136 178 299 436 469 542 19 232 
280 7 188 216 37 469 68 186 565 
281 11 296 206 311 210 35 71 246 146 117 95 284 
282 11 124 108 134 513 311 26 76 113 284 95 273 
283 10 73 306 41 248 533 195 105 285 93 454 
284 11 95 192 311 171 76 35 303 281 282 272 184 
285 11 41 248 93 195 196 283 96 73 306 271 533 
286 11 49 309 219 224 18 109 340 393 140 75 98 
287 11 438 27 181 221 430 20 120 213 297 176 114 
288 6 394 520 30 387 395 290 
289 11 225 298 15 352 79 251 330 201 227 67 321 
290 10 387 559 385 34 249 247 394 84 288 91 
291 5 377 425 567 38 316 
292 11 112 477 466 471 405 548 431 92 413 526 339 
293 10 277 535 13 218 469 142 40 136 69 373 
294 5 323 14 78 401 492 
295 11 436 279 136 238 542 186 469 69 23 216 166 
296 10 210 281 206 117 146 246 35 71 94 311 
297 11 221 132 430 526 234 403 354 287 27 120 292 
298 11 289 15 225 321 227 101 330 352 79 518 51 
299 11 178 265 279 343 110 301 19 238 236 69 47 
300 11 8 62 496 128 150 21 202 5 111 162 332 
301 11 77 265 343 333 236 299 178 110 19 24 238 
302 10 556 400 460 38 381 435 516 567 537 497 
303 11 76 171 272 192 143 284 95 77 108 333 26 
304 11 271 163 96 243 229 115 57 98 140 141 196 
305 4 187 28 118 245 
306 9 283 73 41 105 248 533 195 285 454 
307 11 233 179 139 125 160 308 350 63 152 104 4 
308 11 4 160 262 350 307 476 172 32 158 209 328 
309 10 393 219 286 43 49 75 83 141 220 98 
310 10 11 346 6 538 507 412 550 467 164 423 
311 11 281 284 95 35 282 296 206 210 192 134 76 
312 11 255 258 208 252 23 7 313 375 232 198 542 
313 11 198 255 259 515 312 258 103 7 375 252 232 
314 7 481 523 60 482 358 437 250 
315 6 504 212 398 17 370 122 
316 6 448 38 425 516 537 460 
317 11 335 354 88 526 548 25 445 132 427 337 421 
318 9 334 138 2 396 16 461 257 488 33 
319 10 80 336 274 256 149 117 246 183 260 325 
320 11 388 100 133 267 485 429 254 409 42 251 99 
321 11 101 51 87 518 298 3 52 227 15 289 348 
322 6 170 148 253 345 52 492 
323 10 492 126 563 294 253 197 14 401 345 78 
324 11 45 156 130 56 165 237 55 351 269 331 74 
325 10 200 94 183 274 146 199 256 117 210 58 
326 6 384 155 190 68 565 118 
327 9 369 546 502 528 122 17 370 512 398 
328 8 209 519 145 262 173 172 32 81 
329 11 167 174 214 344 153 57 140 340 243 18 163 
330 11 67 201 352 79 453 15 263 227 452 472 245 
331 11 12 237 159 269 264 175 156 470 55 56 47 
332 11 231 202 273 260 149 113 300 21 71 111 8 
333 11 301 77 265 119 343 236 178 143 272 299 303 
334 10 2 318 488 33 396 116 138 147 161 185 
335 11 25 317 88 445 391 531 337 473 354 363 534 
336 10 256 274 80 319 183 325 200 117 94 146 
337 10 88 498 120 213 354 335 132 317 526 114 
338 11 223 10 229 57 196 163 96 271 214 304 167 
339 11 203 471 483 112 189 466 495 292 86 53 416 
340 11 140 18 49 344 98 224 115 243 174 167 329 
341 11 419 193 278 486 365 144 85 54 433 28 168 
342 11 137 527 50 36 151 541 84 247 185 97 34 
343 11 236 110 301 77 299 178 265 19 159 47 24 
344 11 174 153 329 167 18 340 140 224 214 243 49 
345 8 401 253 14 78 492 323 322 294 
346 6 11 507 310 550 6 538 
347 11 226 102 129 215 158 81 32 111 172 173 5 
348 10 52 170 87 3 51 148 101 322 321 518 
349 10 364 490 390 441 539 64 489 493 487 61 
350 11 158 125 194 139 32 129 262 215 172 81 308 
351 11 74 56 180 165 55 130 45 324 24 184 228 
352 11 79 201 330 453 67 472 251 254 289 15 239 
353 6 536 506 46 459 261 564 
354 11 526 132 317 88 337 120 548 297 477 221 292 
355 11 380 276 557 266 416 53 510 86 164 412 495 
356 11 66 59 476 123 412 538 467 6 380 355 276 
357 11 31 176 123 59 160 181 152 234 430 403 27 
358 10 437 523 481 554 463 314 60 386 418 250 
359 4 389 480 552 70 
360 6 484 106 90 378 443 534 
361 7 508 177 411 506 261 46 207 
362 8 560 434 366 374 468 509 82 426 
363 11 534 443 90 421 445 378 464 360 484 427 511 
364 10 441 349 489 493 390 61 446 270 487 64 
365 10 486 433 419 341 54 278 392 85 275 193 
366 7 374 560 362 426 48 367 509 
367 10 48 415 547 555 509 426 545 505 366 418 
368 7 465 372 566 511 551 499 92 
369 9 327 502 122 546 528 17 398 370 512 
370 6 17 558 512 546 212 504 
371 7 204 562 402 532 39 383 503 
372 6 465 368 499 514 449 89 
373 6 218 535 40 277 205 530 
374 7 366 560 426 362 48 386 399 
375 9 7 258 252 255 312 208 524 313 169 
376 8 500 270 501 442 422 61 268 549 
377 8 291 567 302 400 38 425 556 316 
378 9 421 90 511 534 443 566 360 363 106 
379 6 540 411 459 131 46 450 
380 11 355 276 557 266 412 164 416 423 53 510 356 
381 8 556 302 400 460 497 435 516 38 
382 6 544 529 99 468 82 434 
383 6 420 503 424 562 39 204 
384 6 326 155 190 118 68 565 
385 10 34 249 247 84 559 527 290 91 387 342 
386 7 418 463 554 426 555 60 545 
387 10 290 559 385 34 394 249 288 247 483 495 
388 11 320 100 267 133 485 429 254 99 251 409 42 
389 6 552 359 480 70 525 487 
390 11 487 364 64 70 493 349 489 552 441 480 525 
391 5 531 473 25 335 445 
392 6 275 433 217 85 365 486 
393 10 309 43 220 219 75 83 286 242 49 141 
394 5 288 520 30 387 290 
395 5 479 30 423 520 164 
396 8 182 318 488 334 147 161 185 2 
397 9 408 439 245 452 239 406 472 65 453 
398 9 315 504 122 212 17 546 370 369 502 
399 2 474 60 
400 10 302 556 435 381 460 567 38 516 377 537 
401 8 14 78 345 492 253 294 323 457 
402 9 371 532 65 204 417 562 39 447 494 
403 11 234 430 297 86 189 176 203 221 53 27 181 
404 9 205 530 40 218 373 13 535 277 107 
405 11 431 92 413 466 477 548 112 292 551 427 471 
406 6 408 456 522 154 65 494 
407 9 461 257 235 16 138 318 157 219 398 
408 9 406 65 397 456 522 154 402 494 439 
409 6 429 485 42 133 371 320 
410 11 561 545 554 547 555 437 463 418 48 358 505 
411 6 379 540 46 459 131 536 
412 11 538 6 164 467 310 380 423 11 356 355 479 
413 10 92 551 405 431 548 427 511 566 368 477 
414 2 447 39 
415 10 367 509 48 505 547 555 426 545 366 374 
416 11 266 53 557 276 495 510 86 189 355 203 339 
417 11 532 447 39 562 402 494 211 543 154 204 65 
418 8 386 463 554 426 545 555 547 48 
419 11 341 193 486 278 365 144 85 433 54 168 28 
420 6 503 383 424 562 39 204 
421 10 378 534 363 90 427 443 511 445 566 551 
422 10 500 549 442 501 29 521 457 376 240 268 
423 9 164 479 395 412 380 30 310 11 355 
424 5 420 503 383 562 39 
425 4 316 448 291 38 
426 8 555 547 48 418 374 386 545 366 
427 10 551 511 566 421 413 92 548 378 534 445 
428 9 449 541 89 151 514 91 499 491 372 
429 7 485 409 320 42 544 99 388 
430 11 234 27 221 181 297 403 176 287 438 132 357 
431 11 405 92 413 466 551 477 548 112 368 465 292 
432 11 44 278 54 144 193 341 419 208 252 486 169 
433 9 392 275 365 85 486 217 419 168 341 
434 8 468 362 82 560 529 366 374 382 
435 8 400 302 556 381 567 460 38 516 
436 11 542 295 186 23 238 166 279 135 232 22 136 
437 11 358 523 554 463 481 60 418 314 386 545 410 
438 11 287 27 181 20 221 213 120 114 430 297 498 
439 10 239 397 42 472 452 408 245 133 65 409 
440 10 64 451 487 525 70 390 480 552 349 539 
441 10 364 61 489 270 493 446 349 390 376 458 
442 10 501 422 500 240 270 376 61 446 549 29 
443 10 90 363 534 378 421 360 445 464 484 106 
444 11 72 50 97 241 475 478 137 36 161 185 147 
445 11 363 534 421 25 443 90 335 427 378 473 317 
446 11 61 489 493 270 441 458 517 364 240 442 501 
447 10 211 417 494 543 154 532 39 402 456 65 
448 6 316 537 425 516 38 460 
449 7 499 372 514 89 428 465 491 
450 7 131 564 540 459 379 536 46 
451 5 440 64 539 490 487 
452 9 245 453 472 239 397 439 201 67 79 
453 10 452 201 245 472 67 330 79 239 352 397 
454 9 222 244 457 29 521 549 533 268 422 
455 8 524 553 20 7 375 114 103 313 
456 9 522 154 494 211 543 65 406 447 408 
457 10 549 29 422 222 442 500 501 521 240 454 
458 6 517 446 240 489 493 61 
459 10 46 536 131 564 379 540 411 450 506 353 
460 10 516 38 537 556 497 302 316 381 400 448 
461 9 257 407 16 138 235 318 334 398 2 
462 9 268 521 29 500 549 376 244 422 501 
463 10 554 418 386 437 523 358 545 60 555 547 
464 6 443 484 90 363 534 360 
465 8 368 372 499 514 566 511 89 449 
466 11 112 405 292 431 471 477 92 339 413 483 548 
467 8 6 538 121 412 310 11 356 346 
468 8 82 434 362 529 382 560 544 366 
469 11 136 69 293 295 279 280 277 47 188 19 436 
470 11 264 269 107 331 175 142 12 156 237 159 13 
471 11 112 339 292 466 203 477 189 483 405 431 86 
472 11 239 452 453 439 245 79 352 254 397 42 133 
473 7 391 25 531 464 445 363 443 
474 3 399 482 60 
475 11 72 241 97 147 488 161 185 36 444 2 116 
476 10 66 4 356 59 145 123 467 308 160 121 
477 11 292 405 112 548 466 92 413 431 471 551 526 
478 8 444 177 207 72 137 508 261 50 
479 7 423 164 395 30 412 310 11 
480 7 552 70 389 525 359 487 390 
481 9 314 358 523 437 250 60 482 463 554 
482 4 314 60 474 523 
483 11 339 466 471 112 495 203 431 405 491 292 91 
484 6 360 106 90 464 443 378 
485 7 429 409 320 99 544 42 388 
486 10 365 419 433 341 54 278 392 85 193 275 
487 11 70 525 390 64 480 552 440 389 349 493 364 
488 10 147 161 185 241 334 97 2 475 182 396 
489 10 493 446 61 441 364 390 458 270 517 349 
490 7 539 349 64 364 390 451 441 
491 11 89 514 499 91 449 372 428 465 368 431 483 
492 10 253 323 563 345 401 14 78 126 294 3 
493 9 489 364 446 61 441 390 458 517 270 
494 10 211 154 543 447 456 522 417 65 402 532 
495 11 510 416 53 339 266 203 189 483 86 557 276 
496 11 62 8 128 300 150 21 5 162 111 519 173 
497 8 537 516 460 381 38 556 302 316 
498 8 337 213 120 88 114 335 354 132 
499 9 514 89 372 491 449 465 368 428 91 
500 10 422 501 442 549 376 29 521 268 270 462 
501 10 442 500 422 376 270 240 549 61 446 29 
502 9 369 327 122 546 528 17 398 370 504 
503 7 420 383 424 562 39 204 532 
504 6 315 212 398 17 370 122 
505 11 415 367 509 48 561 547 545 555 410 426 418 
506 8 261 46 508 177 353 536 459 207 
507 4 346 11 310 550 
508 7 177 361 261 506 207 46 411 
509 11 415 367 48 505 366 547 555 426 362 545 560 
510 11 495 416 266 53 276 355 557 86 339 380 189 
511 8 566 427 551 378 421 368 413 92 
512 4 558 370 17 546 
513 11 124 134 282 113 108 26 273 194 215 129 347 
514 9 499 89 491 372 449 465 368 91 428 
515 11 259 198 313 119 103 63 232 333 265 104 255 
516 9 460 537 38 497 316 448 556 302 381 
517 6 458 240 446 493 489 61 
518 11 101 3 87 321 51 126 227 52 197 563 298 
519 8 173 209 328 5 81 172 32 102 
520 4 288 30 394 395 
521 10 29 268 549 462 500 244 422 376 501 222 
522 9 456 154 494 211 543 406 65 447 408 
523 10 358 437 60 314 481 463 554 386 418 482 
524 6 455 553 20 114 7 375 
525 9 70 487 480 552 64 389 440 390 359 
526 11 354 132 317 297 477 88 221 292 548 120 337 
527 10 247 84 249 34 342 385 137 559 50 91 
528 8 327 369 502 546 122 17 220 512 
529 6 434 382 468 362 82 560 
530 9 205 40 404 218 13 535 373 277 107 
531 4 391 473 25 335 
532 10 39 562 417 204 402 371 447 503 383 420 
533 11 73 283 244 306 93 454 41 222 242 83 285 
534 11 363 443 90 421 378 445 360 464 484 427 511 
535 9 277 13 218 40 293 142 373 530 205 
536 10 46 459 564 353 131 450 506 379 540 411 
537 7 516 460 497 38 448 316 556 
538 10 6 467 412 310 11 346 356 164 121 507 
539 7 490 349 451 64 364 390 440 
540 7 379 131 411 450 459 46 564 
541 8 151 428 182 342 449 137 36 185 
542 11 436 23 238 232 295 166 186 279 312 208 135 
543 8 211 494 154 447 522 456 417 65 
544 7 382 99 529 468 82 485 429 
545 10 547 555 48 418 426 367 554 463 386 415 
546 11 17 122 327 369 370 502 512 528 398 558 504 
547 10 555 545 48 426 367 418 415 386 554 463 
548 11 92 413 551 427 477 405 431 317 511 292 566 
549 10 29 422 521 500 268 457 501 442 376 462 
550 3 346 11 507 
551 10 427 413 92 511 566 548 368 421 431 405 
552 7 480 389 70 359 487 525 390 
553 11 455 20 524 103 104 152 181 438 27 287 114 
554 11 463 418 386 437 358 545 523 547 555 60 426 
555 10 547 545 48 426 367 418 386 415 463 554 
556 10 302 400 460 381 38 516 435 497 537 567 
557 11 276 266 53 355 416 86 380 189 510 495 203 
558 3 512 370 17 
559 8 249 385 34 290 387 247 84 527 
560 6 362 366 374 434 426 48 
561 11 410 505 545 547 555 48 367 415 554 418 463 
562 9 39 532 204 371 383 503 420 417 402 
563 11 126 323 492 253 3 197 52 518 345 294 401 
564 7 131 450 459 536 46 540 379 
565 6 326 384 155 190 68 118 
566 9 511 551 427 378 368 421 413 92 465 
567 11 377 400 302 435 556 291 38 460 381 516 425 
DEPOT_SECTION
   1
   -1
EOF
