NAME :  X-n916-kX-w366-c9.cctp
COMMENT : 	Adapted by Maziero, Usberti and Cavellucci from the Uchoa, Pecin, Pessoa, Poggi, Subramanian, and Vidal (2013)
TYPE :  CCTP
DIMENSION :    863
EDGE_WEIGHT_TYPE : 	EUC_2D	
CAPACITY : 	33
VERTICES_WITHIN_COVERAGE :  9
VERTICES_WITH_DEMAND : 	366
NODE_COORD_SECTION
1 0 0
2 471 44
3 63 475
4 766 504
5 895 595
6 816 377
7 462 590
8 997 596
9 775 993
10 16 97
11 839 348
12 558 896
13 423 912
14 169 411
15 75 602
16 402 52
17 388 208
18 202 39
19 510 841
20 555 484
21 920 633
22 369 718
23 432 696
24 624 872
25 472 323
26 753 701
27 584 440
28 292 665
29 202 310
30 764 255
31 662 486
32 822 575
33 469 13
34 640 165
35 814 886
36 554 82
37 336 745
38 950 229
39 142 835
40 407 932
41 69 205
42 86 764
43 202 165
44 376 632
45 639 987
46 775 98
47 503 855
48 38 960
49 215 73
50 566 78
51 4 517
52 44 457
53 676 337
54 338 568
55 623 911
56 626 931
57 97 43
58 799 942
59 725 430
60 93 953
61 264 347
62 986 595
63 631 614
64 331 362
65 158 793
66 760 436
67 115 641
68 307 764
69 469 817
70 315 388
71 906 830
72 564 25
73 88 246
74 671 892
75 181 139
76 723 784
77 609 798
78 174 403
79 76 671
80 984 939
81 830 579
82 3 893
83 176 164
84 625 158
85 249 590
86 663 347
87 21 500
88 501 372
89 572 218
90 483 270
91 604 201
92 548 281
93 205 745
94 125 178
95 870 931
96 276 846
97 759 839
98 79 105
99 218 992
100 277 797
101 545 62
102 161 102
103 1 827
104 719 128
105 80 366
106 16 732
107 24 521
108 848 600
109 585 594
110 618 577
111 44 300
112 489 239
113 479 978
114 768 731
115 274 30
116 546 837
117 890 640
118 594 308
119 878 716
120 498 448
121 145 96
122 54 935
123 473 5
124 906 899
125 277 752
126 435 254
127 630 686
128 905 275
129 521 401
130 850 425
131 374 186
132 712 433
133 814 730
134 740 622
135 681 74
136 120 490
137 297 816
138 376 534
139 982 560
140 1 332
141 815 625
142 356 868
143 659 994
144 804 110
145 415 517
146 106 844
147 549 366
148 57 742
149 848 739
150 381 700
151 442 808
152 867 408
153 67 930
154 763 186
155 581 91
156 416 56
157 729 620
158 163 73
159 160 129
160 468 902
161 694 730
162 319 644
163 831 476
164 863 921
165 524 71
166 299 197
167 193 823
168 18 360
169 987 845
170 998 548
171 302 506
172 432 229
173 550 142
174 637 527
175 168 0
176 178 804
177 888 448
178 270 481
179 250 421
180 410 125
181 373 134
182 275 772
183 965 25
184 858 502
185 587 967
186 860 275
187 178 710
188 331 4
189 811 598
190 560 886
191 712 512
192 216 974
193 528 75
194 740 12
195 840 109
196 980 512
197 928 334
198 90 78
199 788 322
200 665 990
201 400 702
202 131 24
203 238 610
204 392 541
205 40 394
206 713 806
207 823 571
208 863 568
209 145 20
210 509 893
211 629 447
212 854 236
213 717 78
214 525 774
215 695 620
216 721 979
217 957 457
218 594 451
219 514 110
220 899 994
221 772 937
222 877 942
223 533 82
224 399 742
225 273 688
226 360 780
227 650 339
228 312 455
229 272 771
230 362 515
231 716 823
232 307 627
233 787 639
234 28 212
235 38 119
236 130 518
237 535 632
238 832 952
239 874 955
240 106 653
241 440 485
242 73 329
243 934 692
244 638 325
245 126 820
246 382 958
247 884 840
248 706 90
249 424 652
250 216 964
251 841 543
252 370 271
253 863 886
254 361 490
255 875 91
256 266 457
257 179 817
258 430 197
259 512 412
260 111 1
261 811 631
262 366 758
263 227 575
264 197 524
265 398 905
266 939 361
267 953 287
268 897 410
269 285 104
270 245 215
271 569 401
272 159 310
273 20 90
274 212 39
275 415 407
276 13 641
277 855 610
278 95 571
279 780 936
280 63 84
281 240 801
282 977 62
283 405 258
284 995 89
285 334 695
286 265 783
287 988 790
288 68 368
289 497 712
290 201 513
291 676 581
292 625 400
293 791 162
294 351 55
295 572 827
296 584 930
297 482 749
298 110 723
299 230 362
300 942 467
301 540 63
302 202 848
303 161 162
304 272 788
305 137 87
306 177 274
307 324 842
308 229 434
309 149 697
310 916 866
311 634 157
312 42 213
313 655 154
314 123 1000
315 460 506
316 21 698
317 435 615
318 838 67
319 120 425
320 54 726
321 475 624
322 923 980
323 391 94
324 105 901
325 463 618
326 568 659
327 999 831
328 719 93
329 290 423
330 796 547
331 123 595
332 515 939
333 550 757
334 954 98
335 898 486
336 695 337
337 40 727
338 217 284
339 910 245
340 536 956
341 262 332
342 91 91
343 697 755
344 894 726
345 919 962
346 909 22
347 253 535
348 703 346
349 416 895
350 330 596
351 524 250
352 475 780
353 365 803
354 844 845
355 909 202
356 802 755
357 77 246
358 266 819
359 759 835
360 850 267
361 71 176
362 244 82
363 881 234
364 867 75
365 564 436
366 749 216
367 30 624
368 677 208
369 980 257
370 582 317
371 421 870
372 183 454
373 442 766
374 875 497
375 217 979
376 867 873
377 280 473
378 582 382
379 35 597
380 287 284
381 527 786
382 991 617
383 448 513
384 581 780
385 415 498
386 215 359
387 964 211
388 886 296
389 696 784
390 102 90
391 227 699
392 76 258
393 705 580
394 752 531
395 246 128
396 834 350
397 838 453
398 809 825
399 468 650
400 204 930
401 523 626
402 110 964
403 422 180
404 940 246
405 513 333
406 446 78
407 992 939
408 58 941
409 24 763
410 17 536
411 70 381
412 142 464
413 621 976
414 878 960
415 286 774
416 349 202
417 841 520
418 134 20
419 107 804
420 278 847
421 103 639
422 555 920
423 427 289
424 987 735
425 905 345
426 608 750
427 471 58
428 482 339
429 319 913
430 966 994
431 288 458
432 225 777
433 501 384
434 3 25
435 259 851
436 632 304
437 180 66
438 300 608
439 591 113
440 569 817
441 165 31
442 137 397
443 820 139
444 858 354
445 846 618
446 0 438
447 308 337
448 772 594
449 684 931
450 76 667
451 750 130
452 538 354
453 725 339
454 758 410
455 664 460
456 837 95
457 90 978
458 898 281
459 301 417
460 480 247
461 441 215
462 749 43
463 77 906
464 30 919
465 481 281
466 680 2
467 262 513
468 892 100
469 291 346
470 297 568
471 248 393
472 41 933
473 904 115
474 32 959
475 535 246
476 383 373
477 790 155
478 351 192
479 974 278
480 853 66
481 402 223
482 946 112
483 282 298
484 125 815
485 542 231
486 867 55
487 356 901
488 432 398
489 943 107
490 50 932
491 152 996
492 456 587
493 249 311
494 993 242
495 499 264
496 801 81
497 740 343
498 413 424
499 885 23
500 22 856
501 120 843
502 878 250
503 285 767
504 62 901
505 923 284
506 967 327
507 647 167
508 284 481
509 474 146
510 879 57
511 69 955
512 226 446
513 681 214
514 10 764
515 303 406
516 306 364
517 443 329
518 256 544
519 902 315
520 99 834
521 246 156
522 244 466
523 744 203
524 795 267
525 484 108
526 152 734
527 182 883
528 862 64
529 403 167
530 80 925
531 918 400
532 888 170
533 122 356
534 970 207
535 838 63
536 772 29
537 481 228
538 159 405
539 73 851
540 142 807
541 631 386
542 927 39
543 220 898
544 374 989
545 269 417
546 568 286
547 289 426
548 936 279
549 869 414
550 197 686
551 187 768
552 369 80
553 166 764
554 908 249
555 224 440
556 337 486
557 220 794
558 74 791
559 53 1000
560 787 73
561 787 362
562 750 177
563 254 284
564 547 281
565 172 865
566 24 961
567 887 262
568 687 320
569 156 826
570 310 852
571 239 787
572 385 451
573 297 604
574 122 849
575 500 280
576 308 485
577 216 326
578 788 310
579 120 859
580 952 262
581 50 951
582 521 285
583 566 179
584 51 802
585 234 720
586 297 461
587 102 907
588 602 414
589 568 274
590 977 339
591 363 614
592 192 888
593 262 418
594 877 28
595 266 562
596 283 404
597 21 904
598 978 188
599 464 235
600 436 737
601 85 979
602 827 264
603 127 983
604 883 290
605 553 441
606 118 745
607 863 44
608 494 238
609 348 368
610 871 87
611 281 341
612 437 236
613 231 337
614 479 274
615 589 30
616 486 301
617 261 354
618 417 390
619 169 825
620 934 247
621 199 952
622 491 210
623 547 203
624 266 398
625 879 167
626 810 114
627 366 344
628 138 699
629 121 678
630 458 199
631 265 932
632 150 301
633 520 532
634 941 342
635 185 796
636 184 339
637 961 294
638 925 179
639 113 864
640 254 377
641 785 101
642 944 220
643 392 85
644 223 275
645 72 966
646 451 269
647 272 419
648 213 987
649 542 240
650 435 278
651 590 292
652 816 399
653 10 893
654 912 350
655 932 281
656 431 819
657 102 918
658 915 417
659 248 506
660 507 957
661 610 313
662 104 710
663 445 305
664 899 164
665 91 921
666 968 286
667 530 28
668 772 457
669 821 71
670 568 311
671 420 267
672 331 433
673 897 47
674 721 109
675 783 26
676 843 135
677 649 30
678 792 295
679 817 187
680 310 398
681 108 980
682 113 943
683 627 268
684 843 9
685 827 183
686 469 247
687 293 476
688 48 802
689 299 571
690 177 983
691 247 818
692 485 205
693 926 105
694 198 537
695 193 518
696 319 377
697 212 832
698 263 293
699 506 64
700 124 894
701 277 359
702 325 320
703 720 133
704 82 861
705 100 923
706 585 222
707 496 113
708 820 51
709 131 436
710 280 364
711 175 812
712 921 343
713 678 290
714 960 590
715 927 210
716 106 895
717 287 535
718 494 399
719 418 389
720 563 224
721 414 374
722 227 316
723 234 332
724 858 251
725 345 175
726 908 99
727 401 449
728 125 846
729 226 934
730 915 307
731 420 185
732 99 895
733 858 255
734 904 280
735 836 295
736 954 91
737 307 462
738 63 942
739 234 500
740 990 351
741 64 844
742 16 979
743 746 95
744 110 822
745 874 368
746 282 437
747 735 65
748 343 882
749 273 905
750 16 952
751 698 290
752 797 162
753 836 112
754 519 268
755 392 244
756 889 215
757 822 706
758 567 222
759 569 663
760 254 984
761 939 225
762 953 324
763 202 931
764 882 219
765 252 380
766 64 517
767 875 542
768 786 222
769 908 103
770 915 177
771 321 438
772 205 294
773 408 460
774 189 798
775 93 968
776 889 238
777 296 871
778 467 189
779 497 523
780 329 391
781 80 869
782 548 355
783 630 125
784 322 213
785 897 281
786 474 446
787 221 764
788 917 309
789 390 957
790 435 336
791 862 457
792 144 827
793 131 239
794 396 258
795 817 68
796 868 115
797 861 244
798 484 279
799 252 836
800 413 905
801 121 908
802 223 490
803 775 116
804 932 226
805 807 379
806 254 997
807 332 319
808 808 87
809 973 410
810 549 147
811 517 226
812 284 419
813 851 84
814 383 311
815 456 720
816 816 63
817 336 428
818 944 359
819 185 820
820 18 846
821 861 274
822 50 970
823 869 277
824 872 242
825 370 207
826 46 964
827 541 303
828 442 386
829 835 160
830 206 314
831 361 437
832 877 322
833 533 279
834 307 397
835 205 953
836 390 508
837 983 411
838 561 527
839 709 161
840 47 963
841 786 186
842 960 209
843 698 347
844 923 254
845 999 380
846 408 243
847 677 170
848 510 245
849 973 291
850 39 922
851 37 1000
852 966 301
853 344 450
854 112 334
855 133 830
856 107 466
857 798 121
858 224 769
859 503 237
860 294 796
861 521 264
862 113 820
863 996 220
DEMAND_SECTION
2 8
3 6
4 7
5 6
6 10
7 10
8 5
9 7
10 8
11 8
12 6
13 6
14 6
15 6
16 5
17 8
18 6
19 10
20 9
21 8
22 9
23 6
24 10
25 10
26 6
27 6
28 6
29 9
30 9
31 10
32 9
33 6
34 5
35 5
36 6
37 10
38 8
39 5
40 6
41 9
42 8
43 7
44 8
45 6
46 7
47 6
48 5
49 7
50 9
51 8
52 8
53 10
54 8
55 7
56 10
57 6
58 5
59 6
60 10
61 7
62 6
63 7
64 8
65 9
66 9
67 9
68 6
69 10
70 7
71 9
72 5
73 7
74 9
75 6
76 5
77 9
78 6
79 5
80 5
81 5
82 7
83 10
84 10
85 6
86 9
87 7
88 10
89 10
90 7
91 10
92 7
93 9
94 5
95 9
96 8
97 7
98 8
99 10
100 10
101 7
102 10
103 6
104 6
105 5
106 10
107 10
108 6
109 5
110 7
111 7
112 5
113 5
114 7
115 9
116 9
117 8
118 5
119 7
120 9
121 7
122 7
123 9
124 5
125 9
126 5
127 6
128 6
129 8
130 10
131 7
132 8
133 9
134 10
135 6
136 8
137 7
138 6
139 7
140 5
141 5
142 6
143 8
144 10
145 10
146 8
147 10
148 9
149 6
150 10
151 5
152 5
153 7
154 5
155 10
156 6
157 8
158 8
159 5
160 9
161 6
162 7
163 7
164 6
165 9
166 8
167 10
168 10
169 6
170 9
171 9
172 5
173 5
174 8
175 10
176 6
177 8
178 5
179 7
180 5
181 5
182 10
183 9
184 10
185 8
186 7
187 6
188 5
189 8
190 6
191 5
192 9
193 9
194 5
195 9
196 7
197 8
198 8
199 9
200 10
201 10
202 7
203 8
204 7
205 6
206 9
207 10
208 10
209 7
210 10
211 5
212 10
213 8
214 8
215 8
216 9
217 8
218 8
219 8
220 10
221 8
222 7
223 6
224 9
225 10
226 7
227 5
228 6
229 9
230 8
231 6
232 8
233 7
234 7
235 5
236 7
237 8
238 6
239 5
240 8
241 6
242 6
243 10
244 8
245 9
246 6
247 7
248 7
249 5
250 7
251 10
252 6
253 5
254 10
255 6
256 10
257 7
258 10
259 9
260 5
261 5
262 5
263 8
264 8
265 5
266 8
267 10
268 6
269 7
270 9
271 8
272 6
273 9
274 10
275 10
276 6
277 10
278 9
279 7
280 10
281 9
282 5
283 6
284 10
285 5
286 5
287 7
288 9
289 9
290 10
291 6
292 5
293 10
294 7
295 7
296 8
297 10
298 5
299 5
300 7
301 10
302 8
303 10
304 7
305 8
306 10
307 9
308 8
309 10
310 7
311 10
312 10
313 6
314 7
315 6
316 8
317 9
318 7
319 6
320 5
321 9
322 6
323 8
324 9
325 6
326 6
327 5
328 7
329 6
330 10
331 7
332 5
333 5
334 8
335 8
336 6
337 6
338 7
339 7
340 7
341 5
342 9
343 7
344 6
345 5
346 9
347 5
348 6
349 7
350 8
351 10
352 9
353 5
354 6
355 9
356 6
357 7
358 5
359 9
360 10
361 10
362 6
363 5
364 8
365 6
366 10
367 10
COVERAGE_SECTION
2 9 427 33 123 699 406 156 165 667 193 
3 9 52 766 856 87 136 107 51 446 319 
4 9 394 668 330 191 66 163 417 59 251 
5 9 208 277 21 117 108 445 767 714 81 
6 9 805 652 396 561 11 444 130 745 152 
7 9 492 325 321 317 399 401 249 779 383 
8 9 62 382 714 139 170 21 196 5 243 
9 9 58 216 221 279 238 239 414 200 449 
10 9 273 235 280 98 434 342 198 390 361 
11 9 396 444 6 745 805 832 735 561 652 
12 9 190 422 296 210 116 332 340 55 47 
13 9 800 349 40 265 371 160 789 246 487 
14 9 78 538 442 372 709 319 412 555 308 
15 9 278 379 421 331 367 67 240 450 79 
16 9 156 643 323 552 294 406 2 427 180 
17 9 825 481 131 755 416 731 478 846 258 
18 9 274 437 49 441 158 175 209 362 418 
19 9 47 116 69 210 381 295 440 190 214 
20 9 605 838 365 218 27 633 120 779 211 
21 9 117 5 714 243 277 382 62 445 108 
22 9 150 201 224 262 285 37 226 23 600 
23 9 201 815 600 249 150 224 399 22 289 
24 9 55 74 56 190 295 12 296 77 440 
25 9 428 616 517 663 790 405 465 798 614 
26 9 114 161 133 757 233 356 343 134 157 
27 9 218 365 605 588 271 211 20 292 378 
28 9 225 162 232 285 438 573 391 203 350 
29 9 830 772 577 722 338 636 723 613 644 
30 9 524 768 366 678 523 578 602 154 199 
31 9 455 174 211 191 132 218 59 27 292 
32 9 207 81 189 108 251 330 208 277 445 
33 9 123 2 427 667 699 156 406 16 165 
34 9 507 311 84 313 847 783 91 368 513 
35 9 253 354 376 58 164 279 398 221 238 
36 9 50 223 101 301 193 155 165 439 219 
37 9 262 68 226 22 285 503 415 125 224 
38 9 642 761 804 404 842 387 620 534 715 
39 9 792 855 569 728 245 501 574 484 540 
40 9 13 265 800 789 246 349 487 371 544 
41 9 312 361 234 357 73 392 94 793 235 
42 9 558 148 606 419 298 320 584 688 662 
43 9 83 75 303 521 159 395 270 102 94 
44 9 591 249 162 350 317 150 232 54 201 
45 9 143 413 200 185 56 449 55 296 216 
46 9 641 803 560 743 144 496 857 808 626 
47 9 19 210 116 69 160 190 12 381 295 
48 8 474 826 840 566 581 822 750 472 
49 9 362 274 18 437 158 102 395 441 115 
50 9 36 155 101 301 223 193 165 439 72 
51 9 107 410 87 766 3 52 446 379 278 
52 9 3 446 87 205 766 856 107 51 411 
53 9 86 336 568 843 227 348 244 713 453 
54 9 350 689 470 138 591 438 573 230 204 
55 9 56 24 296 74 449 413 12 185 190 
56 9 55 296 413 185 45 449 24 74 143 
57 9 198 202 260 418 390 342 209 280 305 
58 9 279 221 238 9 35 164 95 239 222 
59 9 132 66 454 668 455 191 31 4 348 
60 8 775 402 682 511 457 645 601 530 
61 9 617 341 611 701 710 469 640 613 723 
62 9 8 382 714 139 170 21 196 5 117 
63 9 110 109 291 215 127 326 759 393 174 
64 9 609 696 516 780 70 447 627 680 702 
65 9 540 176 711 635 553 774 257 569 619 
66 9 668 454 59 132 652 4 805 561 397 
67 9 421 240 629 331 450 79 15 628 309 
68 9 503 415 125 182 37 860 229 304 100 
69 9 151 352 656 19 47 373 381 297 214 
70 9 680 696 834 780 515 516 64 459 596 
71 9 247 310 376 354 124 253 169 287 327 
72 9 615 667 101 301 50 36 165 193 223 
73 9 357 392 793 41 312 234 111 361 94 
74 9 449 24 55 56 231 296 206 200 413 
75 9 159 83 303 43 102 121 395 521 94 
76 9 206 389 343 231 161 359 97 114 356 
77 9 384 440 295 426 333 116 24 381 214 
78 9 14 538 442 372 709 319 386 555 308 
79 9 450 240 421 629 662 67 320 316 298 
80 9 407 430 345 322 124 169 310 220 222 
81 9 32 207 189 108 208 251 277 445 330 
82 7 653 597 464 500 850 820 472 
83 9 303 75 43 159 94 102 521 121 395 
84 9 311 34 507 313 783 91 847 439 583 
85 9 203 263 595 518 573 470 689 438 347 
86 9 227 53 244 336 843 568 348 541 436 
87 9 107 51 410 766 3 52 446 856 379 
88 9 433 718 129 428 259 405 452 147 782 
89 9 758 720 706 623 485 91 649 583 475 
90 9 614 798 465 495 575 460 686 616 112 
91 9 706 89 758 583 720 84 34 311 507 
92 9 564 833 546 589 827 582 754 861 670 
93 9 787 551 858 432 585 553 187 391 557 
94 9 303 83 361 159 793 41 75 73 43 
95 9 164 222 239 414 238 253 124 345 376 
96 9 420 435 799 358 777 570 137 691 307 
97 9 359 231 398 206 76 35 389 354 356 
98 9 342 280 390 198 235 273 305 10 57 
99 9 648 375 192 250 806 760 835 690 621 
100 9 304 860 286 182 358 415 229 137 503 
101 9 301 193 36 165 223 50 667 699 72 
102 9 121 159 305 158 437 75 303 390 49 
103 8 820 500 688 584 514 741 82 653 
104 9 703 674 451 839 328 248 743 213 803 
105 9 288 411 242 533 854 205 168 442 319 
106 9 337 409 514 316 320 148 42 688 584 
107 9 410 51 87 766 3 52 379 446 278 
108 9 277 445 81 208 32 189 207 141 5 
109 9 110 63 237 326 401 759 838 174 633 
110 9 109 63 174 291 838 393 215 326 759 
111 9 242 392 140 357 168 73 288 105 854 
112 9 608 460 537 859 686 848 599 495 622 
113 9 660 332 340 160 40 13 210 789 422 
114 9 26 356 133 757 76 161 343 149 389 
115 9 362 188 274 18 49 269 294 437 395 
116 9 295 440 19 47 190 381 12 214 210 
117 9 21 5 277 445 108 243 141 119 208 
118 9 370 651 661 670 546 436 589 244 683 
119 9 344 149 757 243 133 117 356 21 445 
120 9 786 259 718 129 605 433 20 365 241 
121 9 305 102 158 159 390 437 342 75 198 
122 9 490 408 738 472 153 581 850 511 530 
123 9 33 2 427 667 699 156 406 165 16 
124 9 310 253 376 95 164 222 247 239 345 
125 9 503 182 229 415 68 286 304 100 860 
126 9 612 671 646 650 172 846 283 599 686 
127 9 759 326 426 63 161 215 343 109 384 
128 9 734 458 785 505 567 554 604 388 655 
129 9 259 433 718 88 147 271 452 605 120 
130 9 549 152 397 791 652 177 268 163 6 
131 9 825 478 17 416 725 529 481 731 403 
132 9 59 66 454 455 668 31 191 211 348 
133 9 757 356 149 114 119 26 344 233 398 
134 9 157 448 215 233 393 261 141 189 291 
135 9 248 213 328 674 677 747 104 743 703 
136 9 856 236 412 709 3 766 319 372 695 
137 9 860 100 358 420 96 307 304 570 415 
138 9 204 230 836 145 254 54 385 556 383 
139 9 170 62 714 8 196 382 5 21 300 
140 9 168 111 242 205 288 411 105 392 446 
141 9 261 189 233 445 108 277 81 32 448 
142 9 748 487 307 570 265 429 777 371 349 
143 9 200 45 413 216 449 56 185 55 296 
144 9 626 857 641 808 496 803 46 753 443 
145 9 385 836 204 383 241 138 315 230 773 
146 9 520 501 574 728 579 639 744 862 704 
147 9 782 452 378 271 129 88 405 433 670 
148 9 320 337 42 409 106 514 558 298 316 
149 9 133 119 757 344 356 114 398 243 26 
150 9 201 22 224 285 23 262 37 249 600 
151 9 656 69 373 352 371 297 600 19 47 
152 9 549 130 268 745 177 658 791 531 652 
153 9 738 122 408 530 490 511 463 472 665 
154 9 562 841 523 366 293 477 752 768 679 
155 9 50 439 36 101 223 301 193 165 173 
156 9 16 406 643 323 552 427 2 294 33 
157 9 134 215 393 448 233 291 261 26 189 
158 9 437 102 121 305 441 18 49 159 209 
159 9 75 102 303 121 83 305 43 158 94 
160 9 210 13 349 800 371 47 332 660 40 
161 9 343 389 76 26 114 127 206 426 231 
162 9 232 28 438 573 350 285 591 44 225 
163 9 397 791 184 417 374 130 668 177 251 
164 9 95 222 253 239 414 238 124 376 35 
165 9 193 223 301 699 101 36 219 50 667 
166 8 784 416 725 478 270 521 825 131 
167 9 819 257 697 711 176 619 774 302 635 
168 9 140 205 288 411 105 242 111 446 854 
169 9 327 287 310 71 80 407 124 247 424 
170 9 139 196 8 62 714 382 300 217 5 
171 9 576 508 687 717 377 556 178 467 737 
172 9 612 461 126 846 481 258 599 283 630 
173 8 810 583 219 439 36 155 623 707 
174 9 31 110 291 455 191 838 211 109 393 
175 9 209 441 418 202 18 260 274 437 158 
176 9 711 635 257 774 819 65 619 167 569 
177 9 791 268 335 549 658 130 152 397 374 
178 9 377 508 256 687 431 522 467 659 586 
179 9 593 545 647 308 471 624 555 812 512 
180 9 323 181 529 643 403 406 552 731 509 
181 9 180 323 529 725 131 643 552 478 403 
182 9 229 415 503 286 304 125 100 860 68 
183 9 282 542 346 736 284 673 334 499 489 
184 9 374 417 163 335 767 251 791 397 177 
185 9 413 296 340 56 45 422 55 12 143 
186 9 821 823 360 733 724 604 567 502 735 
187 9 550 309 526 628 93 391 553 585 551 
188 9 294 115 552 16 156 643 323 269 362 
189 9 32 81 141 207 261 108 448 445 277 
190 9 12 422 296 116 210 295 47 24 19 
191 9 394 4 31 393 455 174 291 132 668 
192 9 375 250 648 99 835 621 760 690 729 
193 9 165 223 301 101 699 36 50 219 667 
194 8 462 536 675 747 466 213 560 743 
195 9 753 456 676 813 796 626 144 443 610 
196 9 170 139 300 217 714 62 8 335 837 
197 9 712 634 654 425 762 788 266 730 818 
198 9 342 390 280 98 57 305 121 235 202 
199 9 578 678 561 497 396 524 735 11 805 
200 9 143 45 413 216 449 56 185 55 74 
201 9 150 23 22 224 600 249 815 262 285 
202 9 418 209 260 441 57 175 158 305 437 
203 9 85 263 595 573 438 518 232 470 689 
204 9 138 145 836 230 385 54 254 383 241 
205 9 411 288 168 105 446 52 140 242 3 
206 9 231 76 389 343 359 97 161 114 74 
207 9 32 81 189 251 330 108 208 277 445 
208 9 767 251 81 108 207 5 32 277 417 
209 9 418 202 441 175 260 57 158 437 18 
210 9 47 160 332 12 190 19 422 660 116 
211 9 218 455 588 27 292 31 541 365 271 
212 9 797 724 733 824 363 502 360 764 776 
213 9 328 248 747 674 743 135 462 104 703 
214 9 381 333 297 352 384 440 116 289 19 
215 9 157 393 291 134 63 448 110 127 233 
216 9 9 200 449 143 221 279 45 58 74 
217 9 300 809 837 658 196 335 531 177 268 
218 9 27 365 211 588 605 20 271 292 378 
219 9 707 525 223 193 165 699 173 36 810 
220 9 322 345 414 239 222 430 95 238 164 
221 9 279 58 9 238 35 216 449 164 95 
222 9 95 239 414 164 238 345 124 220 253 
223 9 193 165 301 36 101 699 50 219 707 
224 9 262 600 22 201 150 373 226 23 815 
225 9 28 391 585 285 125 162 232 550 503 
226 9 262 353 37 224 68 22 860 307 137 
227 9 86 244 53 436 568 336 661 843 541 
228 9 737 586 771 431 687 672 576 853 746 
229 9 182 286 415 503 304 125 100 860 68 
230 9 138 254 836 556 204 145 385 54 171 
231 9 206 76 389 359 97 343 74 398 161 
232 9 438 162 573 350 28 591 689 470 54 
233 9 261 141 448 189 134 157 445 26 108 
234 9 312 41 361 357 392 73 111 235 94 
235 9 10 273 98 280 342 198 361 390 41 
236 9 136 412 856 695 278 766 264 290 694 
237 9 401 326 759 321 109 399 325 7 289 
238 9 58 239 95 164 222 414 279 221 35 
239 9 414 222 95 164 238 220 345 322 124 
240 9 421 67 629 450 79 628 662 15 331 
241 9 385 315 383 145 773 786 727 836 572 
242 9 105 288 854 111 411 533 168 392 140 
243 9 344 21 119 117 424 382 149 5 714 
244 9 227 436 661 86 53 118 568 713 370 
245 9 484 855 862 744 792 540 39 501 419 
246 9 789 544 40 265 800 13 487 349 429 
247 9 71 376 354 310 253 124 398 35 164 
248 9 328 213 674 135 747 104 743 703 451 
249 9 317 399 23 44 325 201 321 150 492 
250 9 192 375 835 621 648 99 729 400 763 
251 9 417 207 208 767 32 81 184 330 108 
252 8 794 755 283 814 846 671 481 423 
253 9 376 164 124 354 95 35 247 310 222 
254 9 556 230 836 853 138 572 576 831 385 
255 9 610 364 468 796 813 528 480 510 726 
256 9 377 431 178 522 746 508 586 687 647 
257 9 711 819 176 619 167 774 635 569 65 
258 9 731 403 461 630 172 481 778 529 612 
259 9 129 718 433 120 88 605 786 365 271 
260 9 202 418 209 57 175 441 198 158 390 
261 9 141 233 189 445 108 277 448 81 32 
262 9 226 37 224 22 353 68 150 201 285 
263 9 85 203 595 518 347 694 264 695 290 
264 9 695 290 694 802 739 659 347 263 518 
265 9 800 349 13 40 371 487 789 246 142 
266 9 818 634 712 197 654 425 762 506 531 
267 9 637 666 548 852 849 655 479 580 505 
268 9 658 531 549 152 177 745 130 791 654 
269 9 395 362 521 115 49 294 552 181 725 
270 9 166 521 644 43 563 338 784 698 380 
271 9 378 365 588 147 27 605 129 782 218 
272 9 632 636 306 29 830 772 854 533 577 
273 9 10 235 280 98 434 198 342 390 57 
274 9 18 49 437 441 362 175 158 115 209 
275 7 498 618 719 488 721 828 727 
276 9 367 379 316 450 79 15 337 421 106 
277 9 108 445 81 5 141 208 117 189 32 
278 9 15 331 766 236 379 421 67 240 367 
279 9 221 58 238 9 35 216 164 95 239 
280 9 98 198 342 390 235 273 10 57 305 
281 9 571 691 557 432 286 358 304 858 100 
282 9 284 736 183 334 542 489 482 693 726 
283 9 794 846 671 755 126 481 650 252 423 
284 9 282 736 334 482 489 183 693 542 726 
285 9 22 150 37 28 162 225 201 262 232 
286 9 304 229 182 100 415 503 571 281 860 
287 9 327 169 424 71 310 243 344 247 119 
288 9 105 411 205 242 168 533 854 111 442 
289 9 297 815 600 23 214 399 333 352 373 
290 9 695 264 694 802 739 659 347 467 372 
291 9 393 215 63 110 157 174 134 191 394 
292 9 541 588 211 378 271 27 218 86 227 
293 9 752 477 841 679 154 443 685 857 562 
294 9 552 16 643 188 323 156 115 181 269 
295 9 440 116 77 384 190 381 19 24 12 
296 9 422 185 56 12 55 190 340 413 24 
297 9 352 815 289 373 600 214 381 333 69 
298 9 662 606 628 526 629 309 42 148 320 
299 9 386 613 640 765 723 617 471 61 577 
300 9 217 335 177 658 196 809 837 531 268 
301 9 101 193 165 223 36 50 699 667 72 
302 9 697 167 819 565 257 527 619 592 711 
303 9 83 75 159 94 43 102 121 305 793 
304 9 286 100 182 229 415 860 503 358 571 
305 9 121 102 158 390 342 159 198 437 57 
306 9 772 632 272 338 29 644 830 793 577 
307 9 570 137 777 142 748 420 96 860 353 
308 9 555 512 179 522 593 545 256 471 647 
309 9 628 187 629 526 298 662 550 606 240 
310 9 124 71 247 376 253 169 354 164 95 
311 9 84 34 507 313 783 847 91 439 368 
312 9 234 41 361 357 392 73 111 94 793 
313 9 507 34 311 847 84 783 839 368 513 
314 7 603 681 491 402 457 601 775 
315 9 383 241 779 145 385 786 633 120 773 
316 9 106 337 320 148 276 79 450 409 514 
317 9 325 492 7 249 321 399 44 591 23 
318 9 535 480 669 795 813 816 528 708 456 
319 9 709 442 856 538 412 14 78 136 411 
320 9 337 148 106 316 409 42 662 298 514 
321 9 325 399 7 317 492 401 249 237 23 
322 9 345 220 430 414 239 222 95 80 407 
323 9 643 552 180 16 181 156 294 406 529 
324 9 716 587 732 657 801 700 705 665 463 
325 9 321 7 317 399 492 249 401 237 23 
326 9 759 237 401 109 127 63 289 110 321 
327 9 169 287 310 71 424 407 80 124 247 
328 9 248 213 674 743 747 104 703 135 451 
329 9 547 812 459 746 647 596 515 545 593 
330 9 207 32 251 81 394 4 417 189 448 
331 9 278 67 421 15 240 236 629 450 379 
332 9 660 340 422 210 113 160 12 190 296 
333 9 214 381 384 426 440 297 289 77 295 
334 9 736 489 482 693 284 282 726 769 473 
335 9 374 177 184 791 300 767 217 417 163 
336 9 843 348 53 568 453 86 227 497 751 
337 9 320 148 106 316 409 514 42 662 79 
338 9 644 772 29 830 722 563 306 493 577 
339 9 554 844 776 620 567 804 128 404 363 
340 9 332 660 422 185 296 113 12 210 190 
341 9 61 611 617 493 723 613 701 469 710 
342 9 390 198 98 280 305 57 121 235 102 
343 9 161 389 76 206 231 114 26 426 127 
344 9 119 149 243 757 133 117 424 356 21 
345 9 322 220 414 239 222 430 95 124 80 
346 9 499 542 673 594 510 607 486 183 528 
347 9 518 467 659 595 717 739 263 802 85 
348 9 843 336 453 53 568 497 86 227 751 
349 9 800 13 265 371 40 160 487 142 789 
350 9 54 438 573 591 232 689 470 162 44 
351 9 475 861 848 754 649 811 859 485 495 
352 9 297 373 69 151 214 381 600 656 815 
353 9 226 262 307 37 142 656 137 68 224 
354 9 376 247 398 253 35 71 310 164 124 
355 8 715 756 770 638 764 804 532 761 
356 9 133 114 149 757 398 26 76 119 359 
357 9 73 392 41 312 793 234 111 361 94 
358 9 691 799 100 96 420 137 281 304 435 
359 9 97 231 398 206 76 35 389 354 356 
360 9 186 821 733 724 823 602 797 212 735 
361 9 41 312 94 234 235 357 98 73 392 
362 9 49 395 269 274 18 115 437 521 158 
363 9 776 824 764 502 756 797 212 567 724 
364 9 528 610 480 255 813 486 510 318 535 
365 9 605 27 218 271 588 20 129 259 378 
366 9 523 154 768 562 30 841 293 513 839 
367 9 276 379 15 450 79 316 421 240 278 
368 9 513 847 507 34 839 313 311 523 84 
369 9 494 479 580 666 849 267 863 38 404 
370 9 118 670 651 661 546 827 589 92 564 
371 9 349 800 13 265 656 160 40 142 151 
372 9 412 555 512 14 308 78 802 538 709 
373 9 600 352 151 297 815 224 656 69 23 
374 9 184 335 417 791 767 163 177 251 397 
375 9 192 648 99 250 835 621 760 690 806 
376 9 253 354 247 124 164 310 35 71 95 
377 9 508 178 687 431 256 586 737 576 746 
378 9 271 147 588 782 292 541 452 365 27 
379 9 367 15 276 410 278 107 421 450 79 
380 6 483 698 563 493 702 341 
381 9 214 333 352 440 116 384 19 297 295 
382 9 8 62 714 139 170 21 243 5 117 
383 9 315 241 145 385 779 836 204 773 786 
384 9 77 333 440 426 295 381 214 116 19 
385 9 145 836 241 383 773 315 204 727 138 
386 9 299 613 577 723 636 640 765 722 617 
387 8 842 534 642 38 598 761 863 804 
388 9 604 458 785 734 519 823 128 832 730 
389 9 76 206 343 231 161 359 97 77 114 
390 9 342 198 98 305 280 121 57 102 158 
391 9 585 550 225 187 93 787 858 28 125 
392 9 357 73 41 111 312 793 234 242 361 
393 9 291 215 157 134 191 394 448 63 174 
394 9 4 191 330 448 393 668 207 32 189 
395 9 521 269 362 43 49 75 83 159 166 
396 9 11 444 6 805 745 561 832 652 199 
397 9 163 791 130 177 549 184 152 374 652 
398 9 354 359 97 35 356 376 247 253 231 
399 9 321 325 249 317 23 7 401 492 289 
400 7 763 729 621 835 250 543 592 
401 9 237 321 326 759 399 325 109 7 492 
402 7 681 775 60 682 457 603 601 
403 9 731 258 529 461 630 17 778 481 131 
404 9 620 844 38 580 761 804 642 339 554 
405 9 428 452 88 782 827 25 616 147 582 
406 9 427 156 2 525 16 643 323 180 707 
407 9 80 430 345 322 169 124 310 220 327 
408 8 738 122 490 581 153 511 472 840 
409 9 514 106 148 337 688 584 320 558 42 
410 9 107 51 87 766 379 3 52 278 15 
411 9 288 105 205 242 168 533 854 319 442 
412 9 709 136 856 372 319 236 14 538 442 
413 9 45 185 143 56 200 296 55 449 340 
414 9 239 222 95 220 345 164 238 322 124 
415 9 503 182 229 304 68 286 860 125 100 
416 9 478 825 725 784 131 17 166 481 755 
417 9 251 184 767 374 163 330 208 207 32 
418 9 202 209 260 441 175 57 158 437 305 
419 9 862 744 484 245 520 540 558 855 146 
420 9 96 435 799 358 777 570 137 691 307 
421 9 67 240 450 79 629 15 331 278 628 
422 9 12 296 190 340 332 210 185 660 55 
423 8 650 671 663 646 126 283 517 794 
424 9 287 243 344 327 169 119 382 21 71 
425 9 654 712 197 519 634 832 266 788 730 
426 9 384 77 333 127 440 295 214 161 343 
427 9 2 406 699 33 525 123 156 165 193 
428 9 25 405 88 616 517 790 433 663 452 
429 9 487 748 749 777 631 142 570 307 246 
430 9 322 345 80 407 220 414 239 222 124 
431 9 586 377 687 737 256 746 508 228 178 
432 9 858 787 571 557 281 93 551 286 774 
433 9 88 718 129 259 452 428 147 405 782 
434 9 273 10 280 57 235 198 98 342 260 
435 9 799 96 420 358 691 777 570 697 137 
436 9 244 661 683 118 227 651 713 370 86 
437 9 158 18 49 441 102 274 121 305 209 
438 9 573 232 350 689 470 162 85 54 595 
439 9 155 783 50 36 173 810 84 311 223 
440 9 295 116 384 77 381 214 333 19 190 
441 9 209 175 418 202 18 437 158 274 260 
442 9 538 319 14 78 709 533 105 412 854 
443 9 676 829 626 857 753 144 752 477 195 
444 9 11 745 396 832 6 425 654 152 805 
445 9 277 108 141 261 189 81 32 117 207 
446 9 52 205 87 3 51 168 107 411 288 
447 9 469 702 516 611 807 64 701 710 696 
448 9 189 134 233 157 32 141 330 261 207 
449 9 74 56 216 200 55 143 45 413 24 
450 9 79 240 421 629 67 662 316 320 367 
451 9 803 703 104 743 674 46 641 477 562 
452 9 782 147 405 88 433 129 827 378 670 
453 9 497 348 843 336 568 53 751 86 199 
454 9 66 59 668 132 561 805 652 6 497 
455 9 31 211 132 59 191 218 174 292 588 
456 9 195 753 813 318 669 808 535 480 626 
457 7 601 775 681 645 402 60 511 
458 9 785 734 128 604 388 567 505 823 730 
459 9 515 329 547 812 680 834 596 746 647 
460 9 686 112 608 537 599 90 495 859 614 
461 9 172 258 612 630 599 731 778 126 403 
462 8 747 536 194 675 213 560 743 328 
463 7 504 530 665 587 732 153 324 
464 9 850 597 472 490 122 653 408 750 82 
465 9 798 614 90 575 616 495 646 460 686 
466 9 677 194 135 462 747 213 248 615 536 
467 9 659 347 739 518 178 717 508 171 377 
468 8 726 769 255 473 610 796 693 364 
469 9 611 447 701 710 516 61 617 341 696 
470 9 689 595 717 573 438 54 350 518 85 
471 8 765 640 624 179 593 545 647 299 
472 9 490 850 122 464 408 581 738 153 48 
473 6 769 726 468 693 796 255 
474 9 48 566 826 840 750 581 822 742 472 
475 9 649 351 485 861 848 754 811 833 859 
476 6 721 627 609 618 719 275 
477 9 293 752 841 443 857 154 679 803 829 
478 9 416 725 131 825 784 17 166 529 481 
479 9 666 849 637 369 267 852 580 548 494 
480 9 528 318 535 364 486 813 607 510 610 
481 9 17 846 755 172 283 794 825 612 258 
482 8 489 334 693 736 769 726 473 284 
483 6 380 698 563 493 341 611 
484 9 245 862 744 855 540 419 792 39 501 
485 9 649 475 720 811 351 758 623 89 848 
486 9 528 510 607 480 364 594 535 318 673 
487 9 748 142 429 265 800 40 349 246 789 
488 7 828 618 719 275 721 498 476 
489 8 482 334 693 736 769 726 473 468 
490 9 122 472 408 850 738 153 581 464 48 
491 5 603 690 314 681 402 
492 9 7 325 317 321 399 249 383 779 401 
493 9 698 722 341 723 563 613 483 577 61 
494 9 369 863 479 387 534 38 580 842 666 
495 9 575 90 754 798 614 848 861 460 465 
496 9 808 560 795 669 816 641 144 46 626 
497 9 453 348 843 336 561 199 568 578 53 
498 8 275 727 488 618 719 773 572 828 
499 9 594 346 673 607 510 486 684 542 528 
500 6 820 103 653 82 741 597 
501 9 574 728 146 579 855 639 39 520 744 
502 9 824 567 363 776 797 724 733 212 823 
503 9 415 182 229 125 68 304 286 860 100 
504 5 463 153 530 850 490 
505 9 655 548 734 128 730 458 785 788 267 
506 9 762 590 852 634 740 637 849 818 197 
507 9 34 313 311 84 847 783 368 91 513 
508 9 377 687 178 431 576 586 256 737 171 
509 6 525 707 778 219 630 692 
510 9 486 528 607 673 364 480 594 610 255 
511 7 645 738 408 581 840 60 822 
512 9 555 308 522 179 256 372 802 593 545 
513 9 368 847 507 839 34 523 313 366 311 
514 9 409 106 337 148 688 584 320 103 316 
515 9 834 459 680 596 329 70 812 547 780 
516 9 696 469 64 70 710 447 701 834 611 
517 5 790 663 25 428 423 
518 9 347 595 467 717 659 263 85 470 739 
519 9 730 788 388 832 425 604 197 458 712 
520 9 146 744 862 501 574 728 245 419 539 
521 9 395 43 270 269 75 166 83 362 303 
522 9 256 512 178 802 555 308 739 377 659 
523 9 366 154 562 841 768 839 30 293 513 
524 9 678 602 30 578 768 735 199 360 733 
525 8 707 219 509 406 699 427 165 193 
526 9 553 187 606 309 628 298 551 93 662 
527 3 592 565 302 
528 9 480 486 364 510 607 813 318 535 610 
529 9 403 731 131 258 180 17 181 825 481 
530 9 665 153 463 705 657 738 408 122 587 
531 9 658 268 266 818 654 549 152 745 809 
532 5 625 664 770 355 638 
533 9 854 105 442 288 242 411 272 538 632 
534 7 387 842 598 642 863 38 761 
535 9 318 480 669 708 795 816 528 813 486 
536 8 675 462 194 560 747 708 816 496 
537 8 112 608 599 460 622 686 692 859 
538 9 14 78 442 709 319 372 412 533 636 
539 5 741 704 781 520 146 
540 9 484 792 65 245 569 855 39 619 862 
541 9 292 588 378 86 227 211 244 271 53 
542 9 346 673 183 499 510 594 282 736 486 
543 7 592 400 729 763 527 302 749 
544 9 246 789 40 265 487 13 800 429 349 
545 9 647 593 812 179 596 624 329 547 746 
546 9 589 92 564 651 670 827 118 370 833 
547 9 329 812 746 459 647 545 596 515 593 
548 9 655 505 267 580 844 637 128 620 734 
549 9 152 130 268 177 791 658 745 397 531 
550 9 187 391 309 585 93 628 526 225 629 
551 9 553 635 93 774 787 176 858 65 432 
552 9 643 323 294 16 156 181 180 406 188 
553 9 551 65 526 635 774 176 93 540 711 
554 9 339 844 776 567 128 620 502 363 734 
555 9 512 308 179 522 372 593 256 802 545 
556 9 254 576 853 230 737 171 228 687 586 
557 9 432 571 281 858 787 774 635 691 697 
558 9 584 688 42 419 744 862 520 148 741 
559 7 851 822 826 840 601 645 48 
560 8 496 808 46 641 795 816 669 708 
561 9 805 6 199 652 396 497 578 11 454 
562 9 154 523 841 366 293 839 477 451 752 
563 8 698 493 483 644 380 338 722 341 
564 9 92 833 546 589 827 582 754 861 475 
565 4 527 592 302 619 
566 9 474 750 48 742 826 840 581 822 472 
567 9 502 785 128 458 823 776 554 734 824 
568 9 336 53 843 348 713 751 86 227 453 
569 9 792 619 39 855 540 711 257 819 176 
570 9 307 777 420 96 137 748 142 435 358 
571 9 281 432 557 858 286 787 691 304 229 
572 7 727 773 831 498 853 254 275 
573 9 438 232 689 350 470 162 85 595 54 
574 8 728 501 579 146 639 855 39 520 
575 9 495 798 465 90 582 614 754 616 861 
576 9 687 171 737 508 586 556 228 377 431 
577 9 722 830 613 723 29 386 772 636 493 
578 9 199 678 524 735 561 497 30 602 396 
579 6 639 574 728 501 146 855 
580 9 404 548 620 267 479 369 655 666 844 
581 8 840 408 826 48 122 738 490 511 
582 9 833 754 861 575 564 92 827 495 351 
583 8 623 810 89 173 758 91 720 706 
584 8 688 558 741 409 42 539 820 103 
585 9 391 93 787 225 550 858 125 187 432 
586 9 431 737 228 687 377 508 576 746 256 
587 9 324 657 732 716 705 665 801 463 700 
588 9 292 27 271 218 378 541 211 365 605 
589 9 546 92 564 651 833 670 827 118 475 
590 9 506 740 762 634 818 852 266 845 637 
591 9 44 350 54 162 232 438 573 249 317 
592 4 527 543 565 302 
593 9 545 647 179 624 812 596 329 547 746 
594 9 499 607 673 486 510 346 528 684 480 
595 9 518 347 470 85 689 717 263 467 573 
596 8 812 624 545 647 329 515 459 547 
597 7 653 464 82 850 472 490 504 
598 6 534 387 842 863 642 38 
599 9 686 537 460 112 612 461 608 172 126 
600 9 815 373 224 23 297 201 352 150 289 
601 7 457 775 645 681 60 402 511 
602 9 360 524 733 735 724 186 821 212 797 
603 6 314 681 402 491 457 775 
604 9 388 458 785 823 734 128 186 821 567 
605 9 365 27 218 20 271 259 129 120 588 
606 9 298 526 42 662 628 553 309 419 148 
607 9 486 528 510 594 480 499 364 535 318 
608 9 112 859 537 460 848 495 811 686 622 
609 9 64 627 696 780 476 70 516 680 834 
610 9 255 364 813 468 528 480 796 510 486 
611 9 469 61 701 341 710 617 447 516 483 
612 9 172 126 461 599 846 686 671 646 481 
613 9 723 577 722 299 386 341 493 61 617 
614 9 90 465 798 495 575 460 616 646 686 
615 9 72 50 101 301 667 677 155 36 193 
616 9 465 798 575 25 614 90 428 582 495 
617 9 61 701 710 341 611 640 765 469 299 
618 7 719 721 275 488 828 498 476 
619 9 257 569 711 819 176 167 792 39 540 
620 9 404 844 804 580 761 38 339 554 642 
621 8 835 250 763 400 192 375 729 648 
622 5 692 537 608 112 859 
623 7 720 485 758 89 583 649 811 
624 8 596 471 545 593 647 765 640 179 
625 5 532 664 770 829 355 
626 9 144 857 753 443 808 641 195 456 496 
627 6 609 476 814 64 807 702 
628 9 309 629 662 298 526 187 606 240 550 
629 9 628 240 309 662 67 421 79 298 450 
630 8 778 461 258 692 622 599 537 172 
631 8 749 729 760 543 429 250 400 763 
632 9 272 306 854 636 29 772 830 533 793 
633 9 779 838 20 315 383 7 492 120 109 
634 9 197 818 266 712 762 506 654 425 590 
635 9 774 176 711 257 819 65 167 551 619 
636 9 830 29 577 386 272 613 722 723 772 
637 9 852 267 666 849 479 548 762 655 580 
638 5 770 355 664 715 532 
639 6 579 574 146 501 728 704 
640 8 765 471 617 624 299 701 710 61 
641 9 46 803 144 857 496 808 560 626 743 
642 8 761 38 804 842 715 387 404 534 
643 9 323 552 16 156 180 294 181 406 427 
644 9 338 772 563 29 722 830 493 698 306 
645 7 511 601 775 457 822 60 840 
646 9 650 126 614 686 423 671 90 465 798 
647 9 545 593 812 329 547 596 746 179 624 
648 9 99 375 192 250 835 690 621 760 806 
649 9 475 485 351 720 811 758 848 861 754 
650 8 423 646 671 126 663 283 612 614 
651 9 118 546 370 589 661 670 92 436 564 
652 9 6 805 130 561 152 396 549 11 397 
653 7 82 597 464 500 850 820 472 
654 9 425 712 197 266 634 818 519 788 745 
655 9 548 505 267 128 580 734 844 730 637 
656 9 151 69 371 373 352 353 349 47 226 
657 9 705 587 665 324 801 530 716 732 682 
658 9 531 268 177 549 152 300 217 809 266 
659 9 739 467 347 802 178 518 522 508 377 
660 9 332 340 113 422 210 160 12 185 296 
661 9 118 436 370 651 244 670 227 683 546 
662 9 298 628 629 606 309 79 450 320 526 
663 8 423 517 650 25 790 646 616 465 
664 5 532 625 770 638 355 
665 9 705 657 530 587 463 324 153 732 716 
666 9 849 479 637 267 852 580 369 548 655 
667 9 72 301 101 165 699 193 223 36 615 
668 9 66 4 454 59 163 132 397 652 394 
669 9 795 816 318 535 708 808 496 456 480 
670 9 370 546 118 827 651 92 564 589 661 
671 9 283 650 126 423 794 846 646 612 755 
672 7 817 771 853 228 831 459 737 
673 9 510 499 346 594 486 542 607 528 364 
674 9 328 104 248 703 743 213 451 747 135 
675 8 536 462 194 708 560 816 795 496 
676 7 443 753 195 829 796 626 456 
677 9 466 135 615 213 248 72 155 194 747 
678 9 578 199 524 735 602 30 360 561 396 
679 9 685 841 752 829 293 477 768 443 154 
680 9 834 70 515 780 459 696 596 329 812 
681 9 402 457 603 775 601 314 60 682 645 
682 4 402 60 705 657 
683 9 436 651 661 118 713 244 589 546 706 
684 9 594 607 499 708 486 535 318 480 528 
685 8 679 829 752 841 293 443 477 676 
686 9 460 599 112 537 90 608 646 614 495 
687 9 508 377 586 576 431 737 178 228 171 
688 8 584 558 741 409 103 820 42 514 
689 9 470 573 595 438 717 54 350 518 85 
690 5 491 648 621 192 375 
691 9 281 358 799 571 435 557 100 697 286 
692 6 622 537 778 630 112 608 
693 8 489 769 726 482 473 334 736 468 
694 9 264 695 290 263 739 802 347 518 659 
695 9 264 290 694 802 739 659 347 236 372 
696 9 70 780 516 64 680 834 609 515 447 
697 9 302 167 819 257 691 557 799 774 281 
698 7 563 483 493 380 341 722 644 
699 9 165 193 223 301 427 101 2 667 219 
700 4 801 716 324 732 
701 8 710 617 61 611 469 516 640 341 
702 7 807 447 64 469 483 516 627 
703 9 104 674 451 839 328 248 743 562 213 
704 6 781 539 741 146 639 520 
705 7 657 665 587 530 324 682 801 
706 9 89 758 720 91 623 485 583 649 475 
707 8 525 219 509 223 165 193 699 427 
708 8 816 795 669 535 318 480 496 808 
709 9 319 412 856 442 538 14 78 136 372 
710 8 701 469 617 61 611 516 640 765 
711 9 257 176 819 619 635 774 167 569 65 
712 9 197 654 425 634 266 818 519 788 730 
713 9 751 568 53 436 336 244 227 683 86 
714 9 62 8 139 382 170 21 5 196 117 
715 8 804 761 355 642 38 638 842 770 
716 6 324 732 587 700 801 657 
717 9 518 171 467 347 470 595 689 659 508 
718 9 433 259 129 88 120 786 828 428 488 
719 7 618 721 488 275 828 498 476 
720 9 758 89 485 706 623 649 475 583 811 
721 7 618 719 488 828 476 275 790 
722 9 577 723 613 830 493 29 772 338 341 
723 9 613 722 577 493 341 299 386 830 61 
724 9 733 797 212 824 360 502 821 186 823 
725 9 478 416 131 825 784 181 166 17 529 
726 9 769 468 473 693 255 489 610 482 796 
727 7 773 572 498 831 275 385 241 
728 8 574 501 579 855 146 39 639 245 
729 8 400 763 835 250 621 543 631 192 
730 9 788 519 505 734 197 388 458 655 785 
731 9 403 258 529 461 17 630 481 131 172 
732 8 716 324 587 657 463 700 801 665 
733 9 724 797 360 212 821 824 186 502 823 
734 9 128 458 785 505 604 388 567 655 730 
735 9 186 360 602 821 823 678 733 604 724 
736 9 334 489 482 693 282 284 726 769 473 
737 9 228 586 431 687 576 771 377 508 746 
738 8 408 122 153 511 490 581 472 530 
739 9 659 802 467 290 522 347 178 264 695 
740 9 590 845 506 762 818 634 266 852 837 
741 5 539 704 781 520 146 
742 9 566 474 750 48 851 826 822 840 559 
743 9 328 46 674 747 213 451 803 641 248 
744 9 862 245 520 484 419 146 501 855 728 
745 9 444 425 11 152 654 396 549 832 268 
746 9 547 329 812 647 431 545 256 459 586 
747 8 213 462 328 743 248 674 46 536 
748 9 142 487 429 307 570 777 265 349 420 
749 8 631 777 429 543 729 435 420 96 
750 9 566 474 48 742 472 826 840 581 464 
751 9 713 568 336 53 348 453 843 86 436 
752 9 293 477 841 679 443 685 829 857 154 
753 9 195 456 676 626 443 144 796 813 808 
754 9 861 582 833 351 495 575 848 475 564 
755 9 794 846 283 481 252 17 671 172 825 
756 9 764 363 776 355 824 339 502 715 554 
757 9 133 149 356 119 114 26 344 233 261 
758 9 720 89 706 485 623 649 475 91 583 
759 9 326 237 401 127 109 63 289 426 333 
760 9 806 99 375 192 648 250 631 729 835 
761 8 642 804 38 715 404 620 842 387 
762 9 506 634 852 197 590 637 818 267 712 
763 7 400 621 835 729 250 543 592 
764 9 756 363 776 824 502 355 212 797 339 
765 8 640 471 624 299 617 710 701 61 
766 9 107 3 87 410 51 136 278 52 236 
767 9 208 251 417 184 374 5 81 207 335 
768 9 841 366 30 154 523 524 679 685 562 
769 9 726 473 468 693 255 489 482 610 796 
770 6 638 664 355 532 715 625 
771 9 672 817 228 853 737 459 586 329 547 
772 9 29 338 830 644 722 306 577 493 723 
773 8 727 572 498 385 241 836 831 275 
774 9 635 176 711 257 819 167 551 65 557 
775 7 457 601 60 402 681 645 511 
776 9 363 502 824 764 339 554 756 567 797 
777 9 570 420 96 307 749 435 429 748 137 
778 5 630 692 622 461 258 
779 9 633 315 383 838 241 20 120 7 492 
780 9 70 696 680 834 64 515 609 516 459 
781 6 704 539 741 732 639 146 
782 9 452 147 405 378 670 88 271 370 827 
783 9 311 84 313 34 439 507 155 847 135 
784 8 166 416 478 725 825 131 17 252 
785 9 458 734 128 604 388 567 505 823 730 
786 9 120 259 718 241 315 488 129 498 773 
787 9 858 432 93 571 557 551 281 585 774 
788 9 730 519 505 197 655 734 388 458 712 
789 9 246 40 544 265 13 800 487 349 429 
790 4 517 663 25 721 
791 9 397 177 130 163 374 549 184 335 152 
792 9 39 855 569 245 540 484 619 728 501 
793 9 73 357 306 392 94 632 41 272 303 
794 9 283 755 846 671 252 481 126 423 650 
795 9 669 816 708 318 496 808 535 560 456 
796 7 255 468 610 195 676 753 813 
797 9 724 212 733 824 502 363 360 776 821 
798 9 465 614 90 575 495 616 460 646 686 
799 9 435 691 358 96 420 281 697 100 137 
800 9 349 13 265 40 371 160 487 789 246 
801 5 700 324 587 716 657 
802 9 739 659 290 522 695 264 512 467 178 
803 9 46 641 857 451 144 626 743 477 496 
804 9 761 642 715 38 620 404 339 844 355 
805 9 6 652 561 396 11 444 454 199 130 
806 9 760 99 375 648 192 250 631 835 729 
807 7 702 447 627 64 469 516 609 
808 9 496 669 795 144 560 816 626 641 456 
809 9 837 845 217 531 658 818 266 740 300 
810 7 173 583 219 439 623 707 155 
811 8 859 848 351 485 608 475 649 112 
812 9 329 547 647 545 596 459 746 593 515 
813 9 364 456 480 610 318 528 255 535 195 
814 6 627 252 423 807 794 283 
815 9 600 23 297 289 373 201 224 352 399 
816 9 795 669 708 318 535 496 808 560 480 
817 7 672 771 853 831 228 459 780 
818 9 266 634 712 197 654 762 506 590 425 
819 9 257 167 711 176 619 774 635 569 697 
820 6 500 103 741 653 82 688 
821 9 186 823 360 733 724 604 502 567 797 
822 7 826 840 48 581 474 645 511 
823 9 186 821 604 360 567 388 733 502 724 
824 9 502 797 363 724 776 212 733 567 764 
825 9 17 131 416 478 481 725 755 784 529 
826 7 840 822 48 581 474 566 511 
827 9 92 564 833 582 670 546 589 405 754 
828 7 488 719 618 721 275 498 790 
829 8 685 443 676 679 752 293 477 625 
830 9 29 577 772 722 338 636 723 613 493 
831 7 853 817 572 672 771 727 228 
832 9 519 388 604 425 444 730 788 654 11 
833 9 582 564 92 754 861 827 351 475 575 
834 8 680 515 70 459 696 780 596 329 
835 8 621 250 763 400 192 729 375 648 
836 9 145 385 230 138 204 254 773 241 556 
837 9 809 845 217 740 818 531 266 658 300 
838 9 633 20 779 109 110 174 218 605 27 
839 9 703 847 104 562 451 674 313 523 368 
840 8 826 822 48 581 474 511 566 408 
841 9 154 293 752 477 679 768 562 685 523 
842 8 387 534 642 38 761 598 715 804 
843 9 348 336 53 453 568 86 497 227 751 
844 9 620 339 554 404 128 548 655 804 505 
845 9 740 837 809 590 818 506 266 634 762 
846 9 283 755 794 481 671 172 126 612 17 
847 9 313 507 839 34 368 513 311 84 703 
848 9 859 351 608 811 112 495 861 475 754 
849 9 666 637 852 479 267 369 506 580 548 
850 9 464 472 490 122 597 408 153 504 581 
851 8 559 742 822 826 840 48 474 566 
852 9 637 849 666 267 479 506 762 548 655 
853 7 672 831 817 771 228 556 737 
854 9 533 242 105 632 272 288 411 442 636 
855 9 39 792 245 484 501 728 574 862 569 
856 9 136 412 709 319 3 236 52 766 442 
857 9 144 626 641 803 443 46 477 808 753 
858 9 787 432 571 557 93 281 551 286 774 
859 9 608 848 112 811 537 351 460 495 622 
860 9 100 137 304 415 503 182 286 229 68 
861 9 754 351 833 582 495 848 475 575 564 
862 9 744 245 484 419 520 855 501 146 728 
863 8 494 534 387 598 842 369 38 642 
DEPOT_SECTION
   1
   -1
EOF
