NAME :  X-n916-kX-w183-c11.cctp
COMMENT : 	Adapted by Maziero, Usberti and Cavellucci from the Uchoa, Pecin, Pessoa, Poggi, Subramanian, and Vidal (2013)
TYPE :  CCTP
DIMENSION :    737
EDGE_WEIGHT_TYPE : 	EUC_2D	
CAPACITY : 	33
VERTICES_WITHIN_COVERAGE :  11
VERTICES_WITH_DEMAND : 	183
NODE_COORD_SECTION
1 0 0
2 471 44
3 63 475
4 766 504
5 895 595
6 816 377
7 462 590
8 997 596
9 775 993
10 16 97
11 839 348
12 558 896
13 423 912
14 169 411
15 75 602
16 402 52
17 388 208
18 202 39
19 510 841
20 555 484
21 920 633
22 369 718
23 432 696
24 624 872
25 472 323
26 753 701
27 584 440
28 292 665
29 202 310
30 764 255
31 662 486
32 822 575
33 469 13
34 640 165
35 814 886
36 554 82
37 336 745
38 950 229
39 142 835
40 407 932
41 69 205
42 86 764
43 202 165
44 376 632
45 639 987
46 775 98
47 503 855
48 38 960
49 215 73
50 566 78
51 4 517
52 44 457
53 676 337
54 338 568
55 623 911
56 626 931
57 97 43
58 799 942
59 725 430
60 93 953
61 264 347
62 986 595
63 631 614
64 331 362
65 158 793
66 760 436
67 115 641
68 307 764
69 469 817
70 315 388
71 906 830
72 564 25
73 88 246
74 671 892
75 181 139
76 723 784
77 609 798
78 174 403
79 76 671
80 984 939
81 830 579
82 3 893
83 176 164
84 625 158
85 249 590
86 663 347
87 21 500
88 501 372
89 572 218
90 483 270
91 604 201
92 548 281
93 205 745
94 125 178
95 870 931
96 276 846
97 759 839
98 79 105
99 218 992
100 277 797
101 545 62
102 161 102
103 1 827
104 719 128
105 80 366
106 16 732
107 24 521
108 848 600
109 585 594
110 618 577
111 44 300
112 489 239
113 479 978
114 768 731
115 274 30
116 546 837
117 890 640
118 594 308
119 878 716
120 498 448
121 145 96
122 54 935
123 473 5
124 906 899
125 277 752
126 435 254
127 630 686
128 905 275
129 521 401
130 850 425
131 374 186
132 712 433
133 814 730
134 740 622
135 681 74
136 120 490
137 297 816
138 376 534
139 982 560
140 1 332
141 815 625
142 356 868
143 659 994
144 804 110
145 415 517
146 106 844
147 549 366
148 57 742
149 848 739
150 381 700
151 442 808
152 867 408
153 67 930
154 763 186
155 581 91
156 416 56
157 729 620
158 163 73
159 160 129
160 468 902
161 694 730
162 319 644
163 831 476
164 863 921
165 524 71
166 299 197
167 193 823
168 18 360
169 987 845
170 998 548
171 302 506
172 432 229
173 550 142
174 637 527
175 168 0
176 178 804
177 888 448
178 270 481
179 250 421
180 410 125
181 373 134
182 275 772
183 965 25
184 858 502
185 587 967
186 178 710
187 331 4
188 811 598
189 560 886
190 712 512
191 216 974
192 528 75
193 840 109
194 980 512
195 90 78
196 788 322
197 665 990
198 400 702
199 131 24
200 238 610
201 392 541
202 40 394
203 713 806
204 823 571
205 863 568
206 145 20
207 509 893
208 629 447
209 717 78
210 525 774
211 695 620
212 721 979
213 957 457
214 594 451
215 514 110
216 899 994
217 772 937
218 877 942
219 533 82
220 399 742
221 273 688
222 360 780
223 650 339
224 272 771
225 362 515
226 716 823
227 307 627
228 787 639
229 28 212
230 38 119
231 130 518
232 535 632
233 832 952
234 874 955
235 106 653
236 440 485
237 73 329
238 934 692
239 638 325
240 126 820
241 382 958
242 884 840
243 706 90
244 424 652
245 216 964
246 841 543
247 863 886
248 361 490
249 266 457
250 179 817
251 430 197
252 512 412
253 111 1
254 811 631
255 366 758
256 227 575
257 398 905
258 897 410
259 285 104
260 245 215
261 569 401
262 159 310
263 20 90
264 212 39
265 13 641
266 855 610
267 95 571
268 780 936
269 63 84
270 240 801
271 977 62
272 405 258
273 995 89
274 334 695
275 265 783
276 988 790
277 68 368
278 497 712
279 676 581
280 625 400
281 791 162
282 351 55
283 572 827
284 584 930
285 482 749
286 110 723
287 230 362
288 942 467
289 540 63
290 202 848
291 161 162
292 272 788
293 137 87
294 177 274
295 324 842
296 229 434
297 149 697
298 916 866
299 634 157
300 42 213
301 655 154
302 123 1000
303 460 506
304 21 698
305 435 615
306 120 425
307 54 726
308 475 624
309 923 980
310 391 94
311 463 618
312 568 659
313 999 831
314 719 93
315 796 547
316 123 595
317 515 939
318 550 757
319 898 486
320 695 337
321 40 727
322 217 284
323 910 245
324 536 956
325 262 332
326 91 91
327 697 755
328 894 726
329 919 962
330 909 22
331 253 535
332 703 346
333 416 895
334 330 596
335 475 780
336 365 803
337 844 845
338 802 755
339 77 246
340 266 819
341 759 835
342 71 176
343 244 82
344 564 436
345 749 216
346 30 624
347 677 208
348 980 257
349 582 317
350 421 870
351 183 454
352 442 766
353 875 497
354 217 979
355 867 873
356 280 473
357 582 382
358 35 597
359 527 786
360 991 617
361 448 513
362 581 780
363 415 498
364 964 211
365 886 296
366 696 784
367 102 90
368 227 699
369 76 258
370 705 580
371 752 531
372 246 128
373 834 350
374 838 453
375 809 825
376 468 650
377 523 626
378 110 964
379 422 180
380 940 246
381 513 333
382 446 78
383 992 939
384 58 941
385 24 763
386 17 536
387 70 381
388 142 464
389 621 976
390 878 960
391 286 774
392 349 202
393 841 520
394 134 20
395 107 804
396 278 847
397 103 639
398 555 920
399 427 289
400 987 735
401 608 750
402 471 58
403 482 339
404 319 913
405 966 994
406 288 458
407 225 777
408 501 384
409 3 25
410 259 851
411 632 304
412 180 66
413 300 608
414 591 113
415 569 817
416 165 31
417 137 397
418 820 139
419 858 354
420 846 618
421 0 438
422 308 337
423 772 594
424 684 931
425 76 667
426 750 130
427 538 354
428 725 339
429 758 410
430 664 460
431 90 978
432 898 281
433 301 417
434 480 247
435 441 215
436 749 43
437 119 871
438 77 906
439 30 919
440 481 281
441 680 2
442 262 513
443 291 346
444 297 568
445 248 393
446 41 933
447 32 959
448 535 246
449 790 155
450 351 192
451 402 223
452 125 815
453 542 231
454 356 901
455 50 932
456 456 587
457 249 311
458 993 242
459 499 264
460 801 81
461 740 343
462 947 194
463 22 856
464 120 843
465 285 767
466 62 901
467 923 284
468 647 167
469 284 481
470 69 955
471 226 446
472 681 214
473 10 764
474 303 406
475 306 364
476 443 329
477 256 544
478 99 834
479 246 156
480 244 466
481 744 203
482 795 267
483 484 108
484 152 734
485 403 167
486 80 925
487 918 400
488 122 356
489 970 207
490 481 228
491 159 405
492 73 851
493 142 807
494 631 386
495 927 39
496 374 989
497 269 417
498 568 286
499 936 279
500 869 414
501 197 686
502 187 768
503 369 80
504 166 764
505 908 249
506 224 440
507 337 486
508 220 794
509 74 791
510 53 1000
511 787 73
512 787 362
513 750 177
514 547 281
515 172 865
516 24 961
517 887 262
518 687 320
519 156 826
520 310 852
521 239 787
522 63 961
523 297 604
524 122 849
525 500 280
526 308 485
527 216 326
528 788 310
529 120 859
530 952 262
531 50 951
532 521 285
533 566 179
534 51 802
535 234 720
536 297 461
537 602 414
538 568 274
539 363 614
540 262 418
541 266 562
542 21 904
543 978 188
544 464 235
545 436 737
546 85 979
547 883 290
548 553 441
549 118 745
550 494 238
551 348 368
552 281 341
553 437 236
554 231 337
555 479 274
556 589 30
557 486 301
558 261 354
559 169 825
560 934 247
561 199 952
562 491 210
563 547 203
564 266 398
565 810 114
566 366 344
567 138 699
568 121 678
569 458 199
570 150 301
571 520 532
572 185 796
573 184 339
574 113 864
575 254 377
576 785 101
577 944 220
578 392 85
579 223 275
580 72 966
581 451 269
582 272 419
583 213 987
584 542 240
585 435 278
586 590 292
587 816 399
588 10 893
589 932 281
590 431 819
591 915 417
592 248 506
593 507 957
594 610 313
595 104 710
596 445 305
597 91 921
598 530 28
599 772 457
600 568 311
601 420 267
602 721 109
603 843 135
604 649 30
605 792 295
606 817 187
607 310 398
608 108 980
609 113 943
610 627 268
611 469 247
612 293 476
613 48 802
614 299 571
615 177 983
616 247 818
617 485 205
618 319 377
619 212 832
620 506 64
621 277 359
622 325 320
623 720 133
624 82 861
625 585 222
626 496 113
627 131 436
628 280 364
629 175 812
630 678 290
631 960 590
632 927 210
633 287 535
634 494 399
635 563 224
636 227 316
637 234 332
638 345 175
639 125 846
640 915 307
641 420 185
642 904 280
643 63 942
644 234 500
645 64 844
646 16 979
647 746 95
648 110 822
649 874 368
650 735 65
651 343 882
652 273 905
653 16 952
654 698 290
655 797 162
656 836 112
657 519 268
658 392 244
659 822 706
660 567 222
661 569 663
662 254 984
663 939 225
664 252 380
665 64 517
666 875 542
667 786 222
668 205 294
669 408 460
670 189 798
671 93 968
672 296 871
673 497 523
674 329 391
675 80 869
676 548 355
677 630 125
678 322 213
679 897 281
680 41 883
681 474 446
682 221 764
683 917 309
684 390 957
685 435 336
686 862 457
687 144 827
688 131 239
689 396 258
690 484 279
691 252 836
692 413 905
693 223 490
694 775 116
695 932 226
696 807 379
697 254 997
698 332 319
699 808 87
700 549 147
701 517 226
702 456 720
703 185 820
704 18 846
705 50 970
706 370 207
707 46 964
708 541 303
709 206 314
710 877 322
711 533 279
712 307 397
713 205 953
714 390 508
715 561 527
716 709 161
717 71 969
718 47 963
719 786 186
720 960 209
721 698 347
722 923 254
723 408 243
724 677 170
725 510 245
726 39 922
727 37 1000
728 112 334
729 133 830
730 107 466
731 798 121
732 224 769
733 503 237
734 294 796
735 521 264
736 113 820
737 996 220
DEMAND_SECTION
2 8
3 6
4 7
5 6
6 10
7 10
8 5
9 7
10 8
11 8
12 6
13 6
14 6
15 6
16 5
17 8
18 6
19 10
20 9
21 8
22 9
23 6
24 10
25 10
26 6
27 6
28 6
29 9
30 9
31 10
32 9
33 6
34 5
35 5
36 6
37 10
38 8
39 5
40 6
41 9
42 8
43 7
44 8
45 6
46 7
47 6
48 5
49 7
50 9
51 8
52 8
53 10
54 8
55 7
56 10
57 6
58 5
59 6
60 10
61 7
62 6
63 7
64 8
65 9
66 9
67 9
68 6
69 10
70 7
71 9
72 5
73 7
74 9
75 6
76 5
77 9
78 6
79 5
80 5
81 5
82 7
83 10
84 10
85 6
86 9
87 7
88 10
89 10
90 7
91 10
92 7
93 9
94 5
95 9
96 8
97 7
98 8
99 10
100 10
101 7
102 10
103 6
104 6
105 5
106 10
107 10
108 6
109 5
110 7
111 7
112 5
113 5
114 7
115 9
116 9
117 8
118 5
119 7
120 9
121 7
122 7
123 9
124 5
125 9
126 5
127 6
128 6
129 8
130 10
131 7
132 8
133 9
134 10
135 6
136 8
137 7
138 6
139 7
140 5
141 5
142 6
143 8
144 10
145 10
146 8
147 10
148 9
149 6
150 10
151 5
152 5
153 7
154 5
155 10
156 6
157 8
158 8
159 5
160 9
161 6
162 7
163 7
164 6
165 9
166 8
167 10
168 10
169 6
170 9
171 9
172 5
173 5
174 8
175 10
176 6
177 8
178 5
179 7
180 5
181 5
182 10
183 9
184 10
COVERAGE_SECTION
2 11 402 33 123 620 382 156 165 598 192 483 16 
3 11 52 665 730 87 136 107 51 421 306 386 627 
4 11 371 599 315 190 66 163 393 59 246 204 374 
5 11 205 266 21 117 108 420 666 631 81 246 32 
6 11 696 587 373 512 11 419 130 649 152 196 500 
7 11 456 311 308 305 376 377 244 673 361 571 232 
8 11 62 360 631 139 170 21 194 5 238 117 666 
9 11 58 212 217 268 233 234 390 197 424 95 35 
10 11 263 230 269 98 409 326 195 367 342 57 229 
11 10 373 419 6 649 696 710 512 587 196 528 
12 11 189 398 284 207 116 317 324 55 47 24 283 
13 11 692 333 40 257 350 160 684 241 454 142 651 
14 10 78 491 417 351 627 306 388 506 296 471 
15 11 267 358 397 316 346 67 235 425 79 265 665 
16 11 156 578 310 503 282 382 2 402 180 33 123 
17 11 706 451 131 658 392 641 450 723 251 379 485 
18 11 264 412 49 416 158 175 206 343 394 115 199 
19 11 47 116 69 207 359 283 415 189 210 335 12 
20 11 548 715 344 214 27 571 120 673 208 252 261 
21 11 117 5 631 238 266 360 62 420 108 8 205 
22 11 150 198 220 255 274 37 222 23 545 68 336 
23 11 198 702 545 244 150 220 376 22 278 352 285 
24 11 55 74 56 189 283 12 284 77 415 398 424 
25 11 403 557 476 596 685 381 440 690 555 525 90 
26 11 114 161 133 659 228 338 327 134 157 76 254 
27 11 214 344 548 537 261 208 20 280 357 494 129 
28 11 221 162 227 274 413 523 368 200 334 535 85 
29 11 709 668 527 636 322 573 637 554 579 262 294 
30 10 482 667 345 605 481 528 154 196 719 654 
31 11 430 174 208 190 132 214 59 27 280 537 279 
32 11 204 81 188 108 246 315 205 266 420 141 423 
33 11 123 2 402 598 620 156 382 16 165 192 289 
34 11 468 299 84 301 724 677 91 347 472 716 414 
35 11 247 337 355 58 164 268 375 217 233 95 97 
36 11 50 219 101 289 192 155 165 414 215 620 72 
37 11 255 68 222 22 274 465 391 125 220 150 336 
38 11 577 663 695 380 720 364 560 489 632 530 462 
39 11 687 729 519 639 240 464 524 452 493 559 529 
40 11 13 257 692 684 241 333 454 350 496 160 651 
41 11 300 342 229 339 73 369 94 688 230 111 98 
42 11 509 148 549 395 286 307 534 613 595 321 385 
43 11 83 75 291 479 159 372 260 102 94 121 49 
44 11 539 244 162 334 305 150 227 54 198 274 413 
45 11 143 389 197 185 56 424 55 284 212 74 398 
46 11 576 694 511 647 144 460 731 699 565 426 650 
47 11 19 207 116 69 160 189 12 359 283 415 151 
48 11 447 707 718 516 531 705 653 522 446 384 646 
49 11 343 264 18 412 158 102 372 416 115 75 121 
50 11 36 155 101 289 219 192 165 414 72 556 215 
51 11 107 386 87 665 3 52 421 358 267 346 15 
52 11 3 421 87 202 665 730 107 51 387 306 136 
53 11 86 320 518 721 223 332 239 630 428 654 411 
54 11 334 614 444 138 539 413 523 225 201 633 227 
55 11 56 24 284 74 424 389 12 185 189 398 45 
56 11 55 284 389 185 45 424 24 74 143 197 398 
57 11 195 199 253 394 367 326 206 269 293 98 416 
58 11 268 217 233 9 35 164 95 234 218 390 247 
59 11 132 66 429 599 430 190 31 4 332 721 461 
60 11 671 378 609 470 431 580 546 717 486 522 608 
61 11 558 325 552 621 628 443 575 554 637 664 287 
62 11 8 360 631 139 170 21 194 5 117 238 666 
63 11 110 109 279 211 127 312 661 370 174 157 232 
64 11 551 618 475 674 70 422 566 607 622 712 443 
65 11 493 176 629 572 504 670 250 519 559 687 502 
66 11 599 429 59 132 587 4 696 512 374 6 163 
67 11 397 235 568 316 425 79 15 567 297 595 267 
68 11 465 391 125 182 37 734 224 292 100 275 137 
69 11 151 335 590 19 47 352 359 285 210 350 116 
70 9 607 618 712 674 474 475 64 433 551 
71 11 242 298 355 337 124 247 169 276 313 375 164 
72 11 556 598 101 289 50 36 165 192 219 155 620 
73 11 339 369 688 41 300 229 111 342 94 570 237 
74 11 424 24 55 56 226 284 203 197 389 45 212 
75 11 159 83 291 43 102 121 372 479 94 158 293 
76 11 203 366 327 226 161 341 97 114 338 26 375 
77 11 362 415 283 401 318 116 24 359 210 366 327 
78 10 14 491 417 351 627 306 506 296 573 471 
79 11 425 235 397 568 595 67 307 304 286 346 321 
80 11 383 405 329 309 124 169 298 216 218 390 313 
81 11 32 204 188 108 205 246 266 420 315 141 254 
82 9 588 542 439 680 463 726 704 446 466 
83 11 291 75 43 159 94 102 479 121 372 260 293 
84 11 299 34 468 301 677 91 724 414 533 347 625 
85 11 200 256 541 477 523 444 614 413 331 633 227 
86 11 223 53 239 320 721 518 332 494 411 630 428 
87 11 107 51 386 665 3 52 421 730 358 136 267 
88 10 408 634 129 403 252 381 427 147 676 25 
89 10 660 635 625 563 453 91 584 533 448 538 
90 11 555 690 440 459 525 434 611 557 112 581 550 
91 11 625 89 660 533 635 84 34 299 468 563 301 
92 10 514 711 498 538 708 532 657 735 600 448 
93 11 682 502 732 407 535 504 186 368 508 484 521 
94 11 291 83 342 159 688 41 75 73 43 339 102 
95 11 164 218 234 390 233 247 124 329 355 216 35 
96 11 396 410 691 340 672 520 137 616 295 100 734 
97 11 341 226 375 203 76 35 366 337 338 217 268 
98 11 326 269 367 195 230 263 293 10 57 121 342 
99 9 583 354 191 245 697 662 713 615 561 
100 11 292 734 275 182 340 391 224 137 465 270 616 
101 11 289 192 36 165 219 50 598 620 72 155 556 
102 11 121 159 293 158 412 75 291 367 49 83 326 
103 10 704 463 613 534 473 645 82 588 385 680 
104 11 623 602 426 716 314 243 647 209 694 513 724 
105 11 277 387 237 488 728 202 168 417 306 111 140 
106 11 321 385 473 304 307 148 42 613 534 509 79 
107 11 386 51 87 665 3 52 358 421 267 15 730 
108 11 266 420 81 205 32 188 204 141 5 254 246 
109 11 110 63 232 312 377 661 715 174 571 279 127 
110 11 109 63 174 279 715 370 211 312 661 232 31 
111 11 237 369 140 339 168 73 277 105 728 387 300 
112 11 550 434 490 733 611 725 544 459 562 701 90 
113 11 593 317 324 160 40 13 207 684 398 692 241 
114 11 26 338 133 659 76 161 327 149 366 203 228 
115 11 343 187 264 18 49 259 282 412 372 503 416 
116 11 283 415 19 47 189 359 12 210 207 362 77 
117 11 21 5 266 420 108 238 141 119 205 254 81 
118 11 349 586 594 600 498 411 538 239 610 92 708 
119 11 328 149 659 238 133 117 338 21 420 254 266 
120 11 681 252 634 129 548 408 20 344 236 303 673 
121 11 293 102 158 159 367 412 326 75 195 98 291 
122 11 455 384 643 446 153 531 726 470 486 522 439 
123 11 33 2 402 598 620 156 382 165 16 192 289 
124 11 298 247 355 95 164 218 242 234 329 390 71 
125 11 465 182 224 391 68 275 292 100 734 521 535 
126 11 553 601 581 585 172 723 272 544 611 399 435 
127 11 661 312 401 63 161 211 327 109 362 318 232 
128 11 642 432 679 467 517 505 547 365 589 722 323 
129 11 252 408 634 88 147 261 427 548 120 676 344 
130 11 500 152 374 686 587 177 258 163 6 649 696 
131 11 706 450 17 392 638 485 451 641 379 181 251 
132 11 59 66 429 430 599 31 190 208 332 721 4 
133 11 659 338 149 114 119 26 328 228 375 254 141 
134 11 157 423 211 228 370 254 141 188 279 26 371 
135 11 243 209 314 602 604 650 104 647 623 441 677 
136 9 730 231 388 627 3 665 306 351 52 
137 11 734 100 340 396 96 295 292 520 391 275 182 
138 11 201 225 714 145 248 54 363 507 361 334 171 
139 11 170 62 631 8 194 360 5 21 288 213 666 
140 11 168 111 237 202 277 387 105 369 421 728 339 
141 11 254 188 228 420 108 266 81 32 423 204 134 
142 11 651 454 295 520 257 404 672 350 333 336 692 
143 11 197 45 389 212 424 56 185 55 284 74 9 
144 10 565 731 576 699 460 694 46 656 418 193 
145 10 363 714 201 361 236 138 303 225 669 248 
146 11 478 464 524 639 529 574 648 736 624 437 729 
147 11 676 427 357 261 129 88 381 408 600 252 349 
148 11 307 321 42 385 106 473 509 286 304 595 534 
149 11 133 119 659 328 338 114 375 238 26 337 242 
150 11 198 22 220 274 23 255 37 244 545 44 702 
151 11 590 69 352 335 350 285 545 19 47 336 220 
152 11 500 130 258 649 177 591 686 487 587 374 419 
153 11 643 122 384 486 455 470 438 446 597 531 466 
154 11 513 719 481 345 281 449 655 667 606 426 716 
155 11 50 414 36 101 219 289 192 165 173 677 556 
156 11 16 382 578 310 503 402 2 282 33 180 123 
157 11 134 211 370 423 228 279 254 26 188 141 371 
158 11 412 102 121 293 416 18 49 159 206 199 264 
159 11 75 102 291 121 83 293 43 158 94 412 367 
160 11 207 13 333 692 350 47 317 593 40 257 19 
161 11 327 366 76 26 114 127 203 401 226 77 211 
162 11 227 28 413 523 334 274 539 44 221 614 54 
163 11 374 686 184 393 353 130 599 177 246 319 4 
164 11 95 218 247 234 390 233 124 355 35 58 329 
165 11 192 219 289 620 101 36 215 50 598 626 483 
166 9 678 392 638 450 260 479 706 131 372 
167 11 703 250 619 629 176 559 670 290 572 519 508 
168 11 140 202 277 387 105 237 111 421 728 52 488 
169 11 313 276 298 71 80 383 124 242 400 355 247 
170 11 139 194 8 62 631 360 288 213 5 21 319 
171 10 526 469 612 633 356 507 178 442 536 406 
172 11 553 435 126 723 451 251 544 272 569 601 611 
173 10 700 533 215 414 36 155 563 626 219 50 
174 11 31 110 279 430 190 715 208 109 370 63 214 
175 11 206 416 394 199 18 253 264 412 158 57 49 
176 11 629 572 250 670 703 65 559 167 519 493 502 
177 11 686 258 319 500 591 130 152 374 353 288 487 
178 11 356 469 249 612 406 480 442 592 536 526 171 
179 8 540 497 582 296 445 564 506 471 
180 10 310 181 485 578 379 382 503 641 156 131 
181 11 180 310 485 638 131 578 503 450 379 641 392 
182 11 224 391 465 275 292 125 100 734 68 521 270 
183 4 271 495 330 273 
184 11 353 393 163 319 666 246 686 374 177 205 130 
185 11 389 284 324 56 45 398 55 12 143 317 197 
186 11 501 297 484 567 93 368 504 535 502 568 286 
187 11 282 115 503 16 156 578 310 259 343 264 18 
188 11 32 81 141 204 254 108 423 420 266 228 315 
189 11 12 398 284 116 207 283 47 24 19 55 317 
190 11 371 4 31 370 430 174 279 132 599 59 66 
191 9 354 245 583 99 713 561 662 615 697 
192 11 165 219 289 101 620 36 50 215 598 626 155 
193 6 656 603 565 144 418 699 
194 9 170 139 288 213 631 62 8 319 353 
195 11 326 367 269 98 57 293 121 230 199 263 158 
196 10 528 605 512 461 373 482 11 696 6 428 
197 11 143 45 389 212 424 56 185 55 74 284 9 
198 11 150 23 22 220 545 244 702 255 274 44 37 
199 11 394 206 253 416 57 175 158 293 412 195 367 
200 11 85 256 541 523 413 477 227 444 614 331 28 
201 11 138 145 714 225 363 54 248 361 236 303 507 
202 11 387 277 168 105 421 52 140 237 3 306 488 
203 11 226 76 366 327 341 97 161 114 74 375 338 
204 11 32 81 188 246 315 108 205 266 420 393 141 
205 11 666 246 81 108 204 5 32 266 393 420 188 
206 11 394 199 416 175 253 57 158 412 18 293 264 
207 11 47 160 317 12 189 19 398 593 116 324 284 
208 11 214 430 537 27 280 31 494 344 261 548 174 
209 11 314 243 650 602 647 135 436 104 623 46 426 
210 11 359 318 285 335 362 415 116 278 19 69 283 
211 11 157 370 279 134 63 423 110 127 228 26 371 
212 11 9 197 424 143 217 268 45 58 74 389 56 
213 8 288 591 194 319 487 177 258 353 
214 11 27 344 208 537 548 20 261 280 357 430 494 
215 10 626 483 219 192 165 620 173 36 700 289 
216 11 309 329 390 234 218 405 95 233 164 124 80 
217 11 268 58 9 233 35 212 424 164 95 97 341 
218 11 95 234 390 164 233 329 124 216 247 309 355 
219 11 192 165 289 36 101 620 50 215 626 155 598 
220 11 255 545 22 198 150 352 222 23 702 37 336 
221 11 28 368 535 274 125 162 227 501 465 68 224 
222 11 255 336 37 220 68 22 734 295 137 391 465 
223 11 86 239 53 411 518 320 594 721 494 332 630 
224 11 182 275 391 465 292 125 100 734 68 521 270 
225 10 138 248 714 507 201 145 363 54 171 526 
226 11 203 76 366 341 97 327 74 375 161 24 114 
227 11 413 162 523 334 28 539 614 444 54 44 85 
228 11 254 141 423 188 134 157 420 26 108 32 81 
229 11 300 41 342 339 369 73 111 230 94 688 10 
230 11 10 263 98 269 326 195 342 367 41 229 300 
231 7 136 388 730 267 665 316 3 
232 11 377 312 661 308 109 376 311 7 278 456 63 
233 11 58 234 95 164 218 390 268 217 35 9 247 
234 11 390 218 95 164 233 216 329 309 124 247 58 
235 11 397 67 568 425 79 567 595 15 316 297 286 
236 8 363 303 361 145 669 681 714 120 
237 11 105 277 728 111 387 488 168 369 140 202 570 
238 11 328 21 119 117 400 360 149 5 631 62 276 
239 11 223 411 594 86 53 118 518 630 349 320 586 
240 11 452 729 736 648 687 493 39 464 395 639 524 
241 11 684 496 40 257 692 13 454 333 404 651 142 
242 11 71 355 337 298 247 124 375 35 164 95 218 
243 11 314 209 602 135 650 104 647 623 426 436 46 
244 11 305 376 23 44 311 198 308 150 456 539 7 
245 8 191 354 713 561 583 99 615 662 
246 11 393 204 205 666 32 81 184 315 108 353 188 
247 11 355 164 124 337 95 35 242 298 218 234 71 
248 7 507 225 714 138 526 363 669 
249 9 356 406 178 480 469 536 612 582 179 
250 11 629 703 176 559 167 670 572 519 65 619 687 
251 10 641 379 435 569 172 451 485 553 17 544 
252 11 129 634 408 120 88 548 681 344 261 147 427 
253 11 199 394 206 57 175 416 195 158 367 293 326 
254 11 141 228 188 420 108 266 423 81 32 204 134 
255 11 222 37 220 22 336 68 150 198 274 545 352 
256 7 85 200 541 477 331 444 442 
257 11 692 333 13 40 350 454 684 241 142 651 160 
258 8 591 487 500 152 177 649 130 686 
259 11 372 343 479 115 49 282 503 181 638 166 264 
260 7 166 479 579 43 322 678 83 
261 11 357 344 537 147 27 548 129 676 214 280 427 
262 11 570 573 294 29 709 668 728 488 527 322 636 
263 11 10 230 269 98 409 195 326 367 57 342 293 
264 11 18 49 412 416 343 175 158 115 206 394 102 
265 11 346 358 304 425 79 15 321 397 106 235 307 
266 11 108 420 81 5 141 205 117 188 32 254 204 
267 11 15 316 665 231 358 397 67 235 346 136 386 
268 11 217 58 233 9 35 212 164 95 234 424 218 
269 11 98 195 326 367 230 263 10 57 293 121 409 
270 11 521 616 508 407 275 340 292 732 100 691 619 
271 4 273 183 495 330 
272 10 689 723 601 658 126 451 585 399 553 172 
273 3 271 183 495 
274 11 22 150 37 28 162 221 198 255 227 68 44 
275 11 292 224 182 100 391 465 521 270 734 125 340 
276 11 313 169 400 71 298 238 328 242 119 124 355 
277 11 105 387 202 237 168 488 728 111 417 140 306 
278 11 285 702 545 23 210 376 318 335 352 359 661 
279 11 370 211 63 110 157 174 134 190 371 109 31 
280 11 494 537 208 357 261 27 214 86 223 344 430 
281 9 655 449 719 606 154 418 731 513 694 
282 11 503 16 578 187 310 156 115 181 259 180 382 
283 11 415 116 77 362 189 359 19 24 12 210 318 
284 11 398 185 56 12 55 189 324 389 24 317 45 
285 11 335 702 278 352 545 210 359 318 69 151 23 
286 11 595 549 567 484 568 297 42 148 307 79 425 
287 10 554 575 664 637 558 445 61 527 325 636 
288 9 213 319 177 591 194 487 258 353 686 
289 11 101 192 165 219 36 50 620 598 72 155 215 
290 9 619 167 703 515 250 559 629 176 519 
291 11 83 75 159 94 43 102 121 293 688 479 158 
292 11 275 100 182 224 391 734 465 340 521 270 125 
293 11 121 102 158 367 326 159 195 412 57 98 199 
294 11 668 570 262 322 29 579 709 688 527 573 636 
295 11 520 137 672 142 651 396 96 734 336 340 100 
296 11 506 471 179 480 540 497 249 445 582 351 564 
297 11 567 186 568 484 286 595 501 549 235 67 504 
298 11 124 71 242 355 247 169 337 164 95 218 313 
299 11 84 34 468 301 677 724 91 414 347 533 472 
300 11 229 41 342 339 369 73 111 94 688 230 98 
301 11 468 34 299 724 84 677 716 347 472 623 91 
302 6 608 378 431 546 671 60 
303 11 361 236 673 145 363 681 571 120 669 714 201 
304 11 106 321 307 148 265 79 425 385 473 346 595 
305 11 311 456 7 244 308 376 44 539 23 201 377 
306 11 627 417 730 491 388 14 78 136 387 351 488 
307 11 321 148 106 304 385 42 595 286 473 79 425 
308 11 311 376 7 305 456 377 244 232 23 278 702 
309 11 329 216 405 390 234 218 95 80 383 124 164 
310 11 578 503 180 16 181 156 282 382 485 402 379 
311 11 308 7 305 376 456 244 377 232 23 44 278 
312 11 661 232 377 109 127 63 278 110 308 401 318 
313 11 169 276 298 71 400 383 80 124 242 355 247 
314 11 243 209 602 647 650 104 623 135 426 46 436 
315 11 204 32 246 81 371 4 393 188 423 205 108 
316 10 267 67 397 15 235 231 568 425 358 79 
317 11 593 324 398 207 113 160 12 189 284 185 47 
318 11 210 359 362 401 415 285 278 77 283 335 116 
319 11 353 177 184 686 288 666 213 393 163 374 591 
320 11 721 332 53 518 428 86 223 461 654 630 239 
321 11 307 148 106 304 385 473 42 595 79 286 425 
322 9 579 668 29 709 636 294 457 527 637 
323 8 505 722 560 517 695 128 380 663 
324 11 317 593 398 185 284 113 12 207 189 160 389 
325 10 61 552 558 457 637 554 621 443 628 636 
326 11 367 195 98 269 293 57 121 230 102 263 158 
327 11 161 366 76 203 226 114 26 401 127 77 341 
328 11 119 149 238 659 133 117 400 338 21 71 242 
329 11 309 216 390 234 218 405 95 124 80 164 383 
330 2 495 183 
331 10 477 442 592 541 633 644 256 693 85 444 
332 11 721 320 428 53 518 461 86 223 654 630 239 
333 11 692 13 257 350 40 160 454 142 684 241 651 
334 11 54 413 523 539 227 614 444 162 44 541 633 
335 11 285 352 69 151 210 359 545 590 702 19 278 
336 11 222 255 295 37 142 590 137 68 220 734 520 
337 11 355 242 375 247 35 71 298 164 124 97 341 
338 11 133 114 149 659 375 26 76 119 341 97 328 
339 11 73 369 41 300 688 229 111 342 94 237 570 
340 11 616 691 100 96 396 137 270 292 410 275 734 
341 11 97 226 375 203 76 35 366 337 338 327 217 
342 11 41 300 94 229 230 339 98 73 369 326 688 
343 11 49 372 259 264 18 115 412 479 158 75 102 
344 11 548 27 214 261 537 20 129 252 357 208 120 
345 11 481 154 667 513 30 719 281 472 716 482 347 
346 11 265 358 15 425 79 304 397 235 267 67 386 
347 11 472 724 468 34 716 301 299 481 84 345 91 
348 5 458 530 737 38 380 
349 11 118 600 586 594 498 708 538 92 514 676 411 
350 11 333 692 13 257 590 160 40 142 151 69 454 
351 10 388 506 471 14 296 78 693 491 627 480 
352 11 545 335 151 285 702 220 590 69 23 255 198 
353 11 184 319 393 686 666 163 177 246 374 205 288 
354 9 191 583 99 245 713 561 662 615 697 
355 11 247 337 242 124 164 298 35 71 95 218 375 
356 8 469 178 612 406 249 536 526 480 
357 11 261 147 537 676 280 494 427 344 27 129 349 
358 11 346 15 265 386 267 107 397 425 79 665 51 
359 11 210 318 335 415 116 362 19 285 283 69 47 
360 11 8 62 631 139 170 21 238 5 117 194 400 
361 11 303 236 145 363 673 714 201 669 681 456 571 
362 11 77 318 415 401 283 359 210 116 19 24 285 
363 10 145 714 236 361 669 303 201 138 248 225 
364 10 720 489 577 38 462 543 663 737 695 632 
365 7 547 432 679 642 128 710 640 
366 11 76 203 327 226 161 341 97 77 114 401 26 
367 11 326 195 98 293 269 121 57 102 158 159 230 
368 11 535 501 221 186 93 682 732 28 125 297 407 
369 11 339 73 41 111 300 688 229 237 342 728 570 
370 11 279 211 157 134 190 371 423 63 174 110 4 
371 11 4 190 315 423 370 599 204 32 188 246 393 
372 11 479 259 343 43 49 75 83 159 166 260 102 
373 10 11 419 6 696 649 512 710 587 196 528 
374 11 163 686 130 177 500 184 152 353 587 599 393 
375 11 337 341 97 35 338 355 242 247 226 149 76 
376 11 308 311 244 305 23 7 377 456 278 232 702 
377 11 232 308 312 661 376 311 109 7 456 305 278 
378 7 608 671 60 609 431 546 302 
379 10 641 251 485 435 569 17 451 131 172 180 
380 11 560 722 38 530 663 695 577 323 505 499 589 
381 11 403 427 88 676 708 25 557 147 532 408 525 
382 11 402 156 2 483 16 578 310 180 626 620 33 
383 11 80 405 329 309 169 124 298 216 313 218 390 
384 11 643 122 455 531 153 470 446 522 718 707 486 
385 11 473 106 148 321 613 534 307 509 42 304 103 
386 11 107 51 87 665 358 3 52 267 15 346 421 
387 11 277 105 202 237 168 488 728 306 417 52 627 
388 10 627 136 730 351 306 231 14 491 417 78 
389 11 45 185 143 56 197 284 55 424 324 398 74 
390 11 234 218 95 216 329 164 233 309 124 247 58 
391 11 465 182 224 292 68 275 734 125 100 137 340 
392 11 450 706 638 678 131 17 166 451 658 485 181 
393 11 246 184 666 353 163 315 205 204 32 81 319 
394 11 199 206 253 416 175 57 158 412 293 18 195 
395 11 736 648 452 240 478 493 509 729 146 464 687 
396 11 96 410 691 340 672 520 137 616 295 100 734 
397 11 67 235 425 79 568 15 316 267 567 595 297 
398 11 12 284 189 324 317 207 185 593 55 56 47 
399 9 585 601 596 581 126 272 476 689 685 
400 11 276 238 328 313 169 119 360 21 71 117 8 
401 11 362 77 318 127 415 283 210 161 327 359 366 
402 11 2 382 620 33 483 123 156 165 192 626 219 
403 11 25 381 88 557 476 685 408 596 427 440 690 
404 10 454 651 652 672 142 520 295 241 396 257 
405 11 309 329 80 383 216 390 234 218 124 95 164 
406 7 536 356 612 249 469 178 526 
407 11 732 682 521 508 270 93 502 275 670 572 224 
408 10 88 634 129 252 427 403 147 381 676 120 
409 11 263 10 269 57 230 195 98 326 253 367 199 
410 11 691 96 396 340 616 672 520 619 137 270 652 
411 11 239 594 610 118 223 586 630 349 86 53 518 
412 11 158 18 49 416 102 264 121 293 206 199 394 
413 11 523 227 334 614 444 162 85 54 541 28 200 
414 11 155 677 50 36 173 700 84 299 219 101 34 
415 11 283 116 362 77 359 210 318 19 189 47 24 
416 11 206 175 394 199 18 412 158 264 253 293 49 
417 11 491 306 14 78 627 488 105 388 728 387 351 
418 9 603 565 731 656 144 655 449 193 281 
419 8 11 649 373 710 6 152 696 500 
420 11 266 108 141 254 188 81 32 117 204 205 5 
421 11 52 202 87 3 51 168 107 387 277 386 665 
422 10 443 622 475 552 698 64 621 628 618 61 
423 11 188 134 228 157 32 141 315 254 204 81 371 
424 11 74 56 212 197 55 143 45 389 24 217 268 
425 11 79 235 397 568 67 595 304 307 346 15 286 
426 11 694 623 104 647 602 46 576 449 513 314 731 
427 11 676 147 381 88 408 129 708 357 600 261 349 
428 11 461 332 721 320 518 53 654 86 196 512 630 
429 11 66 59 599 132 512 696 587 6 461 428 332 
430 11 31 208 132 59 190 214 174 280 537 494 27 
431 10 546 671 608 717 580 378 60 470 522 302 
432 9 679 642 128 547 365 517 467 640 505 
433 5 474 607 712 582 70 
434 11 611 112 550 490 544 90 459 733 555 725 690 
435 10 172 251 553 569 544 641 126 379 451 490 
436 7 650 209 511 647 314 46 243 
437 6 574 529 524 639 464 146 
438 4 466 486 597 153 
439 11 726 542 446 455 122 588 384 653 82 466 531 
440 11 690 555 90 525 557 459 581 434 611 532 657 
441 8 604 135 436 650 209 243 556 314 
442 11 592 331 644 477 178 633 469 171 356 693 612 
443 10 552 422 621 628 475 61 558 325 618 64 
444 11 614 541 633 523 413 54 334 477 85 331 227 
445 9 664 575 564 179 540 497 582 287 558 
446 11 455 726 122 439 384 531 643 153 48 447 653 
447 11 48 516 707 718 653 531 705 646 446 522 384 
448 10 584 453 735 725 657 701 711 733 635 92 
449 10 281 655 719 418 731 154 606 694 513 565 
450 11 392 638 131 706 678 17 166 485 451 181 658 
451 11 17 723 658 172 272 689 706 553 251 435 641 
452 11 240 736 648 729 493 395 687 39 464 639 478 
453 9 584 448 635 701 660 563 89 725 733 
454 11 651 142 404 257 692 40 333 241 684 295 520 
455 11 122 446 384 726 643 153 531 439 48 470 486 
456 11 7 311 305 308 376 244 361 673 377 201 145 
457 8 636 325 637 554 527 61 322 709 
458 8 348 737 364 489 38 530 720 380 
459 11 525 90 657 690 555 725 735 434 440 550 112 
460 6 699 511 576 144 46 565 
461 11 428 332 721 320 512 196 518 528 53 654 429 
462 8 720 364 489 577 632 543 663 38 
463 8 704 680 103 588 82 645 542 492 
464 11 524 639 146 529 729 574 39 478 648 240 736 
465 11 391 182 224 125 68 292 275 734 100 137 521 
466 8 438 680 153 486 726 455 122 597 
467 10 589 499 642 128 640 432 679 683 722 530 
468 11 34 301 299 84 724 677 347 91 472 716 414 
469 9 356 612 178 406 526 536 249 171 442 
470 11 522 580 643 717 384 531 718 60 705 122 153 
471 11 506 296 480 179 249 351 693 540 497 582 644 
472 11 347 724 468 716 34 481 301 345 299 610 630 
473 11 385 106 321 148 613 534 307 103 304 509 42 
474 6 712 433 607 70 674 618 
475 11 618 443 64 70 628 422 621 712 552 607 674 
476 6 685 596 25 403 399 557 
477 10 331 541 442 633 592 256 85 444 644 614 
478 11 146 648 736 464 524 639 240 395 492 452 624 
479 11 372 43 260 259 75 166 83 343 291 49 159 
480 11 249 471 178 693 506 296 644 356 592 469 179 
481 11 345 154 513 719 667 716 30 281 472 449 347 
482 5 605 30 528 667 196 
483 9 626 215 382 620 402 165 192 219 2 
484 11 504 186 549 297 567 286 502 93 595 65 568 
485 11 379 641 131 251 180 17 181 706 451 450 638 
486 8 597 153 438 643 384 122 466 60 
487 6 591 258 500 152 649 177 
488 11 728 105 417 277 237 387 262 491 570 573 306 
489 10 364 720 543 462 577 737 38 663 458 695 
490 10 112 550 544 434 562 611 617 733 725 701 
491 10 14 78 417 627 306 351 388 488 573 506 
492 7 645 624 675 478 146 574 680 
493 11 452 687 65 240 519 729 39 559 736 629 395 
494 11 280 537 357 86 223 208 239 261 53 27 214 
495 3 330 183 271 
496 11 241 684 40 257 454 13 692 404 333 113 651 
497 5 582 540 179 564 433 
498 11 538 92 514 586 600 708 118 349 711 532 594 
499 8 589 467 530 722 128 560 642 380 
500 11 152 130 258 177 686 591 649 374 487 587 419 
501 11 186 368 297 535 93 567 484 221 568 682 502 
502 11 504 572 93 670 682 176 732 65 407 508 629 
503 11 578 310 282 16 156 181 180 382 187 259 485 
504 11 502 65 484 572 670 176 93 493 629 549 186 
505 8 323 722 517 128 560 642 380 695 
506 11 471 296 179 480 351 540 249 693 497 582 445 
507 7 248 526 225 171 612 536 469 
508 11 407 521 270 732 682 670 572 616 619 167 502 
509 11 534 613 42 395 648 736 478 148 645 452 385 
510 11 727 705 717 707 718 546 580 522 48 431 646 
511 6 460 699 46 576 144 694 
512 11 696 6 196 587 373 461 528 11 429 428 605 
513 11 154 481 719 345 281 716 449 426 655 623 104 
514 10 92 711 498 538 708 532 657 735 448 600 
515 3 290 559 39 
516 11 447 653 48 646 707 718 531 705 446 384 455 
517 7 679 128 432 505 642 547 323 
518 11 320 53 721 332 630 654 86 223 428 239 411 
519 11 687 559 39 729 493 629 250 703 176 240 65 
520 11 295 672 396 96 137 651 142 410 340 734 691 
521 11 270 407 508 732 275 682 616 292 224 100 182 
522 11 470 580 717 531 705 718 707 643 384 48 122 
523 11 413 227 614 334 444 162 85 541 54 200 28 
524 10 639 464 529 146 574 437 729 39 478 240 
525 11 459 690 440 90 532 555 657 557 735 711 725 
526 8 612 171 469 536 507 356 406 178 
527 10 636 709 554 637 29 668 573 457 287 322 
528 9 196 605 482 512 461 30 373 11 428 
529 9 574 524 437 639 464 146 729 39 478 
530 7 380 499 560 348 589 722 38 
531 11 718 384 707 48 122 522 643 455 470 705 446 
532 10 711 657 735 525 514 92 708 459 690 557 
533 9 563 700 89 173 660 91 635 625 453 
534 10 613 509 645 385 42 492 704 103 395 473 
535 11 368 93 682 221 501 732 125 186 407 224 182 
536 7 406 612 356 469 526 249 178 
537 11 280 27 261 214 357 494 208 344 548 147 430 
538 11 498 92 514 586 711 600 708 118 448 584 349 
539 11 44 334 54 162 227 413 523 244 305 614 201 
540 5 497 582 179 564 445 
541 11 477 331 444 85 614 633 256 442 523 200 413 
542 10 588 439 82 726 680 446 455 466 122 463 
543 8 489 364 720 462 737 577 38 663 
544 11 611 490 434 112 553 435 550 172 126 569 581 
545 11 702 352 220 23 285 198 335 150 278 22 151 
546 11 431 671 717 580 608 60 522 378 470 705 510 
547 7 365 432 679 642 128 517 710 
548 11 344 27 214 20 261 252 129 120 537 357 634 
549 11 286 484 42 595 567 504 297 395 148 65 509 
550 10 112 733 490 434 725 459 701 611 562 544 
551 10 64 566 618 674 70 475 607 712 422 698 
552 10 443 61 621 325 628 558 422 475 457 575 
553 11 172 126 435 544 723 611 601 581 451 272 251 
554 10 637 527 636 287 325 457 61 558 709 29 
555 11 90 440 690 459 525 434 557 581 611 112 550 
556 11 72 50 101 289 598 604 155 36 192 219 165 
557 11 440 690 525 25 555 90 403 532 459 596 381 
558 11 61 621 628 325 552 575 664 443 287 554 637 
559 11 250 519 629 703 176 167 687 39 493 572 65 
560 11 380 722 695 530 663 38 323 505 577 499 589 
561 7 713 245 191 354 583 615 99 
562 6 617 490 550 112 733 701 
563 8 635 453 660 89 533 584 701 625 
564 7 445 497 540 582 664 575 179 
565 10 144 731 656 418 699 576 193 460 694 46 
566 5 551 64 698 622 618 
567 11 297 568 595 286 484 186 549 235 501 67 79 
568 11 567 235 297 595 67 397 79 286 425 484 186 
569 8 435 251 617 562 544 490 172 641 
570 11 262 294 728 573 29 668 709 488 688 322 527 
571 11 673 715 20 303 361 7 456 120 109 236 377 
572 11 670 176 629 250 703 65 167 502 559 508 504 
573 10 709 29 527 262 554 636 637 668 287 570 
574 7 437 529 524 146 464 639 624 
575 9 664 445 558 564 287 621 628 61 540 
576 10 46 694 144 731 460 699 511 565 647 426 
577 10 663 38 695 720 632 364 380 462 489 560 
578 11 310 503 16 156 180 282 181 382 402 485 2 
579 9 322 668 29 636 709 457 294 527 637 
580 11 717 522 470 546 671 431 705 60 718 643 707 
581 11 585 126 555 611 399 601 90 440 690 434 544 
582 5 497 540 179 564 433 
583 9 99 354 191 245 713 615 561 662 697 
584 10 448 453 635 701 660 725 735 657 89 563 
585 10 399 581 601 126 596 272 553 555 689 723 
586 11 118 498 349 538 594 600 92 411 514 610 708 
587 11 6 696 130 512 152 373 500 11 374 429 419 
588 9 82 542 439 680 463 726 704 446 466 
589 9 499 467 128 530 642 722 640 683 432 
590 11 151 69 350 352 335 336 333 47 222 19 545 
591 9 487 258 177 500 152 288 213 649 130 
592 10 644 442 331 693 178 477 480 469 356 633 
593 11 317 324 113 398 207 160 12 185 284 189 13 
594 11 118 411 349 586 239 600 223 610 498 538 86 
595 11 286 567 568 549 297 79 425 307 484 42 148 
596 10 399 476 585 25 685 581 557 440 601 555 
597 5 486 438 153 609 60 
598 11 72 289 101 165 620 192 219 36 556 2 123 
599 11 66 4 429 59 163 132 374 587 371 190 130 
600 11 349 498 118 708 586 92 514 538 594 711 676 
601 10 272 585 126 399 689 723 581 553 658 172 
602 11 314 104 243 623 647 209 426 650 135 716 694 
603 6 418 656 193 565 144 731 
604 10 441 135 556 209 243 72 155 650 314 50 
605 7 528 196 482 30 512 373 11 
606 8 719 655 281 449 667 418 154 603 
607 7 712 70 474 674 433 618 475 
608 9 378 431 671 546 302 60 609 580 717 
609 4 378 60 597 671 
610 11 411 586 594 118 630 239 538 498 625 349 91 
611 11 434 544 112 490 90 550 581 555 459 553 126 
612 8 469 356 536 526 406 178 171 249 
613 10 534 509 645 385 103 704 42 473 492 395 
614 11 444 523 541 413 633 54 334 477 85 227 331 
615 6 583 561 191 354 713 99 
616 11 270 340 691 521 410 508 100 619 275 292 96 
617 6 562 490 569 112 550 544 
618 11 70 674 475 64 607 712 551 474 422 628 443 
619 11 290 167 703 250 616 508 691 670 270 629 176 
620 11 165 192 219 289 402 101 2 598 215 483 626 
621 10 628 558 61 552 443 475 575 325 664 422 
622 7 698 422 64 443 475 566 552 
623 11 104 602 426 716 314 243 647 513 209 724 694 
624 8 675 492 645 146 574 478 437 529 
625 11 89 660 635 91 563 453 533 584 448 538 610 
626 9 483 215 219 165 192 620 402 173 382 
627 11 306 388 730 417 491 14 78 136 351 3 488 
628 10 621 443 558 61 552 475 575 664 325 564 
629 11 250 176 703 559 572 670 167 519 65 493 687 
630 11 654 518 53 411 320 239 223 610 86 721 332 
631 11 62 8 139 360 170 21 5 194 117 666 205 
632 8 695 663 577 462 38 720 364 380 
633 11 477 171 442 331 444 541 614 592 469 526 178 
634 9 408 252 129 88 120 681 403 427 147 
635 10 660 89 453 625 563 584 448 533 701 91 
636 10 527 637 554 709 457 29 668 322 325 579 
637 10 554 636 527 457 325 287 709 61 558 29 
638 11 450 392 131 706 678 181 166 17 485 451 641 
639 11 524 464 529 729 146 39 574 240 437 687 648 
640 9 683 467 642 365 432 589 679 128 499 
641 10 379 251 485 435 17 569 451 131 172 553 
642 11 128 432 679 467 547 365 517 589 640 505 499 
643 11 384 122 153 470 455 531 522 446 486 580 718 
644 7 592 693 442 480 331 178 477 
645 7 492 624 675 478 146 463 534 
646 11 516 447 653 48 727 707 705 718 510 531 522 
647 11 314 46 602 650 209 426 694 576 243 104 623 
648 11 736 240 478 452 395 146 464 729 639 524 687 
649 8 419 11 152 373 500 710 258 487 
650 8 209 436 314 647 243 602 46 511 
651 11 142 454 404 295 520 672 257 333 396 652 692 
652 7 672 404 410 396 96 520 691 
653 11 516 447 48 646 446 707 718 531 439 705 726 
654 11 630 518 320 53 332 428 721 86 411 461 223 
655 9 281 449 719 606 418 731 154 513 565 
656 7 193 603 565 418 144 699 731 
657 10 735 532 711 459 525 725 448 514 92 733 
658 10 689 723 272 451 17 601 172 706 126 553 
659 11 133 149 338 119 114 26 328 228 254 141 420 
660 10 635 89 625 453 563 584 448 91 533 701 
661 11 312 232 377 127 109 63 278 401 318 110 308 
662 8 697 99 354 191 583 245 713 561 
663 11 577 695 38 632 380 560 720 364 462 722 323 
664 9 575 445 564 287 558 628 621 61 540 
665 11 107 3 87 386 51 136 267 52 231 730 358 
666 11 205 246 393 184 353 5 81 204 319 32 108 
667 9 719 345 30 154 481 482 606 513 281 
668 10 29 322 709 579 636 294 527 457 637 262 
669 5 363 236 714 248 145 
670 11 572 176 629 250 703 167 502 65 508 559 504 
671 10 431 546 60 378 608 580 717 470 522 609 
672 11 520 396 96 295 652 410 404 651 137 691 142 
673 11 571 303 361 715 236 20 120 7 456 681 145 
674 9 70 618 607 712 64 474 551 475 433 
675 6 624 492 645 574 146 438 
676 11 427 147 381 357 600 88 261 349 708 129 408 
677 11 299 84 301 34 414 468 155 724 135 50 91 
678 9 166 392 450 638 706 131 17 260 658 
679 9 432 642 128 547 365 517 467 640 505 
680 7 466 542 463 588 439 82 726 
681 8 120 252 634 236 303 129 669 408 
682 11 732 407 93 521 508 502 270 535 670 275 572 
683 8 640 467 589 642 365 432 679 128 
684 11 241 40 496 257 13 692 454 333 404 651 113 
685 5 476 596 25 403 399 
686 11 374 177 130 163 353 500 184 319 152 258 393 
687 11 39 729 519 240 493 452 559 639 464 524 736 
688 11 73 339 294 369 94 570 41 262 291 83 342 
689 10 272 658 723 601 451 126 399 585 172 553 
690 11 440 555 90 525 459 557 434 581 611 532 657 
691 11 410 616 340 96 396 270 619 100 137 290 521 
692 11 333 13 257 40 350 160 454 684 241 142 651 
693 7 644 592 480 471 442 178 506 
694 11 46 576 731 426 144 565 647 449 460 699 511 
695 10 663 577 632 38 560 380 323 722 505 720 
696 11 6 587 512 373 11 419 429 196 130 152 649 
697 9 662 99 354 583 191 245 713 561 615 
698 7 622 422 566 64 443 475 551 
699 7 460 144 511 565 576 46 731 
700 9 173 533 215 414 563 626 155 36 219 
701 8 733 725 453 550 448 584 112 562 
702 11 545 23 285 278 352 198 220 335 376 244 150 
703 11 250 167 629 176 559 670 572 519 619 290 65 
704 9 463 103 680 645 588 82 613 492 534 
705 11 707 718 48 522 531 447 717 580 470 516 384 
706 11 17 131 392 450 451 638 658 678 485 723 641 
707 11 718 705 48 531 447 522 516 470 717 384 580 
708 11 92 514 711 532 600 498 538 381 657 349 735 
709 10 29 527 668 636 322 573 637 554 457 579 
710 8 365 547 419 640 683 11 432 649 
711 10 532 514 92 657 735 708 448 525 538 498 
712 7 607 474 70 433 618 674 475 
713 7 561 245 191 354 583 99 615 
714 10 145 363 225 138 201 248 669 236 507 361 
715 11 571 20 673 109 110 174 214 548 27 344 120 
716 11 623 724 104 513 426 602 301 481 347 154 472 
717 11 580 522 470 546 431 705 671 707 718 60 531 
718 11 707 705 48 531 447 522 470 516 384 580 717 
719 9 154 281 655 449 606 667 513 481 345 
720 10 364 489 577 462 38 663 543 632 695 737 
721 11 332 320 53 428 518 86 461 223 654 630 239 
722 11 560 323 505 380 128 499 589 695 467 530 642 
723 11 272 658 689 451 601 172 126 553 17 435 585 
724 11 301 468 716 34 347 472 299 84 623 104 677 
725 10 733 550 701 112 459 735 448 657 434 584 
726 11 439 446 455 122 542 384 153 466 531 643 48 
727 11 510 646 705 707 718 48 447 516 717 522 580 
728 11 488 237 105 570 262 277 387 417 573 111 369 
729 11 39 687 240 452 464 639 524 736 519 648 493 
730 11 136 388 627 306 3 231 52 665 417 351 491 
731 11 144 565 576 694 418 46 449 699 656 460 655 
732 11 682 407 521 508 93 270 502 275 670 572 224 
733 10 550 725 112 701 490 434 459 562 735 448 
734 11 100 137 292 391 465 182 275 224 68 340 125 
735 10 657 711 532 459 725 448 525 514 92 584 
736 11 648 240 452 395 478 729 464 146 639 524 493 
737 11 458 489 364 543 720 348 38 577 462 663 530 
DEPOT_SECTION
   1
   -1
EOF
