NAME :  X-n957-kX-w191-c11.cctp
COMMENT : 	Adapted by Maziero, Usberti and Cavellucci from the Uchoa, Pecin, Pessoa, Poggi, Subramanian, and Vidal (2013)
TYPE :  CCTP
DIMENSION :    774
EDGE_WEIGHT_TYPE : 	EUC_2D	
CAPACITY : 	11
VERTICES_WITHIN_COVERAGE :  11
VERTICES_WITH_DEMAND : 	191
NODE_COORD_SECTION
1 737 450
2 235 789
3 340 234
4 346 320
5 406 309
6 556 636
7 872 923
8 937 83
9 9 321
10 558 18
11 63 833
12 250 509
13 143 192
14 624 286
15 364 117
16 332 953
17 235 142
18 590 430
19 303 692
20 936 665
21 39 410
22 247 581
23 986 739
24 11 283
25 138 747
26 837 511
27 596 206
28 218 339
29 443 922
30 555 133
31 896 306
32 415 752
33 691 216
34 51 0
35 726 19
36 166 333
37 951 932
38 928 807
39 505 590
40 236 284
41 115 882
42 238 887
43 729 26
44 94 697
45 409 899
46 993 715
47 473 607
48 414 55
49 884 327
50 651 407
51 891 372
52 570 733
53 919 529
54 629 220
55 711 630
56 141 492
57 720 382
58 794 51
59 745 451
60 409 990
61 825 781
62 966 938
63 378 175
64 859 269
65 596 131
66 419 557
67 77 908
68 679 268
69 726 860
70 382 728
71 885 15
72 258 313
73 734 905
74 533 912
75 924 636
76 694 621
77 469 223
78 507 707
79 892 168
80 281 800
81 607 285
82 388 354
83 568 781
84 22 348
85 153 579
86 218 236
87 308 904
88 119 154
89 939 105
90 489 374
91 547 736
92 480 1000
93 124 883
94 647 930
95 295 741
96 213 53
97 701 446
98 589 708
99 644 147
100 133 377
101 983 343
102 169 651
103 262 450
104 255 422
105 115 640
106 693 344
107 896 910
108 298 531
109 573 416
110 416 512
111 870 50
112 185 436
113 656 268
114 53 522
115 587 165
116 542 762
117 995 809
118 266 878
119 27 812
120 196 522
121 45 164
122 174 729
123 252 311
124 681 621
125 594 478
126 848 361
127 897 253
128 729 354
129 255 410
130 811 703
131 677 991
132 781 909
133 971 632
134 540 824
135 887 144
136 475 860
137 509 336
138 967 433
139 897 98
140 157 676
141 971 727
142 972 381
143 658 504
144 375 214
145 280 526
146 895 158
147 196 779
148 379 223
149 692 470
150 22 395
151 119 604
152 622 843
153 289 811
154 98 365
155 111 426
156 261 101
157 483 818
158 820 480
159 433 961
160 656 421
161 511 273
162 334 794
163 426 686
164 870 112
165 941 978
166 744 498
167 7 346
168 168 877
169 166 244
170 604 430
171 176 452
172 522 306
173 912 406
174 423 564
175 505 779
176 101 383
177 729 307
178 162 515
179 647 869
180 784 983
181 496 811
182 736 39
183 833 529
184 646 367
185 922 294
186 513 535
187 373 331
188 471 694
189 39 149
190 813 538
191 153 115
192 244 505
193 716 286
194 409 228
195 140 484
196 652 239
197 141 628
198 30 924
199 877 307
200 586 723
201 856 584
202 984 221
203 641 671
204 648 704
205 19 309
206 661 125
207 614 194
208 253 864
209 106 841
210 187 687
211 5 289
212 657 83
213 658 58
214 419 839
215 519 347
216 666 486
217 288 276
218 562 646
219 516 725
220 75 785
221 309 966
222 743 856
223 121 698
224 70 635
225 376 539
226 824 834
227 650 350
228 742 277
229 977 647
230 268 698
231 973 145
232 569 655
233 765 22
234 427 869
235 11 869
236 377 793
237 162 897
238 102 444
239 979 386
240 69 483
241 294 395
242 424 536
243 37 705
244 126 782
245 490 30
246 348 771
247 808 469
248 107 512
249 782 207
250 161 793
251 859 469
252 148 763
253 403 723
254 978 760
255 214 132
256 467 387
257 853 27
258 855 506
259 591 902
260 213 742
261 203 364
262 183 3
263 143 608
264 649 492
265 904 31
266 997 741
267 527 299
268 26 402
269 543 506
270 902 548
271 47 419
272 125 226
273 206 608
274 811 668
275 643 265
276 189 736
277 79 287
278 225 604
279 412 843
280 924 756
281 474 356
282 533 721
283 445 101
284 579 994
285 652 658
286 633 914
287 889 206
288 464 243
289 680 735
290 420 998
291 798 490
292 75 518
293 27 680
294 181 428
295 367 977
296 777 679
297 501 137
298 856 6
299 777 984
300 171 874
301 909 569
302 730 509
303 59 533
304 455 853
305 612 163
306 959 409
307 987 154
308 883 195
309 207 6
310 39 831
311 227 416
312 657 701
313 703 976
314 260 286
315 6 135
316 821 740
317 491 397
318 140 716
319 6 773
320 666 487
321 529 74
322 860 929
323 384 223
324 524 854
325 102 833
326 653 843
327 260 234
328 864 478
329 425 897
330 482 914
331 497 805
332 646 13
333 670 113
334 722 56
335 611 456
336 832 655
337 275 331
338 851 924
339 746 341
340 811 324
341 950 762
342 697 467
343 368 215
344 458 65
345 174 245
346 277 138
347 624 145
348 80 463
349 696 41
350 309 279
351 985 212
352 934 241
353 839 676
354 717 623
355 752 11
356 732 768
357 5 440
358 125 793
359 556 154
360 137 547
361 178 892
362 363 804
363 855 769
364 269 726
365 415 353
366 961 560
367 432 998
368 197 594
369 655 357
370 903 500
371 446 77
372 710 425
373 883 381
374 493 246
375 776 9
376 286 208
377 119 538
378 267 810
379 924 550
380 207 306
381 734 468
382 654 618
383 102 700
384 196 533
385 978 464
386 987 161
387 342 874
388 501 638
389 105 260
390 557 72
391 246 754
392 577 758
393 200 110
394 107 621
395 501 789
396 581 925
397 672 281
398 333 221
399 366 691
400 871 557
401 759 559
402 384 926
403 512 969
404 29 740
405 361 929
406 874 282
407 769 858
408 878 141
409 820 64
410 429 224
411 611 820
412 26 93
413 268 308
414 426 545
415 28 441
416 669 276
417 519 784
418 445 780
419 762 46
420 935 724
421 937 750
422 390 916
423 934 288
424 435 47
425 990 14
426 830 399
427 581 559
428 490 787
429 564 416
430 748 774
431 566 767
432 873 118
433 626 559
434 833 478
435 82 836
436 311 362
437 718 313
438 975 337
439 148 207
440 986 476
441 769 67
442 114 335
443 28 562
444 59 461
445 12 780
446 154 192
447 27 360
448 787 422
449 206 469
450 774 765
451 521 751
452 499 129
453 52 528
454 304 554
455 502 257
456 131 279
457 960 233
458 408 79
459 917 541
460 282 530
461 506 298
462 410 452
463 495 313
464 577 549
465 295 775
466 179 898
467 626 568
468 196 516
469 754 367
470 53 627
471 252 558
472 122 892
473 657 277
474 267 505
475 234 594
476 512 375
477 239 454
478 505 354
479 707 336
480 273 546
481 527 276
482 322 525
483 91 411
484 85 871
485 688 231
486 172 870
487 584 428
488 476 354
489 180 863
490 473 213
491 422 21
492 218 531
493 533 262
494 330 99
495 608 516
496 408 228
497 241 919
498 80 811
499 513 278
500 429 712
501 330 226
502 247 375
503 619 32
504 671 277
505 403 542
506 521 294
507 473 216
508 224 863
509 183 428
510 293 641
511 568 173
512 529 560
513 532 163
514 760 446
515 240 624
516 719 272
517 493 338
518 513 305
519 58 940
520 569 412
521 357 402
522 495 188
523 618 412
524 416 250
525 788 91
526 658 479
527 231 504
528 93 683
529 648 191
530 155 877
531 692 379
532 291 501
533 65 935
534 308 1000
535 655 499
536 750 582
537 588 234
538 488 236
539 566 428
540 177 583
541 246 760
542 233 820
543 450 497
544 98 932
545 164 880
546 378 219
547 183 868
548 528 489
549 381 89
550 355 930
551 235 927
552 458 212
553 228 583
554 481 409
555 550 450
556 516 526
557 250 804
558 209 808
559 275 671
560 170 388
561 514 280
562 692 415
563 405 186
564 494 319
565 527 341
566 514 583
567 208 584
568 625 472
569 280 735
570 3 597
571 74 556
572 492 190
573 644 366
574 125 280
575 491 334
576 306 641
577 728 321
578 163 510
579 325 804
580 634 395
581 497 506
582 277 608
583 354 927
584 582 278
585 264 442
586 113 287
587 93 921
588 501 576
589 670 319
590 500 304
591 479 583
592 74 907
593 88 945
594 299 562
595 540 167
596 619 292
597 678 278
598 327 517
599 410 380
600 447 579
601 214 521
602 596 421
603 711 456
604 333 359
605 668 356
606 225 531
607 320 932
608 566 207
609 238 331
610 544 305
611 316 530
612 666 352
613 671 214
614 508 266
615 389 596
616 408 282
617 186 797
618 407 355
619 184 615
620 642 467
621 226 880
622 252 556
623 192 502
624 637 316
625 494 209
626 123 748
627 405 524
628 604 519
629 500 194
630 578 394
631 290 691
632 16 824
633 664 191
634 482 371
635 508 82
636 478 725
637 115 585
638 461 356
639 630 209
640 499 288
641 643 278
642 670 494
643 215 911
644 270 798
645 554 399
646 139 900
647 212 485
648 481 272
649 84 435
650 608 283
651 613 272
652 275 474
653 549 526
654 229 882
655 253 521
656 63 939
657 622 245
658 656 232
659 277 581
660 253 812
661 171 909
662 454 558
663 176 526
664 397 522
665 660 200
666 574 213
667 319 535
668 688 407
669 475 401
670 131 896
671 606 292
672 623 382
673 626 343
674 178 795
675 321 965
676 437 899
677 265 545
678 643 266
679 242 679
680 592 292
681 398 315
682 356 814
683 333 236
684 460 532
685 267 520
686 618 473
687 237 292
688 564 407
689 477 269
690 0 879
691 568 415
692 520 320
693 644 280
694 299 943
695 282 495
696 642 304
697 410 533
698 699 373
699 320 373
700 266 512
701 661 386
702 504 387
703 329 539
704 583 527
705 198 544
706 599 274
707 554 410
708 649 140
709 715 73
710 664 345
711 546 320
712 583 268
713 182 583
714 70 547
715 751 545
716 325 263
717 587 472
718 331 307
719 386 644
720 621 387
721 656 400
722 120 907
723 260 910
724 632 287
725 498 312
726 292 527
727 473 358
728 44 941
729 323 246
730 683 364
731 289 536
732 183 553
733 613 381
734 514 281
735 293 971
736 171 190
737 146 893
738 244 521
739 340 856
740 516 521
741 596 289
742 599 257
743 391 390
744 602 631
745 448 189
746 530 131
747 242 924
748 658 496
749 452 224
750 401 652
751 254 592
752 477 236
753 150 541
754 224 670
755 125 870
756 649 282
757 280 550
758 594 407
759 501 372
760 634 289
761 608 220
762 618 428
763 532 276
764 47 856
765 562 210
766 708 471
767 212 920
768 448 523
769 320 640
770 294 497
771 616 295
772 249 810
773 299 505
774 347 720
DEMAND_SECTION
2 1
3 1
4 1
5 1
6 1
7 1
8 1
9 1
10 1
11 1
12 1
13 1
14 1
15 1
16 1
17 1
18 1
19 1
20 1
21 1
22 1
23 1
24 1
25 1
26 1
27 1
28 1
29 1
30 1
31 1
32 1
33 1
34 1
35 1
36 1
37 1
38 1
39 1
40 1
41 1
42 1
43 1
44 1
45 1
46 1
47 1
48 1
49 1
50 1
51 1
52 1
53 1
54 1
55 1
56 1
57 1
58 1
59 1
60 1
61 1
62 1
63 1
64 1
65 1
66 1
67 1
68 1
69 1
70 1
71 1
72 1
73 1
74 1
75 1
76 1
77 1
78 1
79 1
80 1
81 1
82 1
83 1
84 1
85 1
86 1
87 1
88 1
89 1
90 1
91 1
92 1
93 1
94 1
95 1
96 1
97 1
98 1
99 1
100 1
101 1
102 1
103 1
104 1
105 1
106 1
107 1
108 1
109 1
110 1
111 1
112 1
113 1
114 1
115 1
116 1
117 1
118 1
119 1
120 1
121 1
122 1
123 1
124 1
125 1
126 1
127 1
128 1
129 1
130 1
131 1
132 1
133 1
134 1
135 1
136 1
137 1
138 1
139 1
140 1
141 1
142 1
143 1
144 1
145 1
146 1
147 1
148 1
149 1
150 1
151 1
152 1
153 1
154 1
155 1
156 1
157 1
158 1
159 1
160 1
161 1
162 1
163 1
164 1
165 1
166 1
167 1
168 1
169 1
170 1
171 1
172 1
173 1
174 1
175 1
176 1
177 1
178 1
179 1
180 1
181 1
182 1
183 1
184 1
185 1
186 1
187 1
188 1
189 1
190 1
191 1
192 1
COVERAGE_SECTION
2 11 557 772 660 541 542 558 644 391 378 147 80 
3 10 683 501 398 729 716 343 144 148 546 323 
4 11 718 187 604 681 82 350 436 699 5 716 618 
5 6 681 616 187 365 618 82 
6 11 218 232 744 388 566 39 98 427 512 588 78 
7 11 322 338 107 37 165 132 62 226 180 299 407 
8 11 89 139 265 231 164 432 111 135 408 71 146 
9 11 205 167 84 211 24 447 150 277 268 21 154 
10 10 390 321 503 245 635 332 213 344 30 746 
11 10 435 310 498 764 325 119 209 484 632 220 
12 11 192 655 738 700 474 527 685 606 145 695 460 
13 11 446 439 736 272 88 169 345 191 389 86 456 
14 11 596 724 760 771 650 81 651 671 641 693 696 
15 11 549 494 458 63 48 563 283 346 371 144 343 
16 11 675 607 221 550 583 694 405 295 735 534 87 
17 11 255 346 393 156 736 376 191 96 327 446 86 
18 11 487 602 170 109 758 539 691 520 762 429 335 
19 11 631 559 230 364 569 95 576 510 774 769 679 
20 11 75 229 133 420 141 46 421 23 280 266 341 
21 11 271 268 150 415 357 447 649 483 444 84 348 
22 8 751 475 553 471 622 659 278 567 
23 11 266 141 254 46 341 421 420 280 117 20 38 
24 11 211 205 9 167 84 277 447 389 586 150 574 
25 10 626 252 318 244 122 358 250 223 276 383 
26 11 183 258 434 158 190 328 291 251 247 400 370 
27 8 761 207 666 537 608 639 765 54 
28 11 609 261 380 123 502 72 687 36 40 337 413 
29 11 676 329 159 330 45 422 234 402 136 304 60 
30 10 359 746 595 513 65 511 115 297 452 390 
31 11 199 49 185 406 423 64 127 51 126 352 373 
32 11 253 70 418 500 236 163 636 246 362 774 399 
33 11 485 613 665 633 658 196 529 68 639 54 113 
34 11 412 262 315 189 191 309 121 88 96 393 255 
35 11 43 182 355 334 349 233 419 375 709 441 58 
36 11 261 380 28 442 100 560 456 574 586 609 154 
37 11 62 165 107 7 322 338 38 117 226 341 132 
38 11 341 280 421 117 254 363 420 23 141 266 61 
39 11 566 588 591 47 512 388 186 600 662 556 6 
40 10 687 314 123 72 380 413 609 86 217 327 
41 9 93 472 755 670 722 646 484 737 530 
42 9 654 621 208 508 118 497 723 643 747 
43 11 35 182 355 334 233 349 419 709 375 441 58 
44 11 383 528 223 318 243 626 105 140 224 25 293 
45 11 329 422 676 234 402 29 279 405 214 550 583 
46 11 23 141 266 254 420 341 421 229 20 280 133 
47 11 591 39 600 388 588 566 662 174 512 66 684 
48 10 424 458 491 371 344 549 283 15 245 494 
49 11 199 31 51 406 126 185 373 64 423 340 127 
50 11 721 160 580 701 523 720 668 672 762 184 562 
51 11 373 173 126 49 31 199 426 306 142 185 239 
52 11 200 91 392 98 431 282 116 83 451 219 78 
53 11 459 379 270 370 301 366 400 258 328 26 201 
54 11 639 761 657 196 207 658 529 27 665 613 537 
55 11 354 76 124 382 536 285 203 296 401 312 715 
56 11 195 578 178 248 663 753 377 623 171 360 468 
57 11 698 531 128 469 668 730 562 372 106 479 339 
58 11 409 441 419 525 233 375 355 182 257 43 334 
59 11 514 381 603 766 97 372 166 342 448 149 302 
60 11 290 367 159 295 402 92 29 422 405 550 583 
61 11 363 316 226 450 430 130 356 407 280 38 353 
62 11 37 165 107 7 322 338 117 38 226 341 254 
63 11 563 144 343 546 148 323 15 194 496 398 3 
64 11 406 127 199 31 49 185 287 340 423 308 352 
65 11 347 115 305 30 359 511 99 708 206 207 746 
66 11 174 414 242 505 697 662 600 627 664 110 768 
67 10 592 587 533 544 656 519 484 593 722 41 
68 11 597 504 416 397 113 473 756 275 678 641 693 
69 11 222 407 73 132 326 179 430 356 226 152 94 
70 11 253 774 399 32 500 246 163 236 362 750 162 
71 11 265 298 257 111 409 139 8 58 164 432 89 
72 10 123 413 337 314 609 687 40 28 217 380 
73 11 69 132 222 407 313 299 94 180 179 286 326 
74 11 396 330 259 324 403 136 134 29 284 676 304 
75 11 20 133 229 301 366 201 379 420 270 336 353 
76 11 124 55 354 382 285 536 203 467 312 401 433 
77 11 507 490 752 552 749 288 538 625 374 410 572 
78 11 219 282 636 188 451 91 116 52 388 175 417 
79 11 146 135 308 408 287 432 164 139 89 231 352 
80 11 644 153 378 465 660 557 772 579 2 542 162 
81 11 650 671 741 771 596 651 706 14 680 724 584 
82 9 618 187 365 599 743 681 5 4 604 
83 11 431 392 116 52 417 91 134 451 411 200 175 
84 11 447 167 9 205 150 268 211 21 24 271 154 
85 11 540 713 263 360 637 753 732 151 368 619 197 
86 9 327 345 40 169 687 314 736 380 376 
87 11 607 694 387 723 118 583 550 16 739 405 221 
88 11 13 191 446 439 736 272 121 189 393 255 169 
89 11 8 139 231 135 432 146 164 307 408 386 79 
90 11 634 759 702 281 317 476 727 488 256 478 669 
91 11 282 52 116 451 219 431 392 200 78 83 98 
92 11 403 367 290 159 60 29 330 284 74 676 295 
93 8 41 472 755 670 646 722 737 530 
94 11 286 179 259 396 131 313 326 73 152 284 69 
95 11 569 364 465 19 631 230 391 541 774 80 246 
96 11 309 262 393 156 255 191 17 346 494 88 736 
97 11 603 342 372 149 766 562 381 668 59 160 216 
98 11 200 52 91 392 232 282 204 431 203 218 312 
99 11 708 347 206 305 333 529 633 65 665 207 115 
100 11 176 154 560 442 155 483 36 294 261 509 238 
101 11 438 142 239 306 423 185 138 31 173 51 49 
102 11 140 197 619 210 263 105 273 754 368 223 540 
103 10 585 477 652 104 129 311 695 474 770 192 
104 11 129 585 103 311 477 241 502 652 449 112 509 
105 11 394 197 151 263 224 528 102 140 637 223 44 
106 11 479 730 605 612 710 698 589 531 128 369 437 
107 11 7 322 338 37 62 165 226 38 132 180 407 
108 11 726 731 460 611 145 667 454 482 757 773 480 
109 11 691 520 429 688 539 487 707 18 630 758 602 
110 11 627 664 697 242 505 414 768 543 66 225 684 
111 11 257 71 265 298 409 139 164 432 8 58 89 
112 11 509 294 171 449 311 560 647 477 195 623 56 
113 11 473 275 678 416 641 756 504 693 397 68 597 
114 11 453 303 292 714 571 240 443 248 444 348 377 
115 11 511 305 359 65 207 27 347 30 595 608 666 
116 11 451 431 91 83 417 392 52 175 282 219 395 
117 11 254 341 38 266 23 421 141 280 46 420 37 
118 9 208 42 723 654 621 508 497 87 747 
119 11 632 310 445 11 319 764 498 220 235 435 404 
120 11 468 384 601 623 663 705 492 606 732 178 578 
121 11 189 315 412 88 272 13 439 389 446 191 24 
122 11 276 318 25 260 252 210 626 147 140 223 250 
123 10 72 413 609 687 314 337 40 28 380 217 
124 11 76 382 55 354 285 203 467 536 744 433 312 
125 11 717 686 335 568 495 628 18 170 620 704 487 
126 11 373 426 51 49 340 199 31 173 406 448 64 
127 11 406 352 64 185 287 423 31 199 308 457 49 
128 11 339 469 479 57 577 698 106 437 531 177 730 
129 11 104 311 585 502 103 241 477 652 261 436 509 
130 11 274 316 353 296 336 450 61 363 430 356 354 
131 11 313 94 286 284 299 73 180 396 259 179 132 
132 11 73 407 222 338 69 180 299 322 226 7 313 
133 11 229 75 20 366 46 301 141 379 420 459 23 
134 11 324 417 181 331 83 395 157 175 116 428 431 
135 11 408 146 79 432 164 139 308 287 89 8 231 
136 11 304 157 234 324 181 330 676 331 214 329 279 
137 11 215 517 478 575 565 692 564 725 463 518 172 
138 11 306 385 440 239 142 173 101 370 438 51 373 
139 11 164 432 8 89 135 408 111 146 265 79 71 
140 11 102 210 223 318 197 105 122 383 528 44 619 
141 11 23 46 266 254 420 341 421 280 20 229 117 
142 11 239 306 101 438 138 173 51 385 373 440 185 
143 11 535 748 264 642 320 216 526 620 568 149 495 
144 11 546 343 148 323 496 194 63 3 563 398 501 
145 11 460 726 731 685 108 700 480 677 757 474 532 
146 11 79 135 408 308 432 287 164 139 89 231 8 
147 11 617 674 558 250 2 260 276 252 541 122 542 
148 11 546 323 144 343 496 194 3 563 398 524 63 
149 11 342 766 603 97 216 320 642 526 381 748 535 
150 11 268 21 271 447 415 84 357 167 483 649 9 
151 11 637 394 263 197 105 85 224 360 540 377 571 
152 11 411 326 179 259 286 83 134 94 396 431 392 
153 11 80 378 644 465 660 579 557 772 162 542 2 
154 11 176 442 100 483 155 447 649 21 271 36 560 
155 11 238 483 649 176 348 100 154 444 271 195 171 
156 11 346 17 255 393 96 494 15 191 309 376 549 
157 11 181 331 428 395 136 175 304 417 418 324 134 
158 11 434 247 291 26 251 258 328 183 190 448 514 
159 11 367 60 290 29 402 92 422 676 329 45 295 
160 11 50 721 580 668 701 562 523 762 620 720 97 
161 11 499 561 614 734 481 455 640 763 506 461 493 
162 11 579 246 682 362 236 465 153 80 739 644 95 
163 10 500 750 253 188 719 399 70 636 32 78 
164 11 432 139 408 135 146 79 111 89 409 8 308 
165 11 37 62 107 7 322 338 180 299 38 132 117 
166 11 302 381 766 59 715 603 514 291 342 149 401 
167 11 84 447 9 205 150 211 268 24 21 271 154 
168 9 300 545 486 530 547 361 489 237 466 
169 11 345 439 272 456 86 446 736 574 13 389 586 
170 11 602 18 762 487 523 758 335 109 539 520 691 
171 11 112 294 509 449 195 647 623 56 578 311 477 
172 11 267 518 506 692 461 590 610 725 734 561 463 
173 11 373 51 306 138 142 239 126 251 426 49 328 
174 11 66 414 242 600 505 662 697 627 615 768 664 
175 11 395 417 428 331 451 181 116 157 219 134 91 
176 11 154 483 100 155 442 649 238 271 21 560 268 
177 11 437 577 193 228 479 516 339 128 106 597 589 
178 11 578 663 753 56 623 468 120 195 384 360 732 
179 11 326 152 286 94 411 259 69 396 73 222 134 
180 11 299 132 313 338 73 322 7 131 407 222 107 
181 11 331 157 395 428 175 417 134 324 136 304 418 
182 11 43 35 334 419 355 233 349 709 441 375 58 
183 11 26 190 258 400 158 434 291 201 328 247 251 
184 11 573 369 227 701 605 612 672 710 580 673 720 
185 11 423 31 199 127 406 49 352 64 438 457 101 
186 10 556 740 512 581 653 269 588 548 566 684 
187 11 82 4 681 5 618 365 718 604 616 599 743 
188 11 636 78 163 500 219 388 282 253 451 32 750 
189 11 121 315 412 88 13 272 191 439 446 389 24 
190 11 183 26 291 258 158 401 400 715 201 434 247 
191 11 393 88 255 446 736 13 17 96 439 156 272 
192 11 12 527 738 655 474 700 685 606 601 492 647 
193 11 516 177 437 228 577 597 68 397 504 416 479 
194 11 496 410 524 323 148 546 144 563 343 749 552 
195 11 56 578 178 248 171 238 623 663 377 753 360 
196 11 658 275 678 113 54 613 657 485 639 473 68 
197 11 263 105 151 394 102 619 85 637 140 540 713 
198 10 728 519 656 533 592 67 690 235 593 587 
199 11 31 49 406 64 185 127 423 126 51 340 373 
200 11 98 52 392 91 431 282 116 83 204 219 232 
201 11 400 301 270 183 190 26 336 459 379 258 53 
202 11 351 457 352 386 307 231 423 127 185 287 308 
203 11 285 204 312 382 744 98 124 76 232 289 200 
204 11 312 203 289 285 98 200 52 382 744 124 392 
205 11 9 211 24 84 167 447 277 150 268 154 586 
206 11 333 708 99 212 347 305 65 633 213 529 665 
207 11 27 639 761 54 305 529 115 666 665 537 347 
208 7 118 42 508 654 621 723 542 
209 8 325 435 755 484 498 41 11 93 
210 11 140 102 754 122 276 318 679 260 223 619 197 
211 11 24 205 9 167 84 277 447 389 150 586 268 
212 11 213 333 206 349 708 709 503 99 334 347 332 
213 11 212 349 332 503 333 709 334 206 35 43 182 
214 11 279 234 304 329 136 45 236 676 418 362 157 
215 10 565 137 478 692 517 476 575 759 564 711 
216 11 320 642 526 748 535 264 143 149 620 342 568 
217 8 350 314 413 716 729 72 123 327 
218 11 232 6 744 388 98 566 39 282 200 78 203 
219 11 282 78 451 91 636 116 52 175 188 417 431 
220 10 498 11 244 358 435 119 325 310 626 445 
221 9 675 735 694 16 534 607 550 295 583 
222 11 69 407 73 132 430 226 356 326 450 179 61 
223 11 383 318 44 528 140 626 25 105 122 102 210 
224 11 470 394 105 528 151 293 44 637 197 383 243 
225 7 505 664 627 697 66 703 110 
226 11 61 407 363 222 450 132 316 338 430 7 69 
227 11 369 710 612 184 573 605 673 624 730 589 701 
228 11 516 193 177 437 577 68 339 597 479 397 485 
229 11 133 20 75 46 141 366 420 23 266 301 421 
230 11 631 364 559 679 19 569 95 754 391 510 541 
231 11 307 386 89 351 8 202 146 79 135 139 457 
232 11 218 6 744 98 200 388 203 282 52 78 285 
233 11 355 375 419 182 43 35 58 441 334 409 709 
234 11 329 279 214 304 676 45 136 29 422 330 402 
235 11 690 764 632 310 198 119 11 484 592 67 435 
236 11 362 682 246 162 579 32 279 214 70 418 739 
237 7 661 737 361 466 545 168 530 
238 11 155 649 348 483 444 240 195 271 176 56 248 
239 11 142 306 101 138 438 173 385 51 440 373 185 
240 11 348 444 292 114 248 453 649 238 303 415 714 
241 9 699 436 129 104 502 604 585 521 103 
242 11 414 697 66 505 627 110 768 174 664 684 662 
243 11 293 404 44 528 383 319 224 445 470 223 220 
244 8 358 252 626 25 250 220 498 674 
245 10 344 635 424 321 371 10 491 390 48 283 
246 11 162 236 362 579 682 774 465 70 95 32 153 
247 11 158 291 434 26 251 448 514 328 258 183 59 
248 11 377 292 56 195 360 240 714 303 753 114 178 
249 11 228 33 516 485 64 308 193 287 613 177 408 
250 7 674 617 252 358 244 147 558 
251 11 328 434 258 158 26 247 370 183 291 426 173 
252 10 25 244 626 250 358 122 674 318 276 147 
253 11 70 500 32 163 399 774 418 750 246 188 236 
254 11 23 266 341 141 421 46 117 280 420 38 20 
255 11 17 393 156 191 346 736 96 446 13 88 439 
256 8 669 634 90 317 554 727 281 638 
257 11 298 111 71 409 265 58 375 139 164 233 525 
258 11 26 328 183 434 251 158 370 190 400 291 247 
259 11 396 286 74 94 179 152 324 411 326 134 284 
260 11 276 391 541 122 147 2 364 210 617 674 558 
261 11 28 560 502 36 609 311 380 509 294 129 100 
262 11 309 96 393 191 156 34 255 17 88 346 494 
263 11 197 151 85 637 394 540 619 105 713 102 368 
264 11 535 748 143 526 216 320 642 620 568 686 149 
265 11 71 111 257 298 8 139 89 164 425 409 432 
266 11 23 46 254 141 341 421 420 117 280 38 229 
267 11 506 172 518 610 461 692 734 481 561 763 499 
268 11 150 21 271 415 447 357 84 167 483 649 444 
269 7 653 548 740 556 186 704 581 
270 11 459 301 379 53 400 370 201 366 258 183 26 
271 11 21 268 415 150 649 444 483 357 348 238 447 
272 11 439 13 389 169 446 345 456 574 736 586 88 
273 10 368 278 619 567 475 553 713 515 540 22 
274 11 336 353 130 296 316 201 354 450 536 55 363 
275 11 678 113 641 693 473 756 724 760 14 196 416 
276 11 122 260 147 210 252 25 318 391 674 617 541 
277 11 586 389 574 456 442 205 24 211 272 9 154 
278 10 475 273 553 515 567 368 751 22 619 713 
279 11 214 234 304 45 329 236 676 362 682 136 418 
280 11 421 341 420 38 254 141 23 363 266 46 117 
281 10 727 488 638 634 90 517 575 478 759 256 
282 11 219 91 78 451 52 116 200 636 98 392 431 
283 8 371 344 458 48 424 452 549 635 
284 11 396 403 94 259 74 286 131 92 313 330 179 
285 11 203 382 312 204 124 76 744 55 354 98 289 
286 11 94 259 179 396 152 326 131 313 284 411 74 
287 11 308 79 127 146 352 135 408 64 457 406 432 
288 10 752 77 749 538 507 374 689 490 552 648 
289 11 312 204 356 203 430 285 98 200 450 392 55 
290 11 367 60 159 295 92 29 402 422 405 550 403 
291 11 247 158 434 26 190 183 166 514 258 251 59 
292 11 114 303 453 714 248 240 571 377 348 444 443 
293 11 243 470 404 224 528 44 383 570 319 223 105 
294 11 509 112 171 560 311 449 477 647 261 195 100 
295 11 16 60 405 675 550 583 402 290 221 534 422 
296 11 274 130 336 353 316 55 354 450 430 356 76 
297 6 452 746 513 595 522 30 
298 11 257 71 111 265 409 58 375 233 139 419 355 
299 11 180 313 132 73 338 131 322 7 407 222 69 
300 9 168 486 545 547 489 530 361 237 466 
301 11 270 379 459 400 53 366 201 75 370 258 183 
302 11 166 381 715 766 342 149 603 401 59 642 216 
303 11 453 114 714 292 571 443 240 248 377 444 348 
304 11 136 234 214 279 157 676 329 181 331 45 330 
305 11 347 115 207 65 99 708 511 27 529 639 359 
306 11 138 239 142 173 385 101 440 438 51 373 370 
307 11 386 231 351 202 89 457 8 146 79 135 352 
308 11 287 79 146 135 408 127 352 64 432 164 457 
309 11 262 96 393 156 191 255 17 346 494 34 88 
310 11 119 11 632 764 435 498 235 220 445 484 690 
311 11 104 129 477 585 502 509 112 294 103 261 449 
312 11 204 203 289 285 98 200 382 124 76 55 744 
313 11 131 94 299 73 180 286 132 69 179 284 222 
314 8 413 40 687 123 72 217 337 350 
315 11 189 412 121 88 34 13 24 191 272 211 389 
316 11 130 61 363 450 353 274 296 430 336 356 226 
317 7 554 669 702 90 256 759 634 
318 11 223 25 122 626 383 140 252 44 276 210 528 
319 11 445 404 119 632 310 220 243 11 498 764 293 
320 11 216 642 526 748 535 264 143 149 620 342 568 
321 9 635 390 746 245 10 452 30 297 344 
322 11 338 7 107 132 37 180 165 299 226 62 407 
323 11 148 546 144 343 194 496 524 563 3 410 63 
324 11 134 136 181 157 331 74 304 395 417 330 428 
325 8 209 435 498 11 484 755 358 41 
326 11 179 152 411 286 69 259 94 222 73 83 356 
327 8 376 86 217 314 40 687 729 350 
328 11 251 258 434 26 158 370 247 183 291 53 190 
329 11 676 45 234 29 422 402 304 279 214 330 136 
330 11 29 676 74 136 329 403 304 159 234 324 45 
331 11 181 395 157 428 175 417 134 324 418 136 451 
332 11 503 213 349 212 35 43 334 10 709 182 333 
333 11 206 212 708 99 213 347 709 65 305 334 349 
334 11 709 182 349 43 35 419 441 355 233 213 212 
335 11 686 568 170 125 717 762 18 620 602 487 523 
336 11 353 274 130 296 201 316 75 20 400 536 301 
337 11 413 72 123 609 314 436 502 687 217 28 40 
338 11 322 7 107 132 180 226 299 37 165 407 62 
339 11 128 469 577 177 479 437 57 106 698 193 228 
340 11 126 339 199 469 49 64 406 426 228 577 177 
341 11 421 280 254 141 420 23 38 266 46 117 363 
342 11 149 766 603 97 216 320 381 642 526 372 748 
343 11 144 546 148 323 3 398 501 63 683 496 194 
344 10 371 424 283 48 245 458 635 491 321 452 
345 11 169 86 439 272 456 736 446 574 13 380 389 
346 11 156 17 255 494 376 393 15 327 398 501 96 
347 11 99 305 708 65 115 206 207 529 333 633 511 
348 11 444 240 649 238 155 483 271 292 248 415 195 
349 11 334 43 35 709 182 213 212 332 355 419 233 
350 8 217 716 718 729 314 683 413 3 
351 11 202 457 386 307 352 231 423 287 127 79 185 
352 11 457 127 423 185 202 287 351 308 406 31 64 
353 11 336 274 130 296 316 75 201 363 20 61 420 
354 11 55 76 124 536 382 285 401 296 715 203 312 
355 11 233 375 35 43 182 419 334 58 441 349 709 
356 11 430 450 289 222 69 316 61 407 296 312 130 
357 11 415 268 21 271 150 444 240 348 649 447 483 
358 8 244 250 252 626 325 25 498 220 
359 9 30 595 511 513 115 746 65 608 765 
360 11 753 377 85 178 637 663 578 248 732 540 56 
361 8 466 237 168 545 661 300 486 547 
362 11 682 236 162 246 579 739 279 214 387 32 153 
363 11 61 316 280 226 130 450 38 421 420 353 341 
364 11 569 230 95 391 541 631 19 679 465 559 260 
365 7 618 82 599 681 743 5 638 
366 11 379 459 53 301 270 133 370 75 229 440 400 
367 11 290 60 159 92 295 29 403 402 422 330 405 
368 10 567 273 713 540 619 278 553 475 732 85 
369 11 227 612 184 605 573 710 730 701 673 106 589 
370 11 53 459 328 258 270 251 379 400 26 301 434 
371 9 344 283 424 458 48 491 635 245 549 
372 11 562 97 668 603 57 59 342 766 149 381 531 
373 11 51 173 126 49 426 199 31 306 142 251 340 
374 9 538 455 752 614 689 288 648 161 77 
375 11 233 355 419 58 43 182 35 441 409 334 257 
376 8 327 501 398 729 683 3 716 217 
377 11 360 248 753 637 292 571 178 714 56 578 85 
378 10 644 660 80 557 772 153 542 2 465 541 
379 11 459 53 270 301 366 400 370 201 258 75 183 
380 11 687 28 40 609 123 36 72 314 261 413 345 
381 11 59 603 766 166 514 342 97 302 149 372 291 
382 11 124 76 285 744 203 467 55 354 433 312 204 
383 11 44 223 528 318 626 25 140 105 243 224 122 
384 10 120 705 468 663 492 601 732 606 623 178 
385 11 440 138 306 239 142 370 53 173 366 459 379 
386 11 307 231 351 202 89 457 146 8 79 352 135 
387 11 739 87 583 550 405 607 682 422 402 45 579 
388 11 47 39 6 566 591 218 588 188 78 232 600 
389 11 574 586 456 277 272 169 439 345 442 13 446 
390 10 321 635 10 30 746 65 503 245 452 359 
391 11 541 260 364 2 569 557 644 95 465 147 772 
392 11 431 83 52 116 200 91 98 451 282 417 219 
393 11 255 17 191 96 156 346 736 88 446 13 309 
394 11 105 151 197 637 263 224 470 85 528 102 571 
395 11 175 428 331 417 181 157 451 116 134 418 219 
396 11 259 74 286 94 284 403 179 324 152 330 134 
397 11 504 416 597 68 473 113 756 693 641 275 678 
398 10 501 3 683 729 343 144 716 546 148 376 
399 9 774 70 253 719 750 163 19 500 769 
400 11 201 270 301 183 459 258 379 53 26 190 370 
401 11 715 536 190 302 166 354 291 183 55 76 26 
402 11 422 405 550 583 45 329 295 16 29 676 159 
403 11 92 74 330 284 159 396 29 367 290 676 259 
404 11 243 319 445 293 220 119 44 383 632 528 498 
405 11 550 583 402 422 16 607 295 675 45 387 87 
406 11 64 199 31 127 49 185 423 352 340 287 126 
407 11 222 69 132 73 226 430 450 61 356 338 322 
408 11 135 146 432 79 164 139 308 287 89 8 111 
409 11 58 525 257 441 111 419 298 164 233 375 432 
410 11 194 496 749 524 552 77 288 745 323 490 507 
411 11 152 326 83 179 431 134 392 259 116 324 52 
412 11 315 189 121 34 88 191 13 446 272 439 736 
413 9 72 123 314 337 687 217 609 40 350 
414 11 242 66 174 697 505 627 662 768 110 684 664 
415 11 357 271 21 444 268 150 348 649 240 483 238 
416 11 504 397 597 473 68 113 756 693 641 275 678 
417 11 175 395 428 331 116 451 181 134 83 157 431 
418 11 32 428 157 395 331 175 181 214 636 236 500 
419 11 441 233 182 58 355 43 375 334 35 525 709 
420 11 421 280 141 341 23 254 20 46 266 38 229 
421 11 280 341 420 141 254 23 38 266 46 117 363 
422 11 402 45 405 550 583 329 676 29 234 159 387 
423 11 185 31 352 127 199 406 457 49 438 101 64 
424 10 48 344 491 371 458 283 245 549 635 321 
425 11 8 265 89 71 111 139 231 298 257 307 386 
426 11 126 448 373 51 247 251 340 434 158 173 469 
427 11 464 704 433 467 628 653 495 512 269 566 186 
428 11 395 175 331 181 417 157 418 451 116 134 636 
429 11 691 520 109 688 539 707 645 487 630 18 758 
430 11 356 450 61 289 316 222 407 69 130 226 296 
431 11 83 392 116 52 91 200 451 417 282 175 98 
432 11 164 408 135 139 146 79 89 111 8 409 308 
433 11 467 427 628 495 464 704 143 382 535 264 748 
434 11 158 247 251 328 26 258 291 183 190 448 370 
435 10 11 325 209 498 484 764 310 220 755 41 
436 10 699 604 241 337 4 718 521 502 187 413 
437 11 177 577 479 193 106 339 516 128 228 589 597 
438 11 101 142 239 423 185 306 31 51 49 173 138 
439 11 13 446 736 272 169 345 88 389 456 86 574 
440 11 385 138 306 53 370 366 239 459 142 379 173 
441 11 419 58 525 182 233 334 409 709 43 375 355 
442 11 154 100 586 176 36 574 277 456 389 560 483 
443 11 303 453 570 714 571 114 292 470 224 240 637 
444 11 348 240 649 415 271 238 21 357 292 483 114 
445 11 319 119 404 632 310 220 11 498 243 764 235 
446 11 13 439 736 272 88 169 345 191 86 389 255 
447 11 84 167 150 268 9 21 205 271 154 211 176 
448 11 514 426 59 247 469 158 291 381 434 372 57 
449 11 647 171 477 623 112 527 509 294 468 192 601 
450 11 430 356 61 316 130 363 226 296 407 222 289 
451 11 116 219 91 175 282 417 395 78 428 431 636 
452 6 297 746 513 635 30 595 
453 11 114 303 292 714 571 443 240 248 444 377 348 
454 8 594 731 108 667 757 611 703 726 
455 8 614 374 161 499 538 561 648 734 
456 11 574 586 389 169 272 277 345 442 36 439 380 
457 11 202 352 351 423 127 185 287 386 307 308 231 
458 9 48 549 371 424 283 344 15 491 494 
459 11 379 53 270 301 370 366 400 258 201 328 26 
460 10 145 731 726 108 480 685 757 677 700 474 
461 11 590 518 640 506 725 172 463 734 561 267 499 
462 1 110 
463 10 725 564 590 461 518 575 517 640 692 137 
464 11 427 704 653 628 495 512 433 467 269 556 186 
465 11 80 95 644 153 579 162 569 378 541 246 391 
466 6 361 661 237 545 168 300 
467 11 433 427 464 628 495 382 704 744 143 535 124 
468 11 120 623 384 601 663 492 705 606 178 578 647 
469 11 339 128 57 577 698 479 531 448 106 177 437 
470 11 224 394 570 293 105 528 151 443 571 637 243 
471 8 622 677 22 480 757 659 751 553 
472 8 93 670 41 722 646 755 737 530 
473 11 113 756 416 693 504 641 397 275 678 597 68 
474 11 700 685 12 695 655 192 532 145 738 770 460 
475 10 278 553 22 751 567 273 515 368 471 622 
476 8 759 702 478 90 215 317 634 565 
477 11 103 585 104 449 311 647 652 129 192 527 12 
478 11 215 137 759 517 476 575 90 565 488 634 281 
479 11 106 437 577 128 177 730 698 339 589 605 612 
480 8 677 757 460 731 145 622 471 685 
481 9 763 499 561 734 493 161 506 614 267 
482 8 611 598 667 703 108 726 773 454 
483 11 155 649 176 238 271 154 21 348 100 444 268 
484 11 41 435 209 67 592 755 93 764 325 472 11 
485 11 33 613 658 196 68 665 633 597 113 416 504 
486 7 300 168 489 547 545 530 361 
487 11 18 602 109 539 170 691 520 429 758 688 762 
488 10 281 727 638 634 517 90 575 478 759 256 
489 5 547 486 300 168 545 
490 11 507 77 552 625 752 749 538 572 288 522 629 
491 10 424 48 344 458 371 245 549 283 635 15 
492 10 606 601 384 120 705 468 738 527 655 192 
493 5 763 481 161 614 499 
494 11 15 549 346 156 458 63 48 17 283 563 424 
495 11 628 704 125 686 464 433 568 264 717 535 143 
496 11 194 410 524 323 148 546 144 343 563 749 552 
497 8 747 551 723 643 767 42 654 621 
498 10 435 220 11 325 209 310 358 119 244 764 
499 11 561 734 161 614 481 640 506 763 461 455 267 
500 11 163 253 32 188 70 636 399 750 418 78 719 
501 10 398 683 3 729 716 343 144 376 148 546 
502 11 129 261 609 28 311 104 241 337 72 123 436 
503 11 332 213 10 212 390 349 333 321 65 206 709 
504 11 416 397 597 68 473 113 756 693 641 275 678 
505 10 697 627 664 66 242 414 225 174 110 768 
506 11 267 172 518 734 461 561 499 481 763 161 590 
507 11 490 77 552 752 625 749 538 288 572 629 374 
508 4 621 654 42 208 
509 11 294 112 171 560 311 449 477 647 261 100 195 
510 7 576 769 559 582 631 19 515 
511 10 115 359 595 608 513 765 666 30 27 305 
512 11 566 186 588 556 39 653 740 464 427 591 269 
513 9 595 359 746 511 30 297 522 629 452 
514 11 59 381 448 603 247 166 372 291 766 97 342 
515 11 278 475 751 273 582 553 22 754 567 368 679 
516 11 193 228 177 68 437 597 397 504 416 577 485 
517 10 575 137 564 478 488 463 281 725 215 727 
518 11 172 461 590 506 267 692 725 463 640 564 734 
519 9 656 533 728 593 198 67 592 587 544 
520 11 691 109 429 688 707 539 630 645 487 758 18 
521 6 743 699 604 82 599 436 
522 7 572 629 625 490 507 77 552 
523 11 762 170 580 602 720 758 672 733 18 50 487 
524 11 194 496 410 616 323 749 148 288 546 144 552 
525 11 441 58 409 419 233 182 334 709 375 164 43 
526 11 216 320 264 748 642 535 620 143 568 149 686 
527 11 192 12 738 601 647 606 655 492 474 700 468 
528 11 44 383 223 105 224 318 243 140 394 293 470 
529 11 665 633 639 613 207 54 658 99 305 196 761 
530 10 545 168 300 486 737 237 361 646 489 547 
531 11 698 730 57 668 701 605 106 562 612 721 369 
532 9 770 773 695 474 726 145 700 460 108 
533 9 656 519 728 593 592 67 587 544 198 
534 7 735 221 675 16 694 295 607 
535 11 748 143 264 320 642 216 526 620 568 686 149 
536 11 401 715 354 55 76 302 190 124 166 183 296 
537 4 761 666 742 27 
538 8 374 752 77 288 455 507 490 625 
539 11 429 691 109 520 487 688 707 18 555 602 645 
540 10 713 368 85 567 732 619 273 263 705 753 
541 11 391 2 260 364 569 557 644 772 465 660 80 
542 6 772 660 557 558 2 378 
543 7 768 684 110 242 581 627 414 
544 7 587 593 67 533 722 592 656 
545 10 168 300 530 486 237 361 547 737 466 489 
546 11 148 144 323 343 496 194 3 563 63 398 683 
547 5 489 486 300 168 545 
548 7 269 740 581 556 653 555 186 
549 11 458 15 48 494 283 371 424 491 344 63 563 
550 11 583 405 402 16 607 422 295 675 87 387 694 
551 6 747 497 767 643 723 42 
552 11 749 490 77 507 745 410 752 288 625 538 572 
553 10 475 22 567 278 751 273 368 471 622 515 
554 5 669 317 256 702 90 
555 8 539 429 691 487 707 109 520 717 
556 8 740 186 581 653 269 512 548 588 
557 10 772 660 378 2 644 542 80 153 558 541 
558 7 617 542 2 147 674 772 557 
559 10 631 230 679 19 510 576 754 364 769 515 
560 11 100 261 294 509 112 36 171 311 28 176 155 
561 11 734 499 161 481 614 506 640 763 461 267 518 
562 11 668 372 97 160 531 721 50 701 57 698 603 
563 11 63 144 194 496 323 546 745 148 410 343 552 
564 10 463 725 575 590 517 137 461 518 692 172 
565 8 215 137 692 478 711 517 172 476 
566 11 39 588 512 591 47 186 388 556 740 662 600 
567 10 368 553 273 278 713 475 540 22 619 732 
568 11 686 620 335 264 125 526 717 535 748 216 320 
569 11 364 95 230 391 541 465 631 19 559 644 80 
570 11 443 470 224 571 714 303 453 293 114 292 394 
571 11 714 303 453 292 114 443 377 637 248 360 151 
572 7 522 629 625 490 507 77 552 
573 11 184 369 227 605 612 672 701 673 710 580 720 
574 11 456 586 389 277 272 169 442 345 36 439 380 
575 10 517 564 137 463 725 478 488 281 727 215 
576 6 510 769 559 582 19 631 
577 11 437 177 479 339 128 193 106 228 516 469 589 
578 11 178 663 56 623 468 753 120 195 384 360 732 
579 11 162 682 153 362 246 465 80 236 739 644 378 
580 10 720 672 50 523 721 733 701 184 573 160 
581 6 740 556 186 548 684 269 
582 6 659 751 510 22 515 576 
583 11 550 405 402 16 607 422 675 87 295 387 694 
584 7 712 680 706 741 81 650 742 
585 10 103 104 477 129 652 311 241 695 474 770 
586 11 574 456 389 277 442 272 169 36 345 154 439 
587 8 544 67 592 593 722 533 656 519 
588 11 39 566 591 512 47 186 662 556 600 740 684 
589 10 710 696 612 624 106 227 605 397 369 479 
590 11 461 725 463 518 564 640 172 506 692 267 734 
591 11 588 47 39 600 566 662 684 512 174 186 388 
592 11 67 587 533 656 544 519 484 593 728 722 198 
593 7 544 533 587 656 519 67 592 
594 6 454 757 731 659 108 480 
595 9 513 359 511 30 746 115 608 629 765 
596 11 771 14 671 81 650 724 760 651 741 696 680 
597 11 397 504 416 68 473 113 756 693 641 275 678 
598 6 482 611 667 703 773 108 
599 4 743 618 365 82 
600 11 662 174 591 66 47 414 242 684 588 768 505 
601 11 492 606 120 468 384 527 705 623 738 192 647 
602 11 18 170 487 758 762 109 523 520 691 539 429 
603 11 97 766 342 149 381 372 59 562 514 166 216 
604 10 699 436 4 187 521 718 241 82 337 743 
605 11 612 710 369 730 227 184 573 106 701 531 698 
606 11 492 601 738 527 384 120 655 705 192 12 468 
607 10 16 694 87 675 583 550 221 405 735 387 
608 5 765 666 27 511 537 
609 11 28 123 72 337 413 687 380 502 40 261 314 
610 4 711 267 172 506 
611 9 667 482 703 598 108 726 454 731 773 
612 11 605 710 369 227 730 184 573 106 589 701 531 
613 11 665 33 658 485 633 196 529 639 54 68 113 
614 9 161 455 499 561 734 481 640 374 493 
615 4 174 719 66 505 
616 7 5 524 681 194 496 187 410 
617 6 674 147 250 558 2 252 
618 7 365 82 599 743 681 187 5 
619 11 273 368 713 540 102 567 263 278 197 85 475 
620 11 568 526 686 264 216 320 335 748 535 642 143 
621 5 654 42 508 208 643 
622 8 471 677 480 22 757 655 659 553 
623 11 468 120 647 601 663 578 384 178 449 492 527 
624 9 696 760 673 724 596 771 14 589 227 
625 8 629 572 490 522 507 538 77 752 
626 10 25 252 244 318 358 223 383 122 44 250 
627 10 664 697 110 505 242 414 225 66 768 174 
628 11 495 704 464 125 427 433 686 717 568 264 467 
629 6 522 572 625 490 507 77 
630 8 688 520 758 109 691 645 429 707 
631 11 19 230 559 364 569 679 95 510 576 769 774 
632 11 119 310 445 235 764 11 319 690 498 435 220 
633 11 665 529 613 33 639 658 54 485 99 196 207 
634 10 90 727 281 488 759 256 638 702 317 478 
635 10 321 452 390 344 746 245 297 371 283 30 
636 11 188 78 219 451 500 282 175 428 418 163 395 
637 11 151 263 394 85 360 377 197 571 105 753 714 
638 7 727 281 488 634 256 90 517 
639 11 54 207 529 761 665 27 658 196 657 633 613 
640 11 461 590 499 561 734 161 518 506 614 648 725 
641 11 693 756 678 275 473 724 760 113 14 416 696 
642 11 320 216 748 143 535 526 264 149 342 620 766 
643 8 767 551 497 747 654 42 621 466 
644 11 80 378 557 660 153 772 465 2 542 541 391 
645 7 707 688 429 520 691 109 630 
646 6 670 737 472 722 93 237 
647 11 449 623 527 468 601 192 120 477 12 492 606 
648 9 689 640 455 614 374 161 499 288 561 
649 11 238 483 155 348 444 271 240 21 176 415 268 
650 11 81 671 651 706 741 596 771 14 680 724 584 
651 11 650 81 706 14 596 671 742 771 724 741 760 
652 10 695 103 770 532 474 585 700 773 477 12 
653 10 269 556 740 704 464 186 512 548 427 628 
654 6 621 42 508 208 643 118 
655 11 738 12 685 700 192 474 145 677 527 460 606 
656 9 533 519 728 593 67 592 587 198 544 
657 9 54 742 651 275 761 678 196 537 658 
658 11 196 613 54 485 665 275 639 113 657 678 33 
659 6 751 582 594 22 757 471 
660 9 772 557 378 542 644 2 80 153 558 
661 6 466 237 361 545 737 168 
662 11 600 684 414 174 66 591 768 242 588 697 47 
663 11 178 120 384 578 468 705 732 623 753 601 492 
664 8 627 697 110 505 225 242 414 66 
665 11 633 529 613 639 658 33 54 196 485 207 99 
666 4 608 765 27 537 
667 9 611 482 703 598 108 454 726 731 594 
668 11 562 372 531 721 701 160 698 50 57 97 730 
669 6 554 256 317 90 634 702 
670 7 646 472 93 737 722 41 755 
671 11 81 650 741 771 596 680 14 706 651 724 584 
672 8 720 733 580 573 184 523 50 701 
673 4 227 573 624 184 
674 6 617 250 147 558 252 358 
675 10 221 16 735 694 607 534 295 550 583 405 
676 11 329 29 45 234 330 304 422 136 402 279 159 
677 8 480 757 622 471 460 145 685 731 
678 11 275 641 113 693 756 473 724 760 14 196 416 
679 11 754 230 559 631 364 515 210 19 510 569 260 
680 10 741 671 81 584 650 706 771 712 596 651 
681 7 5 187 616 82 618 365 4 
682 11 362 162 236 579 246 739 387 279 153 214 465 
683 9 3 501 729 398 716 343 144 148 546 
684 11 768 662 242 414 543 581 66 110 174 600 697 
685 11 700 145 655 474 460 12 738 677 726 192 480 
686 11 568 335 125 620 717 264 526 495 170 535 762 
687 11 40 123 314 72 380 413 609 28 217 337 86 
688 10 520 429 691 707 109 645 630 539 487 758 
689 9 648 374 455 288 640 614 752 161 538 
690 11 235 764 198 632 310 119 728 11 592 67 519 
691 11 520 429 109 688 539 707 487 645 630 18 758 
692 10 172 518 137 267 565 725 461 463 506 564 
693 11 641 756 473 760 678 724 275 113 14 696 416 
694 8 607 221 735 675 16 87 723 550 
695 10 532 770 474 773 652 700 685 145 726 12 
696 10 624 760 724 756 693 14 596 641 771 473 
697 10 627 505 242 664 414 110 66 174 225 768 
698 11 531 730 57 106 605 128 668 479 612 701 562 
699 9 436 604 241 521 4 337 718 187 82 
700 11 474 685 12 655 145 192 695 460 738 532 726 
701 11 721 50 184 573 580 369 605 730 531 612 668 
702 6 476 759 317 90 634 554 
703 7 667 482 611 598 454 108 594 
704 11 628 464 495 427 653 269 125 433 717 467 512 
705 10 384 732 120 492 468 601 663 606 567 623 
706 9 650 81 651 741 584 712 742 671 680 
707 9 688 645 429 520 691 109 539 630 487 
708 11 99 206 347 333 305 529 633 65 212 665 207 
709 11 334 349 182 43 419 441 35 212 213 333 233 
710 10 612 605 227 369 589 730 184 106 573 673 
711 4 610 692 172 267 
712 7 584 706 742 741 680 81 650 
713 10 540 368 567 85 732 619 273 705 263 553 
714 11 571 303 453 292 114 443 377 248 637 240 360 
715 11 401 536 302 166 190 291 381 183 354 766 26 
716 8 729 350 683 3 501 217 398 718 
717 11 125 335 686 568 18 555 487 170 495 539 628 
718 10 4 350 716 187 604 217 436 337 729 413 
719 5 750 615 399 163 769 
720 8 672 733 580 523 573 184 758 50 
721 11 50 701 160 580 668 184 573 720 672 562 523 
722 7 472 670 646 93 41 587 737 
723 9 497 747 551 42 118 654 621 643 208 
724 11 760 14 596 641 693 756 771 696 650 651 678 
725 10 463 564 590 461 518 575 692 640 172 137 
726 11 108 731 460 145 773 611 532 685 757 480 667 
727 9 281 488 638 634 90 517 256 575 759 
728 9 519 656 198 533 593 592 67 587 544 
729 8 683 716 3 501 398 350 217 376 
730 11 531 605 698 612 106 710 369 701 227 184 479 
731 10 460 726 108 145 757 480 454 677 685 594 
732 10 705 384 663 713 540 120 753 468 85 567 
733 7 672 720 580 523 758 573 184 
734 11 561 499 161 481 506 614 640 461 763 267 518 
735 7 221 675 694 534 16 607 87 
736 11 446 13 439 169 345 272 88 86 255 191 17 
737 7 646 670 237 530 545 93 472 
738 11 655 12 192 527 606 685 700 474 492 601 677 
739 11 387 682 579 362 87 162 153 583 236 279 405 
740 7 556 186 581 269 653 548 512 
741 11 680 671 81 650 706 584 771 596 651 712 14 
742 8 706 712 651 537 657 584 650 81 
743 5 599 82 521 618 365 
744 11 232 218 6 382 203 285 467 427 433 98 124 
745 10 552 490 749 507 77 410 563 572 522 625 
746 8 30 297 452 513 359 595 635 321 
747 6 497 551 723 643 767 42 
748 11 535 143 264 320 642 216 526 620 568 149 686 
749 11 552 77 288 507 410 490 752 745 538 194 496 
750 6 719 163 399 615 500 253 
751 9 22 475 659 553 582 278 471 515 622 
752 11 538 77 288 374 507 490 749 552 625 455 689 
753 11 360 178 663 377 578 732 85 384 705 56 120 
754 11 679 210 515 559 230 102 273 278 140 619 631 
755 11 93 41 472 670 530 737 646 209 722 484 545 
756 11 693 641 473 113 678 760 275 724 416 397 504 
757 7 480 677 731 460 594 145 454 
758 11 602 630 18 109 487 170 520 523 691 688 429 
759 9 476 90 702 478 634 317 215 281 488 
760 11 724 14 693 641 596 696 756 771 678 275 473 
761 8 27 54 537 639 207 657 666 742 
762 11 170 523 602 18 335 758 487 580 50 160 720 
763 7 481 493 561 499 734 161 506 
764 11 310 11 235 435 484 632 119 690 498 592 67 
765 3 608 666 27 
766 11 342 603 149 97 381 59 302 642 166 216 320 
767 7 643 551 497 747 466 42 621 
768 11 684 543 242 414 110 662 697 627 66 174 505 
769 4 576 510 582 19 
770 9 532 773 695 474 652 726 145 700 108 
771 11 596 671 14 81 650 724 760 741 651 680 706 
772 9 660 557 378 542 644 2 80 153 558 
773 9 532 770 695 726 108 145 460 482 598 
774 11 399 70 246 19 95 253 631 569 32 162 465 
DEPOT_SECTION
   1
   -1
EOF
