NAME :  X-n979-kX-w97-c11.cctp
COMMENT : 	Adapted by Maziero, Usberti and Cavellucci from the Uchoa, Pecin, Pessoa, Poggi, Subramanian, and Vidal (2013)
TYPE :  CCTP
DIMENSION :    757
EDGE_WEIGHT_TYPE : 	EUC_2D	
CAPACITY : 	998
VERTICES_WITHIN_COVERAGE :  11
VERTICES_WITH_DEMAND : 	97
NODE_COORD_SECTION
1 0 0
2 236 951
3 735 289
4 841 735
5 846 821
6 907 810
7 55 136
8 699 326
9 731 899
10 739 753
11 807 828
12 775 783
13 891 689
14 62 93
15 780 220
16 799 739
17 661 348
18 865 688
19 12 4
20 829 827
21 845 896
22 136 243
23 878 584
24 908 794
25 820 771
26 895 788
27 747 915
28 860 746
29 829 754
30 94 149
31 940 847
32 884 747
33 226 904
34 738 802
35 194 98
36 789 744
37 929 895
38 864 696
39 84 161
40 764 615
41 283 937
42 776 807
43 877 427
44 828 266
45 297 994
46 665 900
47 15 93
48 100 956
49 850 790
50 854 794
51 898 679
52 948 888
53 731 282
54 60 87
55 826 362
56 716 264
57 885 814
58 932 825
59 308 926
60 225 130
61 853 861
62 794 753
63 771 729
64 264 853
65 780 693
66 837 723
67 895 849
68 746 715
69 736 862
70 734 730
71 616 228
72 7 80
73 93 860
74 860 765
75 877 734
76 819 798
77 706 922
78 861 714
79 710 149
80 268 903
81 783 808
82 811 865
83 231 950
84 929 771
85 717 857
86 767 755
87 250 924
88 972 543
89 114 955
90 931 866
91 796 414
92 708 270
93 893 755
94 175 956
95 928 757
96 712 401
97 911 968
98 73 240
99 273 9
100 729 595
101 855 718
102 246 872
103 828 875
104 991 591
105 256 913
106 916 785
107 572 373
108 794 708
109 954 807
110 929 743
111 754 655
112 739 882
113 914 788
114 840 785
115 688 415
116 872 383
117 100 253
118 825 737
119 934 881
120 61 122
121 723 293
122 210 984
123 871 845
124 263 916
125 689 176
126 267 798
127 709 162
128 778 748
129 868 711
130 888 705
131 275 849
132 721 780
133 725 784
134 732 339
135 153 957
136 133 309
137 856 654
138 241 951
139 713 376
140 838 377
141 876 764
142 114 992
143 877 851
144 904 766
145 781 784
146 901 846
147 832 916
148 82 123
149 854 803
150 860 788
151 886 728
152 721 227
153 821 575
154 833 775
155 740 699
156 815 870
157 912 794
158 52 131
159 278 957
160 823 346
161 707 335
162 735 870
163 881 748
164 286 992
165 852 889
166 795 680
167 234 986
168 950 871
169 93 187
170 242 902
171 166 240
172 831 436
173 826 244
174 913 959
175 762 783
176 838 765
177 869 785
178 953 964
179 936 737
180 819 800
181 226 948
182 900 582
183 716 261
184 724 340
185 882 786
186 76 158
187 932 900
188 843 826
189 944 819
190 182 953
191 871 819
192 795 277
193 90 898
194 837 658
195 48 57
196 335 937
197 768 713
198 703 796
199 626 928
200 847 721
201 791 822
202 836 834
203 840 350
204 267 903
205 865 981
206 887 753
207 213 883
208 132 331
209 99 100
210 976 899
211 716 733
212 866 711
213 268 882
214 867 615
215 929 807
216 625 238
217 237 947
218 209 895
219 766 806
220 723 817
221 756 859
222 46 127
223 709 1000
224 829 844
225 689 268
226 13 80
227 896 935
228 754 764
229 942 954
230 716 719
231 834 758
232 207 941
233 756 865
234 265 892
235 757 729
236 915 874
237 6 88
238 853 309
239 875 839
240 32 84
241 715 176
242 834 807
243 847 710
244 914 878
245 226 73
246 968 877
247 781 749
248 922 793
249 821 387
250 672 327
251 879 696
252 624 939
253 813 750
254 908 891
255 818 143
256 938 847
257 869 297
258 814 792
259 980 924
260 642 92
261 942 817
262 752 219
263 935 940
264 873 727
265 896 683
266 938 763
267 219 930
268 697 393
269 818 777
270 741 316
271 760 270
272 291 911
273 774 940
274 901 284
275 838 610
276 702 710
277 837 729
278 863 747
279 110 210
280 941 368
281 840 786
282 27 249
283 885 720
284 726 72
285 927 828
286 936 839
287 67 303
288 814 755
289 267 996
290 835 904
291 169 925
292 697 124
293 503 227
294 762 808
295 625 396
296 278 907
297 35 134
298 169 67
299 909 870
300 731 272
301 17 50
302 40 968
303 912 691
304 895 657
305 227 938
306 789 714
307 831 793
308 628 75
309 44 140
310 833 331
311 819 774
312 863 563
313 251 969
314 929 741
315 857 859
316 828 756
317 176 937
318 861 803
319 828 850
320 142 224
321 732 656
322 702 411
323 89 906
324 259 902
325 896 852
326 124 963
327 685 731
328 88 97
329 855 747
330 161 273
331 202 878
332 171 74
333 237 989
334 886 835
335 189 960
336 123 142
337 846 781
338 866 728
339 692 575
340 816 730
341 844 756
342 220 944
343 773 798
344 879 728
345 183 931
346 185 301
347 797 735
348 934 784
349 667 332
350 901 705
351 845 758
352 692 835
353 195 161
354 874 804
355 65 312
356 167 965
357 262 49
358 804 363
359 886 775
360 754 423
361 289 968
362 685 588
363 821 861
364 232 876
365 802 662
366 152 128
367 913 784
368 45 151
369 648 249
370 174 343
371 902 811
372 287 979
373 759 909
374 871 772
375 231 949
376 757 759
377 830 706
378 73 64
379 346 925
380 781 691
381 696 707
382 776 662
383 696 935
384 569 224
385 835 929
386 716 466
387 814 851
388 949 924
389 760 725
390 980 884
391 881 597
392 922 516
393 42 137
394 788 704
395 239 159
396 823 797
397 785 161
398 901 843
399 968 847
400 816 769
401 16 117
402 850 917
403 835 817
404 968 840
405 831 736
406 338 911
407 260 801
408 760 280
409 853 694
410 825 825
411 918 833
412 880 747
413 869 741
414 861 227
415 682 353
416 783 872
417 684 255
418 95 811
419 719 331
420 852 809
421 287 911
422 849 735
423 908 743
424 773 87
425 829 790
426 832 798
427 720 777
428 785 786
429 769 726
430 286 795
431 783 578
432 925 840
433 8 59
434 719 304
435 53 77
436 792 744
437 934 879
438 857 240
439 850 780
440 870 767
441 844 854
442 277 820
443 805 821
444 878 755
445 916 435
446 146 86
447 856 887
448 110 922
449 931 578
450 672 355
451 732 259
452 317 931
453 973 525
454 39 229
455 257 153
456 814 742
457 82 116
458 150 211
459 726 634
460 710 884
461 850 733
462 863 307
463 212 235
464 275 975
465 935 759
466 770 210
467 804 712
468 783 812
469 212 922
470 820 750
471 608 976
472 842 734
473 939 896
474 810 778
475 759 793
476 211 892
477 827 748
478 774 211
479 804 287
480 839 263
481 700 294
482 72 220
483 268 921
484 12 122
485 797 844
486 39 252
487 682 302
488 120 148
489 836 712
490 750 802
491 929 621
492 833 737
493 706 702
494 846 867
495 850 818
496 774 522
497 658 197
498 857 742
499 932 844
500 183 127
501 235 950
502 237 941
503 878 677
504 774 370
505 826 794
506 643 146
507 284 964
508 923 535
509 828 780
510 251 928
511 951 836
512 803 801
513 689 269
514 734 819
515 917 615
516 856 239
517 814 773
518 660 351
519 868 873
520 859 867
521 800 771
522 769 706
523 692 282
524 976 867
525 716 682
526 726 598
527 609 290
528 168 990
529 777 711
530 200 890
531 818 877
532 959 768
533 258 768
534 796 724
535 958 780
536 659 309
537 874 708
538 732 350
539 295 849
540 898 842
541 624 381
542 892 741
543 746 300
544 335 926
545 231 136
546 966 841
547 853 779
548 959 893
549 800 283
550 839 993
551 863 788
552 874 805
553 827 797
554 136 807
555 830 719
556 806 209
557 229 974
558 789 841
559 886 810
560 875 762
561 763 718
562 852 757
563 737 866
564 862 712
565 667 399
566 207 902
567 252 978
568 135 237
569 308 943
570 271 910
571 773 824
572 947 602
573 570 131
574 61 62
575 833 379
576 827 719
577 52 101
578 841 711
579 713 255
580 907 845
581 608 269
582 684 35
583 871 858
584 264 753
585 903 857
586 751 885
587 64 178
588 941 908
589 847 779
590 98 179
591 904 597
592 931 746
593 905 794
594 720 166
595 1000 903
596 805 243
597 244 869
598 707 281
599 915 854
600 851 601
601 746 297
602 775 388
603 851 678
604 820 904
605 44 30
606 871 740
607 622 948
608 850 899
609 885 799
610 274 938
611 967 914
612 178 992
613 814 836
614 233 962
615 847 409
616 39 279
617 760 285
618 764 749
619 835 828
620 899 710
621 700 183
622 2 53
623 815 861
624 868 814
625 61 239
626 802 823
627 863 924
628 80 983
629 322 951
630 848 746
631 817 752
632 816 765
633 132 885
634 84 115
635 732 699
636 202 948
637 876 743
638 895 863
639 855 741
640 909 770
641 225 216
642 698 282
643 62 45
644 326 960
645 63 74
646 916 952
647 843 720
648 741 389
649 15 700
650 755 393
651 784 775
652 284 984
653 906 914
654 735 247
655 699 915
656 876 761
657 687 312
658 703 304
659 828 841
660 640 831
661 799 827
662 856 774
663 119 158
664 641 38
665 783 686
666 811 194
667 886 733
668 938 870
669 50 152
670 852 386
671 784 231
672 947 808
673 199 66
674 874 731
675 792 362
676 260 934
677 739 293
678 302 925
679 920 680
680 727 777
681 792 789
682 765 844
683 777 747
684 84 103
685 63 130
686 67 892
687 932 891
688 299 878
689 70 70
690 820 800
691 63 163
692 660 210
693 806 848
694 664 357
695 887 761
696 907 786
697 254 765
698 888 615
699 758 801
700 897 690
701 831 711
702 850 832
703 764 223
704 801 237
705 818 899
706 896 832
707 784 445
708 66 147
709 797 805
710 961 977
711 833 398
712 845 852
713 783 782
714 906 809
715 528 179
716 936 778
717 850 711
718 968 849
719 343 963
720 305 869
721 824 742
722 794 779
723 34 17
724 884 859
725 58 297
726 3 78
727 867 798
728 825 537
729 875 801
730 750 924
731 859 772
732 928 885
733 805 790
734 728 309
735 47 96
736 846 891
737 42 148
738 867 826
739 76 950
740 912 823
741 836 730
742 722 262
743 876 816
744 36 129
745 835 705
746 126 210
747 64 163
748 833 725
749 714 839
750 842 793
751 763 751
752 778 664
753 881 774
754 874 366
755 801 210
756 736 780
757 883 819
DEMAND_SECTION
2 38
3 48
4 57
5 60
6 56
7 74
8 41
9 95
10 77
11 95
12 54
13 85
14 66
15 18
16 83
17 3
18 84
19 86
20 96
21 69
22 51
23 100
24 77
25 51
26 96
27 53
28 70
29 99
30 58
31 53
32 87
33 12
34 64
35 62
36 64
37 59
38 64
39 51
40 55
41 7
42 64
43 47
44 5
45 20
46 100
47 75
48 41
49 87
50 72
51 74
52 68
53 27
54 72
55 18
56 25
57 68
58 56
59 14
60 68
61 85
62 83
63 88
64 2
65 78
66 98
67 59
68 99
69 88
70 59
71 9
72 87
73 4
74 62
75 89
76 86
77 82
78 74
79 50
80 5
81 72
82 86
83 20
84 98
85 77
86 71
87 29
88 55
89 13
90 57
91 29
92 24
93 82
94 45
95 55
96 42
97 85
98 69
COVERAGE_SECTION
2 11 501 217 83 138 375 181 502 614 305 342 313 
3 11 677 53 121 601 543 300 734 434 617 408 270 
4 11 472 277 741 422 492 461 405 66 630 748 200 
5 11 495 188 403 702 420 619 202 20 242 149 410 
6 10 714 371 740 24 593 157 559 57 215 113 
7 11 158 685 309 222 393 120 708 669 368 737 297 
8 11 161 657 419 658 250 184 487 434 415 481 349 
9 11 112 27 586 460 162 373 730 77 563 655 69 
10 11 228 376 70 751 618 680 756 86 211 235 427 
11 11 443 626 661 613 201 410 485 693 20 558 387 
12 11 145 713 428 651 175 343 681 475 722 42 219 
13 11 700 265 51 251 130 503 350 303 620 537 18 
14 11 54 577 735 435 645 684 689 328 120 457 240 
15 10 478 671 466 703 755 704 262 556 596 666 
16 11 347 436 36 62 456 534 253 340 247 288 631 
17 11 518 694 450 349 415 250 536 8 657 161 541 
18 11 38 409 251 503 603 537 129 212 564 13 78 
19 10 723 605 301 622 433 195 643 726 72 226 
20 11 410 619 202 403 188 659 224 613 5 242 11 
21 11 736 608 165 290 447 402 147 604 103 705 494 
22 8 568 320 171 746 458 117 330 279 
23 11 391 182 312 591 600 214 698 275 515 449 153 
24 11 593 157 113 696 367 106 26 248 714 6 371 
25 11 311 400 269 517 632 474 509 154 288 316 29 
26 11 593 696 185 24 609 359 157 367 113 753 106 
27 11 730 373 9 586 112 273 77 162 460 655 563 
28 11 278 329 498 639 413 630 606 562 422 461 637 
29 11 316 231 477 470 631 721 176 288 341 253 351 
30 11 39 186 488 663 708 148 336 590 747 691 457 
31 10 256 286 499 511 432 90 58 285 668 168 
32 11 163 412 206 637 444 542 93 667 695 75 606 
33 10 170 218 476 566 469 207 267 364 530 87 
34 11 490 514 699 220 133 756 475 294 680 132 219 
35 10 500 673 332 298 245 60 446 366 545 353 
36 11 436 247 62 16 128 347 683 534 63 86 253 
37 11 687 187 473 732 119 437 588 52 254 244 236 
38 11 18 409 212 251 129 537 564 78 717 243 603 
39 10 186 30 747 691 590 708 587 169 663 669 
40 9 100 111 431 459 526 382 752 321 365 
41 11 610 159 483 678 676 421 569 59 272 507 124 
42 11 81 343 468 219 294 571 699 201 709 475 428 
43 11 615 445 116 172 670 711 754 140 575 249 91 
44 9 480 173 479 549 596 192 438 516 704 
45 11 164 652 372 361 464 289 507 159 644 567 629 
46 11 655 77 383 199 460 252 607 9 85 352 660 
47 10 237 226 72 240 726 401 484 735 433 577 
48 11 89 326 739 628 448 142 323 135 193 302 356 
49 11 50 750 150 337 439 114 281 547 589 551 149 
50 11 49 150 149 318 551 750 727 337 420 439 547 
51 10 265 700 13 303 503 304 679 251 350 130 
52 11 473 548 119 687 168 437 37 187 732 588 668 
53 11 3 300 121 677 601 742 56 451 543 598 434 
54 11 14 435 645 577 735 689 574 378 240 684 328 
55 10 160 203 575 140 358 249 310 675 670 711 
56 11 183 742 579 92 300 451 598 53 642 654 225 
57 10 559 757 743 552 191 354 609 729 371 624 
58 10 285 189 261 286 411 432 215 499 740 511 
59 11 678 452 569 272 421 41 544 196 629 406 296 
60 10 545 395 455 500 353 35 245 673 366 332 
61 9 315 520 494 441 712 583 519 123 143 
62 11 436 36 247 16 128 347 683 253 521 288 456 
63 11 429 389 235 561 197 529 683 128 618 247 36 
64 11 131 102 597 213 539 442 234 364 688 720 324 
65 11 380 665 394 522 529 166 108 197 306 752 561 
66 11 748 277 647 741 555 200 489 576 472 4 578 
67 11 325 146 398 540 585 580 638 724 334 706 143 
68 11 155 389 561 235 70 635 197 429 522 63 230 
69 10 563 162 85 112 221 233 586 749 460 682 
70 11 211 68 230 235 10 389 561 635 155 429 618 
71 6 216 369 581 384 692 497 
72 11 726 226 237 47 433 240 622 301 401 484 735 
73 7 193 686 323 633 418 448 554 
74 11 731 440 662 562 374 560 141 547 656 351 278 
75 11 674 344 264 606 637 667 151 413 338 412 32 
76 11 180 690 396 258 505 553 307 425 426 512 733 
77 11 655 383 9 460 27 730 46 112 373 586 162 
78 11 564 212 101 129 717 537 243 338 200 38 264 
79 8 127 594 241 292 125 621 506 497 
80 11 204 570 324 234 296 124 105 483 213 421 272 
81 11 468 42 343 709 201 219 571 294 512 681 428 
82 11 156 623 363 387 531 693 103 319 485 224 416 
83 11 375 501 2 181 217 138 502 614 305 342 267 
84 11 716 266 465 95 348 106 640 367 113 248 144 
85 11 749 69 162 563 460 112 352 221 220 233 514 
86 11 751 618 376 128 683 247 228 36 63 651 62 
87 11 510 105 676 124 483 502 170 324 570 217 204 
88 11 453 508 104 449 392 572 182 591 491 515 23 
89 11 326 48 448 142 739 135 628 356 323 94 193 
90 11 668 437 119 236 732 168 256 599 31 244 299 
91 11 602 707 249 711 172 360 650 504 575 615 358 
92 11 56 598 183 579 642 742 225 513 523 300 481 
93 11 206 695 32 163 542 412 444 144 656 141 423 
94 9 190 356 335 317 135 345 636 291 232 
95 10 465 592 266 84 110 314 179 716 640 423 
96 10 322 268 139 115 648 650 565 360 538 415 
97 8 174 646 229 227 263 178 205 710 
98 10 625 482 117 454 486 282 279 616 169 725 
99 9 357 245 673 35 298 332 60 545 455 
100 8 526 459 40 339 362 431 321 111 
101 11 78 200 564 717 243 647 212 129 338 461 578 
102 11 597 364 213 64 234 170 324 207 131 204 33 
103 11 531 156 363 623 82 494 736 319 441 705 21 
104 9 572 88 449 453 491 515 591 508 182 
105 11 124 324 87 483 204 570 80 510 170 676 234 
106 11 367 113 696 157 248 24 593 640 348 84 26 
107 5 541 295 518 527 17 
108 10 394 306 467 534 529 65 380 522 665 197 
109 7 672 189 261 215 535 58 511 
110 7 314 592 179 95 465 423 266 
111 9 321 382 752 459 40 665 380 65 155 
112 11 586 162 563 9 69 233 221 460 85 27 373 
113 10 106 367 157 696 24 248 593 26 640 348 
114 11 281 337 750 589 49 439 154 307 425 509 547 
115 11 322 268 565 96 139 386 648 415 450 694 295 
116 11 754 670 140 615 575 711 43 203 55 249 160 
117 11 98 22 568 625 482 279 746 320 287 486 725 
118 11 721 405 492 340 477 456 741 277 470 748 4 
119 11 437 732 687 668 37 90 52 473 168 187 236 
120 10 685 158 7 222 148 457 577 393 634 309 
121 11 434 3 53 677 734 598 300 481 601 658 543 
122 11 557 167 333 335 614 612 636 181 83 342 375 
123 9 239 143 583 334 724 738 315 61 67 
124 11 483 105 570 80 204 87 324 296 510 676 234 
125 7 621 127 241 594 79 497 692 
126 10 407 430 442 533 697 584 131 64 539 597 
127 8 594 79 241 621 125 292 497 152 
128 11 683 247 36 86 618 436 751 62 63 16 347 
129 11 212 564 537 78 101 38 264 338 717 251 283 
130 10 620 251 350 537 283 13 700 129 151 212 
131 11 64 539 442 213 720 102 597 688 234 407 364 
132 11 427 133 680 756 198 34 10 490 220 228 475 
133 11 132 680 427 756 34 198 490 220 10 228 475 
134 8 184 538 419 161 270 734 8 434 
135 10 356 94 190 317 326 291 335 528 89 345 
136 11 208 330 346 370 117 22 287 355 568 171 725 
137 8 194 603 503 18 304 409 214 38 
138 11 2 217 501 83 375 502 614 181 305 313 342 
139 9 268 96 648 538 322 184 415 161 134 
140 11 575 670 55 249 711 203 615 160 116 358 754 
141 11 560 656 440 374 444 695 753 359 74 206 163 
142 11 326 628 89 48 135 528 739 356 612 448 94 
143 8 123 583 724 239 67 334 325 315 
144 11 640 93 695 359 367 696 206 106 423 26 113 
145 11 713 428 12 651 681 722 343 175 521 42 81 
146 8 398 540 580 67 325 585 706 599 
147 10 290 385 604 402 705 21 608 736 627 165 
148 11 457 634 684 685 120 328 30 209 708 7 158 
149 10 420 318 50 49 727 150 495 750 551 624 
150 11 551 50 177 49 547 727 439 318 662 149 337 
151 9 667 344 283 75 674 264 542 637 32 
152 8 654 579 262 183 451 742 56 703 
153 10 431 728 275 600 312 23 214 391 40 496 
154 11 509 176 114 281 25 311 337 269 589 425 231 
155 11 635 68 525 522 561 197 230 70 389 235 493 
156 11 82 531 623 363 103 387 319 693 705 224 494 
157 11 24 113 593 696 106 248 367 714 6 26 371 
158 11 7 222 685 309 393 120 744 297 737 368 669 
159 11 507 361 464 610 41 372 652 676 313 567 569 
160 8 55 203 310 358 140 575 675 249 
161 9 8 419 184 134 538 657 415 658 434 
162 11 563 69 112 85 233 586 221 9 460 749 682 
163 11 412 32 637 206 444 542 606 93 413 656 695 
164 11 652 45 372 289 464 361 507 159 567 313 333 
165 10 447 736 21 608 290 494 519 520 61 103 
166 9 665 380 365 65 752 394 382 108 467 
167 11 333 557 567 122 313 614 289 2 83 138 501 
168 11 668 52 437 119 246 90 548 31 524 732 256 
169 11 590 39 279 587 186 30 691 747 482 663 746 
170 11 33 324 105 87 124 204 234 80 364 510 102 
171 8 320 22 568 330 458 463 746 279 
172 11 615 711 91 43 707 249 670 575 140 116 55 
173 11 596 44 480 704 516 438 414 556 755 671 192 
174 7 646 97 227 229 263 178 653 
175 11 475 12 699 145 343 228 713 490 219 428 651 
176 11 231 351 154 341 316 29 562 589 337 509 25 
177 10 551 150 185 374 727 731 753 50 547 662 
178 8 229 710 263 646 174 388 97 259 
179 4 314 110 592 95 
180 11 690 76 396 258 505 553 426 307 425 512 242 
181 11 83 375 342 501 2 305 217 502 138 614 267 
182 11 591 23 391 449 698 515 312 214 491 572 508 
183 11 56 742 579 92 451 300 598 654 53 225 513 
184 9 134 419 538 161 8 270 734 434 139 
185 10 359 753 26 177 609 729 374 551 727 354 
186 9 39 747 691 708 30 587 669 7 590 
187 11 37 473 687 588 732 119 52 437 254 244 548 
188 11 5 619 702 202 495 403 20 410 420 242 659 
189 10 261 672 58 109 511 215 285 286 31 432 
190 8 94 335 317 356 636 345 232 135 
191 9 624 743 738 757 552 57 354 559 729 
192 3 549 479 44 
193 9 323 686 448 73 633 739 48 89 326 
194 7 137 603 365 409 18 503 38 
195 10 574 643 435 645 378 689 605 240 54 301 
196 10 544 379 452 629 644 406 719 569 59 678 
197 11 522 561 529 429 389 63 235 306 68 394 65 
198 9 132 133 427 220 680 34 756 514 352 
199 11 252 607 46 471 383 655 77 460 660 9 223 
200 11 647 101 66 717 243 461 578 277 422 472 489 
201 11 661 626 468 443 81 11 571 709 558 42 485 
202 11 619 20 188 659 224 410 702 5 403 319 712 
203 10 160 55 310 140 575 358 670 754 249 238 
204 11 80 324 570 234 296 124 105 483 213 421 170 
205 7 550 97 174 227 627 646 385 
206 11 93 32 163 695 412 444 542 656 560 637 141 
207 10 476 331 218 530 364 566 33 597 102 170 
208 11 136 370 346 330 355 287 725 117 22 568 171 
209 8 328 684 634 457 148 14 54 689 
210 10 390 611 548 246 595 259 52 524 588 388 
211 11 230 70 276 10 327 381 493 68 635 235 155 
212 11 129 564 78 537 101 38 717 264 338 243 251 
213 11 234 80 204 324 102 296 597 570 64 688 105 
214 10 600 698 391 275 23 137 591 182 304 515 
215 10 248 261 58 672 189 157 285 6 714 740 
216 6 71 369 581 692 497 527 
217 11 2 501 138 375 502 83 181 305 614 342 510 
218 8 476 566 530 207 331 33 469 364 
219 11 294 699 42 343 475 490 81 468 571 175 12 
220 11 514 34 749 198 490 133 352 132 699 756 85 
221 7 233 682 69 563 162 586 112 
222 9 158 744 393 7 297 309 120 685 737 
223 10 383 77 655 730 273 27 607 9 373 471 
224 11 659 319 202 20 387 613 619 441 712 363 410 
225 9 513 417 523 642 92 598 56 579 183 
226 11 72 726 237 47 240 433 622 301 401 735 435 
227 5 653 646 174 627 97 
228 11 376 86 751 618 10 175 756 12 128 475 683 
229 9 178 263 646 174 710 388 97 588 611 
230 11 211 276 493 70 381 635 68 155 327 525 10 
231 11 29 316 176 341 351 477 470 154 562 630 631 
232 10 636 342 267 181 305 469 375 83 335 345 
233 8 221 563 69 586 162 682 112 416 
234 11 213 80 204 324 570 296 105 124 170 102 421 
235 11 389 429 561 63 68 197 618 70 751 522 529 
236 11 244 299 732 90 254 119 437 599 585 638 668 
237 10 72 47 726 226 240 433 401 484 622 301 
238 8 462 257 310 203 160 480 44 274 
239 10 123 143 334 738 583 191 67 706 724 757 
240 10 47 226 735 435 72 237 577 54 726 14 
241 8 594 127 621 125 79 152 292 262 
242 11 426 403 553 307 396 505 690 750 76 180 5 
243 11 717 578 101 200 489 647 745 78 564 66 701 
244 11 236 299 254 732 119 437 90 687 37 585 599 
245 11 673 35 357 332 60 298 545 500 99 446 455 
246 11 524 390 548 168 52 210 718 399 668 119 437 
247 11 128 683 36 436 62 86 618 751 16 347 63 
248 10 113 106 157 367 24 348 215 593 696 716 
249 11 575 711 140 55 358 670 615 91 675 160 203 
250 10 349 657 536 17 8 487 518 415 450 694 
251 11 130 537 13 38 18 129 503 700 212 265 564 
252 11 607 199 471 46 383 655 77 460 223 660 9 
253 11 631 288 470 456 477 721 632 29 316 16 118 
254 8 244 236 37 299 732 653 687 187 
255 9 397 666 556 755 424 478 466 15 414 
256 10 31 499 286 432 511 90 285 58 668 411 
257 9 462 238 274 480 310 44 438 516 203 
258 11 76 180 733 396 690 505 512 553 425 474 269 
259 8 611 210 595 388 548 390 588 52 
260 11 308 506 664 292 582 573 284 79 125 127 497 
261 10 189 672 58 109 215 285 511 286 411 432 
262 10 703 466 478 15 152 654 671 451 755 271 
263 8 229 388 646 174 178 588 97 227 
264 11 674 344 338 75 151 606 283 667 413 637 129 
265 10 51 700 13 303 503 251 130 350 679 304 
266 10 465 84 95 716 592 348 110 532 314 179 
267 10 305 469 342 232 181 502 375 83 217 636 
268 11 96 322 139 115 565 415 648 450 694 538 518 
269 11 311 25 517 400 474 509 632 154 258 425 733 
270 10 734 543 601 677 134 434 419 3 121 184 
271 6 408 617 300 451 601 3 
272 11 421 296 678 570 59 80 204 483 41 124 234 
273 10 730 373 27 604 9 586 705 385 147 112 
274 8 257 462 238 438 516 480 414 44 
275 8 600 214 153 391 23 137 194 698 
276 9 381 493 230 211 327 525 635 70 155 
277 11 741 66 748 4 472 405 492 647 555 200 422 
278 11 28 329 413 498 639 606 637 562 630 412 444 
279 9 746 169 590 320 568 482 458 22 117 
280 9 754 116 445 43 670 274 462 257 140 
281 11 114 750 337 589 49 307 425 439 154 509 426 
282 5 486 454 616 625 98 
283 10 151 344 667 264 130 75 537 674 620 129 
284 11 424 582 292 79 260 127 664 594 308 241 397 
285 9 58 411 432 286 740 499 189 261 215 
286 10 499 256 31 432 285 58 511 411 189 261 
287 9 355 725 616 486 117 98 625 136 282 
288 11 631 253 470 632 456 316 400 29 477 721 25 
289 11 164 652 464 567 372 45 313 333 167 361 507 
290 11 147 21 604 608 736 705 402 165 385 447 103 
291 4 317 345 190 94 
292 11 79 127 594 125 241 506 621 284 260 497 308 
293 7 715 384 71 581 573 216 527 
294 11 219 699 490 42 343 475 571 81 468 34 175 
295 9 541 565 694 518 107 17 450 115 415 
296 11 570 421 80 204 272 124 483 234 324 105 213 
297 7 744 393 309 222 737 158 7 
298 6 332 446 673 35 245 500 
299 11 236 244 585 638 599 254 90 325 732 67 146 
300 11 53 451 742 3 56 183 121 677 92 579 654 
301 11 433 622 226 726 72 195 605 240 723 237 47 
302 11 739 628 48 89 142 323 686 326 448 193 135 
303 7 679 700 51 265 350 13 620 
304 10 51 265 503 13 700 679 303 137 251 18 
305 11 342 181 502 267 375 83 217 501 2 138 232 
306 10 108 394 529 534 467 197 347 522 63 65 
307 11 425 426 505 553 396 281 750 114 76 509 690 
308 11 260 664 582 506 573 292 284 79 125 127 497 
309 9 393 737 297 368 7 158 222 669 744 
310 8 160 203 238 55 462 358 140 575 
311 11 25 269 517 400 632 474 509 154 258 425 521 
312 11 23 391 600 182 153 728 214 275 591 698 508 
313 11 567 614 138 2 557 167 333 464 501 217 83 
314 6 110 592 179 95 465 423 
315 9 61 520 441 494 583 712 519 123 143 
316 11 29 231 477 470 631 176 288 632 721 253 341 
317 6 345 291 190 94 335 636 
318 10 149 727 50 420 354 552 624 729 150 551 
319 11 224 659 363 387 441 623 712 202 613 693 20 
320 7 458 568 22 746 171 279 117 
321 8 111 459 525 635 155 382 752 40 
322 11 96 115 268 139 565 648 360 650 386 415 450 
323 10 193 448 686 73 739 633 48 89 326 628 
324 11 204 80 105 234 570 124 170 296 483 213 87 
325 10 67 146 585 398 540 638 580 724 143 599 
326 11 89 48 135 142 356 448 628 739 94 528 317 
327 7 381 276 211 230 493 70 635 
328 10 684 209 634 457 14 148 54 689 645 378 
329 11 28 498 639 630 278 562 422 341 351 413 461 
330 10 171 346 22 568 136 320 458 117 463 208 
331 7 207 530 476 218 566 364 33 
332 7 298 446 673 35 500 245 366 
333 11 167 557 567 313 122 614 289 2 138 83 501 
334 9 706 239 540 757 67 398 123 143 146 
335 9 190 94 636 356 232 317 345 122 612 
336 7 488 663 30 366 39 148 590 
337 11 589 439 114 547 281 49 662 750 154 50 150 
338 11 264 674 75 344 413 606 78 101 564 129 212 
339 5 362 526 100 459 40 
340 10 118 456 721 405 576 492 555 748 16 253 
341 11 351 562 231 176 630 329 29 316 74 28 477 
342 11 181 305 375 83 232 267 501 2 217 502 636 
343 11 42 219 81 12 294 475 699 145 428 468 175 
344 10 75 264 674 151 667 283 338 606 637 413 
345 5 317 291 190 636 94 
346 10 330 370 136 208 171 463 22 568 320 641 
347 11 16 436 534 36 62 456 340 247 253 306 128 
348 10 716 84 248 106 113 266 367 157 215 535 
349 11 250 17 518 450 536 694 415 657 8 487 161 
350 5 620 130 700 303 13 
351 11 341 562 176 231 630 329 29 74 316 28 662 
352 10 749 85 220 198 514 69 460 660 162 563 
353 6 500 60 395 545 366 35 
354 10 552 729 727 609 624 743 318 559 57 191 
355 9 287 725 616 486 136 117 208 98 625 
356 10 94 135 190 335 528 317 612 345 636 291 
357 11 99 245 673 35 60 545 332 298 455 500 395 
358 10 675 55 160 249 504 575 140 203 602 310 
359 11 753 185 695 141 374 26 560 656 440 144 177 
360 10 650 648 707 602 91 96 322 386 504 139 
361 11 507 372 159 464 652 164 45 569 41 610 289 
362 5 339 526 100 459 40 
363 11 623 82 156 387 319 103 531 224 693 659 441 
364 11 597 102 207 476 170 33 218 331 530 213 566 
365 8 166 752 382 665 194 380 65 394 
366 6 500 336 488 446 663 35 
367 11 106 113 696 157 24 248 593 640 26 144 84 
368 6 737 669 309 393 7 297 
369 4 216 417 71 692 
370 11 346 208 136 330 171 22 355 568 287 463 117 
371 10 714 6 559 740 57 593 24 157 609 757 
372 11 652 361 164 464 507 45 159 289 567 313 41 
373 10 27 730 586 9 112 273 233 416 162 563 
374 11 440 141 753 560 656 731 74 177 359 662 185 
375 11 83 501 2 181 217 138 502 305 342 614 267 
376 11 228 751 86 618 10 683 128 175 247 12 235 
377 11 701 745 489 578 555 576 243 66 647 748 717 
378 9 689 574 645 643 435 54 195 14 328 
379 8 544 196 406 452 629 59 719 644 
380 11 65 665 394 166 522 529 108 306 197 752 382 
381 9 276 493 230 327 525 211 635 70 155 
382 9 752 111 665 166 365 380 65 321 394 
383 11 77 655 46 9 460 27 730 223 112 373 199 
384 10 71 216 581 715 293 527 369 692 497 573 
385 8 147 402 290 627 604 21 608 705 
386 11 322 360 115 96 707 268 496 648 565 650 139 
387 11 693 623 363 82 319 613 224 659 485 156 11 
388 10 588 263 611 187 473 229 259 548 37 52 
389 11 235 561 429 63 197 68 522 529 618 70 751 
390 11 246 210 524 548 595 52 168 611 718 399 259 
391 10 23 698 214 591 182 600 312 515 275 449 
392 11 508 453 88 449 182 312 23 445 591 572 391 
393 9 309 297 744 222 737 158 7 368 669 
394 10 108 306 529 65 380 467 522 665 197 534 
395 8 455 545 60 353 641 500 35 463 
396 11 76 505 553 690 180 307 425 426 258 242 509 
397 10 255 666 466 478 556 755 15 594 703 262 
398 8 146 540 580 67 325 706 585 334 
399 10 718 546 404 511 524 31 168 246 256 286 
400 11 25 517 632 311 269 474 288 509 521 631 154 
401 7 484 744 47 297 237 222 393 
402 8 627 147 608 385 290 21 736 165 
403 11 242 619 5 20 188 410 495 202 420 426 702 
404 9 546 399 718 511 524 31 256 189 286 
405 11 492 118 741 277 721 4 472 748 477 66 340 
406 8 544 379 196 452 59 678 629 569 
407 11 126 442 430 533 697 584 131 64 539 597 102 
408 7 617 271 601 543 677 3 53 
409 11 38 18 603 243 717 564 212 578 745 78 129 
410 11 20 619 403 202 613 659 11 188 224 242 443 
411 8 285 432 740 58 580 499 286 398 
412 11 163 32 637 444 206 606 75 413 542 93 656 
413 11 606 637 278 28 75 674 498 338 412 163 639 
414 10 516 438 173 480 44 556 596 666 704 755 
415 11 450 694 17 518 349 250 161 8 139 657 268 
416 9 233 82 221 485 156 558 682 693 623 
417 6 225 513 92 523 579 642 
418 6 554 73 633 686 193 323 
419 9 184 161 134 8 538 734 270 434 658 
420 11 149 495 318 5 50 624 242 49 188 403 727 
421 11 272 296 570 80 483 678 204 124 41 59 234 
422 11 461 472 4 639 498 630 277 329 200 741 28 
423 7 542 93 110 314 144 206 592 
424 10 284 255 397 292 79 594 127 582 241 666 
425 11 307 505 553 396 426 509 114 281 76 690 750 
426 11 307 553 505 242 396 425 750 690 76 180 281 
427 10 132 680 133 756 198 10 34 228 490 220 
428 11 145 713 681 12 651 722 343 733 521 81 709 
429 11 63 389 561 235 197 529 522 683 306 128 618 
430 10 126 407 442 533 697 584 131 539 64 720 
431 11 153 40 100 496 728 526 275 600 459 312 111 
432 9 499 411 286 285 256 31 58 599 580 
433 11 622 301 726 72 226 237 47 240 195 605 435 
434 11 734 121 658 481 3 677 53 270 598 419 543 
435 11 645 54 574 14 689 735 195 240 378 577 643 
436 11 36 16 62 347 247 128 683 534 253 456 288 
437 11 119 732 668 687 90 37 52 168 473 236 244 
438 10 516 414 480 173 44 596 704 257 556 274 
439 11 547 589 337 662 49 114 281 731 150 50 551 
440 11 374 141 560 656 74 731 753 444 662 177 359 
441 11 712 61 494 315 319 224 520 659 202 702 363 
442 11 126 407 430 131 539 64 533 720 597 697 102 
443 11 626 11 661 201 613 709 410 512 468 485 20 
444 11 656 163 412 560 141 206 32 695 637 440 93 
445 11 43 116 280 615 392 670 754 172 711 140 508 
446 5 332 298 366 35 209 
447 8 165 736 608 21 519 520 494 61 
448 10 323 193 89 48 326 633 739 686 135 291 
449 11 572 182 591 515 491 508 23 391 88 698 104 
450 11 694 415 17 518 349 250 8 161 565 268 139 
451 11 742 654 300 183 56 579 53 92 3 271 598 
452 11 59 569 678 196 544 629 406 379 644 272 41 
453 11 88 508 392 104 449 572 182 591 491 515 445 
454 5 282 486 625 482 98 
455 9 395 545 60 353 641 500 35 245 463 
456 11 253 470 631 721 118 340 288 477 16 347 405 
457 11 634 148 684 328 120 209 685 14 7 158 577 
458 6 320 746 568 171 22 279 
459 7 321 111 526 100 40 525 382 
460 11 9 85 112 162 563 655 69 77 586 749 27 
461 11 422 472 4 639 498 200 630 277 741 329 647 
462 8 238 257 310 274 203 480 44 160 
463 9 641 171 330 458 320 346 22 353 568 
464 11 372 652 507 361 159 164 289 567 313 45 610 
465 10 266 95 84 592 110 314 716 179 348 532 
466 10 478 15 703 262 671 755 556 704 666 596 
467 10 108 534 306 394 340 347 576 16 377 529 
468 11 81 42 201 571 709 343 219 294 626 661 512 
469 8 267 232 566 305 33 342 218 636 
470 11 631 253 477 288 721 29 316 456 118 231 632 
471 10 607 252 199 46 383 223 655 77 460 9 
472 11 4 277 422 741 461 492 405 66 630 748 200 
473 11 187 687 37 52 588 119 732 437 548 668 168 
474 11 517 269 311 400 25 521 733 632 258 722 509 
475 11 699 175 490 219 294 343 12 42 34 145 713 
476 9 218 207 530 566 331 33 364 469 170 
477 11 29 470 721 316 118 631 231 405 492 253 456 
478 10 466 15 703 671 262 755 556 704 666 596 
479 3 549 192 44 
480 11 44 173 438 516 596 414 479 549 257 192 704 
481 10 658 642 523 598 487 434 657 121 92 513 
482 9 98 625 454 169 279 117 587 486 590 
483 11 124 570 105 676 296 80 87 204 510 610 324 
484 4 401 744 297 47 
485 11 558 693 661 387 11 613 626 201 443 82 623 
486 7 282 454 625 616 98 482 725 
487 9 657 481 658 523 536 642 250 8 598 
488 8 336 663 30 39 366 590 148 186 
489 11 578 701 745 377 555 66 243 576 647 748 200 
490 11 699 34 294 475 219 175 343 514 42 756 12 
491 11 515 572 591 698 449 182 304 391 679 214 23 
492 11 405 4 118 741 277 472 721 748 477 66 422 
493 9 276 381 230 525 635 211 155 327 70 
494 11 61 441 520 315 712 103 447 165 519 736 319 
495 11 5 420 188 702 403 149 619 624 242 318 738 
496 11 728 431 153 707 386 100 526 40 312 339 360 
497 7 692 125 621 71 216 369 506 
498 11 639 28 329 278 630 422 461 413 606 562 4 
499 10 286 256 432 31 285 411 58 599 511 90 
500 9 35 366 353 60 545 332 446 298 336 
501 11 2 83 217 375 138 181 502 614 305 342 313 
502 11 217 501 2 305 375 83 138 181 342 510 87 
503 11 18 13 251 265 51 700 38 304 603 130 409 
504 7 602 675 650 358 648 538 91 
505 11 553 396 307 425 426 76 690 180 258 509 242 
506 10 497 260 125 292 692 79 127 621 308 573 
507 11 361 159 464 372 652 41 164 610 569 45 313 
508 11 392 449 88 453 182 591 312 23 572 391 515 
509 11 154 269 425 311 25 114 281 307 505 400 517 
510 11 87 676 105 124 483 502 217 138 610 305 2 
511 11 286 31 546 256 404 189 399 261 499 718 58 
512 11 709 733 258 76 180 681 690 396 443 81 626 
513 8 225 523 417 642 92 598 56 481 
514 9 220 34 490 749 294 699 219 133 475 
515 11 491 591 698 572 182 391 449 304 23 214 679 
516 10 438 414 480 173 44 596 704 556 257 755 
517 11 400 311 25 269 474 632 521 509 288 154 258 
518 11 17 694 450 349 415 250 536 8 541 657 565 
519 5 520 583 315 447 61 
520 7 61 315 519 494 583 441 447 
521 11 722 474 517 400 651 632 62 269 311 25 681 
522 11 197 529 561 65 380 394 429 389 306 63 665 
523 9 642 513 225 481 598 92 487 658 417 
524 10 246 390 718 399 168 404 546 548 210 52 
525 8 493 635 155 276 321 381 230 68 
526 8 100 459 339 40 362 321 431 111 
527 5 581 536 216 369 71 
528 11 612 356 94 135 335 190 122 326 142 317 636 
529 11 197 522 306 394 561 108 429 65 63 380 389 
530 7 218 476 331 566 207 33 469 
531 11 156 103 82 363 623 705 387 604 319 494 693 
532 6 535 266 716 465 84 348 
533 9 697 584 126 407 430 442 131 64 539 
534 10 347 306 467 16 108 436 36 340 394 529 
535 7 532 716 348 266 109 84 672 
536 6 250 349 487 657 17 518 
537 10 129 212 251 564 78 130 38 283 264 101 
538 8 134 184 419 161 139 270 648 8 
539 10 131 720 688 64 442 213 234 102 430 597 
540 8 398 146 67 580 325 706 334 585 
541 8 295 518 565 694 17 107 450 415 
542 11 32 667 163 206 412 93 151 423 637 75 344 
543 9 601 677 3 270 734 617 53 121 408 
544 9 196 379 406 452 59 629 569 678 644 
545 10 60 395 455 353 500 35 245 673 366 641 
546 9 404 399 718 511 31 524 256 286 189 
547 11 439 589 662 337 731 49 150 551 114 50 281 
548 11 52 210 246 473 611 390 588 168 687 119 187 
549 3 479 192 44 
550 6 205 385 627 97 147 402 
551 10 150 177 50 727 49 547 318 439 662 731 
552 10 354 729 727 624 743 318 559 609 57 191 
553 11 505 396 426 307 425 76 690 180 242 258 750 
554 4 418 73 633 331 
555 11 576 748 66 701 489 277 377 647 741 578 745 
556 11 755 666 15 704 671 478 596 466 173 703 397 
557 11 167 614 333 122 313 567 2 83 375 501 138 
558 8 485 661 693 201 11 626 571 682 
559 10 57 757 609 743 354 552 729 371 191 624 
560 11 656 141 440 444 374 695 753 74 163 206 412 
561 11 197 389 429 235 522 63 529 68 306 394 65 
562 11 351 341 329 74 630 28 278 176 498 639 662 
563 11 69 162 112 233 221 85 586 460 9 749 682 
564 11 78 212 129 101 717 537 243 38 338 200 264 
565 11 115 268 322 295 694 450 96 541 415 518 17 
566 8 218 476 530 33 207 469 331 267 
567 11 313 333 167 289 464 557 614 138 2 159 501 
568 8 22 320 746 458 171 279 117 330 
569 11 452 629 59 678 644 41 196 361 507 544 159 
570 11 80 204 296 124 483 324 105 421 234 272 87 
571 8 468 42 201 81 219 294 682 558 
572 10 491 449 515 591 104 182 698 88 391 23 
573 11 715 506 308 260 384 71 497 293 664 216 692 
574 10 378 645 689 195 435 643 54 14 240 605 
575 11 140 249 55 711 670 203 358 615 160 116 754 
576 11 555 748 701 66 489 377 277 741 340 578 647 
577 10 735 14 54 120 435 240 222 645 158 685 
578 11 489 243 745 647 717 701 200 377 66 555 101 
579 11 183 56 742 92 451 654 300 225 598 513 152 
580 9 146 398 540 599 67 325 585 411 706 
581 5 527 216 71 369 384 
582 11 664 284 308 260 292 424 79 506 127 594 125 
583 8 143 123 724 315 519 520 61 239 
584 8 533 697 126 430 407 442 131 64 
585 10 325 638 67 146 599 580 299 398 540 724 
586 10 112 233 162 9 563 373 221 69 27 416 
587 7 691 747 186 39 169 669 708 
588 11 187 473 37 388 687 52 548 732 611 119 437 
589 11 337 439 547 114 281 662 49 731 154 750 150 
590 10 169 39 30 186 663 279 587 488 691 747 
591 11 182 515 391 698 23 449 491 214 572 312 600 
592 8 110 314 179 95 465 266 423 84 
593 11 24 157 696 113 26 367 106 714 6 248 371 
594 9 241 127 79 621 125 292 152 262 397 
595 9 210 390 259 611 246 548 524 52 388 
596 10 704 173 671 44 755 15 556 192 480 549 
597 11 102 364 64 213 234 170 207 324 131 33 476 
598 11 642 92 481 523 56 121 183 225 513 658 53 
599 9 580 585 146 299 432 398 325 90 236 
600 10 275 214 391 23 153 312 698 137 182 591 
601 9 543 677 3 617 270 53 408 734 121 
602 9 504 650 675 91 648 358 360 249 55 
603 10 409 18 38 194 137 503 745 243 251 717 
604 11 705 290 147 21 531 385 736 103 608 402 156 
605 10 723 643 195 301 574 19 378 433 435 622 
606 11 413 637 75 674 278 412 28 163 264 338 344 
607 11 252 199 471 46 383 655 77 223 460 660 9 
608 10 21 736 165 447 290 402 147 627 604 494 
609 10 729 559 354 185 552 26 57 727 743 757 
610 11 41 676 483 159 124 510 87 507 570 421 105 
611 9 259 210 388 548 588 52 390 473 595 
612 11 528 356 122 335 94 190 135 636 557 317 167 
613 11 11 693 387 659 410 20 224 443 661 626 485 
614 11 2 83 501 375 557 138 181 217 313 502 342 
615 11 711 670 172 140 575 249 43 116 55 91 754 
616 8 725 486 282 287 355 625 454 98 
617 6 408 271 601 543 677 3 
618 11 751 86 376 683 128 247 228 63 235 389 429 
619 11 20 202 188 410 403 5 659 702 224 495 242 
620 5 350 130 283 700 13 
621 7 125 241 127 594 79 497 692 
622 11 433 301 726 72 226 237 47 240 195 605 723 
623 11 82 363 156 387 531 693 319 103 224 659 485 
624 10 191 743 552 354 738 318 729 727 757 57 
625 8 98 482 454 486 282 117 616 279 
626 11 443 661 11 201 613 709 468 485 512 558 410 
627 5 402 385 608 147 21 
628 11 739 48 142 302 89 326 448 135 323 193 528 
629 11 644 569 196 452 719 544 59 678 379 361 507 
630 11 329 639 498 341 422 28 351 562 4 461 472 
631 11 253 288 470 456 477 29 316 721 632 118 400 
632 11 400 25 517 311 288 269 631 474 253 316 470 
633 5 448 193 73 323 291 
634 11 457 148 684 328 209 120 685 14 30 577 7 
635 10 155 68 525 230 493 70 276 561 381 211 
636 9 232 335 342 190 181 267 345 305 94 
637 11 412 606 163 413 32 75 444 674 278 667 206 
638 8 585 325 724 67 299 146 398 540 
639 11 498 329 28 422 461 630 278 413 4 472 562 
640 11 144 367 696 106 113 84 93 26 95 24 157 
641 9 463 395 353 171 455 458 545 320 60 
642 10 523 598 481 92 513 225 658 56 487 121 
643 9 574 195 378 605 689 645 435 723 54 
644 9 629 719 196 569 452 544 59 361 379 
645 11 689 435 574 54 378 14 195 735 577 643 240 
646 8 174 97 263 227 229 178 653 388 
647 11 200 66 578 243 277 489 717 748 101 741 555 
648 9 650 96 139 602 360 504 538 268 322 
649 6 418 554 73 686 193 323 
650 9 648 602 360 504 96 139 91 675 538 
651 11 713 145 428 722 12 521 681 175 62 343 86 
652 11 372 164 464 45 361 507 289 159 567 313 41 
653 4 227 254 37 187 
654 11 451 742 579 152 183 56 300 262 271 53 92 
655 11 77 383 460 9 46 27 112 730 162 373 586 
656 11 560 141 444 440 695 374 163 206 753 412 32 
657 10 487 8 658 250 481 349 536 161 523 642 
658 10 481 434 657 487 8 121 598 642 523 734 
659 11 224 319 202 20 613 619 410 387 712 188 363 
660 8 352 198 46 749 85 220 460 514 
661 11 626 11 443 201 485 558 613 468 693 709 81 
662 11 731 547 439 74 589 337 150 374 440 551 49 
663 7 488 336 30 590 39 169 186 
664 11 308 582 260 284 292 506 573 79 127 424 125 
665 11 380 65 166 394 752 522 108 382 529 306 197 
666 11 556 755 15 478 397 466 704 671 596 255 173 
667 10 151 75 344 542 674 283 32 264 637 412 
668 11 90 437 119 168 732 52 687 31 236 256 244 
669 8 368 737 309 7 393 691 708 747 
670 11 140 116 575 711 615 754 249 55 203 43 160 
671 10 15 704 478 703 596 466 755 556 262 173 
672 9 109 261 189 215 58 348 285 511 248 
673 9 245 332 298 35 446 500 357 60 545 
674 11 75 264 344 338 606 413 151 637 667 283 412 
675 8 358 504 602 55 160 249 575 140 
676 11 510 87 483 610 124 105 41 502 138 217 570 
677 10 3 601 543 53 121 734 300 617 270 434 
678 11 59 452 272 569 421 41 296 610 544 629 483 
679 6 303 51 265 700 13 350 
680 11 132 133 427 756 10 34 228 198 490 376 175 
681 11 428 722 713 145 733 512 651 709 12 521 81 
682 7 221 571 233 558 485 416 69 
683 11 128 247 36 86 618 436 751 62 63 429 16 
684 10 328 634 457 209 148 14 54 120 577 685 
685 11 120 7 158 222 708 148 309 393 457 634 669 
686 11 193 323 73 448 739 633 48 89 302 418 326 
687 11 37 732 187 473 119 437 52 588 244 668 236 
688 10 720 539 213 272 421 296 234 131 80 204 
689 11 378 645 574 435 54 14 195 643 328 735 577 
690 11 180 76 396 505 553 258 426 307 425 242 512 
691 9 747 186 587 708 669 39 368 737 7 
692 6 497 369 125 216 71 621 
693 11 387 485 613 623 82 558 11 363 319 661 224 
694 11 518 450 17 415 349 250 565 8 541 161 536 
695 11 93 206 141 444 656 560 32 163 359 753 412 
696 11 367 113 24 593 106 157 26 640 248 144 714 
697 8 533 584 126 407 430 442 131 64 
698 10 391 214 591 515 23 182 600 491 304 137 
699 11 294 475 490 219 343 175 42 34 12 81 468 
700 10 13 265 51 303 350 130 251 620 503 679 
701 11 377 489 745 555 576 578 66 748 647 243 200 
702 10 188 5 202 495 619 738 403 712 20 420 
703 10 262 466 15 478 671 654 755 704 152 556 
704 10 596 671 173 15 755 556 478 44 192 703 
705 11 604 290 147 531 103 21 156 736 608 385 82 
706 9 334 540 398 146 67 580 740 757 325 
707 11 91 360 172 602 650 711 249 386 648 615 504 
708 9 186 7 691 747 669 685 158 368 39 
709 11 512 81 468 681 733 201 443 626 42 258 428 
710 7 178 229 263 97 174 646 388 
711 11 249 615 575 140 670 55 172 91 116 358 203 
712 11 441 61 315 494 319 224 202 659 520 702 188 
713 11 145 428 651 12 681 722 343 521 175 733 42 
714 10 6 371 24 593 740 157 559 57 113 215 
715 11 293 384 573 71 216 506 581 497 692 527 369 
716 10 348 84 266 465 106 248 95 535 113 367 
717 11 243 101 578 200 78 647 564 489 212 745 409 
718 10 399 546 404 524 511 31 168 246 256 286 
719 8 644 629 196 379 544 569 452 59 
720 10 688 539 131 213 64 272 234 421 296 80 
721 11 118 477 405 470 456 492 631 29 253 340 316 
722 11 521 681 428 651 713 145 474 733 12 517 258 
723 10 605 19 301 643 195 622 433 574 378 435 
724 7 143 638 583 325 67 123 585 
725 9 287 355 616 486 282 625 98 117 454 
726 11 72 226 237 47 433 622 240 301 401 484 735 
727 10 318 354 729 552 551 150 177 50 149 624 
728 11 153 312 496 431 600 23 275 391 182 214 508 
729 10 354 552 727 609 318 559 624 743 57 177 
730 11 27 373 273 9 586 112 77 655 383 162 460 
731 11 662 74 547 374 439 440 589 150 177 337 551 
732 11 119 687 437 37 187 244 473 236 668 90 52 
733 11 258 512 474 681 76 722 180 709 269 690 396 
734 11 434 270 121 677 543 3 601 419 658 53 134 
735 10 577 14 54 240 435 645 120 222 47 158 
736 11 21 165 608 447 290 103 494 402 520 519 147 
737 7 368 309 669 393 297 7 158 
738 10 191 624 743 239 757 702 123 495 334 5 
739 11 48 628 89 302 448 323 326 193 142 686 135 
740 8 411 6 714 285 371 706 58 432 
741 11 277 748 4 66 472 405 492 647 118 555 200 
742 11 56 183 451 579 300 92 654 53 598 3 121 
743 9 191 624 757 57 552 354 559 738 729 
744 8 297 222 393 309 158 7 737 401 
745 11 377 489 701 578 243 555 576 717 647 66 200 
746 9 279 320 458 568 22 169 590 117 171 
747 9 691 186 587 708 669 39 368 737 7 
748 11 66 277 741 555 576 405 647 492 4 472 489 
749 11 85 352 220 514 69 563 162 34 198 460 221 
750 11 281 114 49 307 426 50 337 425 439 589 149 
751 11 618 86 376 128 683 228 247 63 235 10 389 
752 9 382 166 665 365 111 380 65 394 522 
753 11 359 374 141 185 440 560 656 695 177 444 26 
754 11 116 670 140 203 575 55 615 711 310 160 249 
755 11 556 666 15 478 671 704 466 596 703 173 262 
756 11 680 133 132 427 34 228 175 475 490 10 376 
757 10 57 743 559 191 334 624 354 552 738 706 
DEPOT_SECTION
   1
   -1
EOF
