NAME :  X-n979-kX-w195-c11.cctp
COMMENT : 	Adapted by Maziero, Usberti and Cavellucci from the Uchoa, Pecin, Pessoa, Poggi, Subramanian, and Vidal (2013)
TYPE :  CCTP
DIMENSION :    917
EDGE_WEIGHT_TYPE : 	EUC_2D	
CAPACITY : 	998
VERTICES_WITHIN_COVERAGE :  11
VERTICES_WITH_DEMAND : 	195
NODE_COORD_SECTION
1 0 0
2 236 951
3 735 289
4 841 735
5 846 821
6 907 810
7 55 136
8 699 326
9 731 899
10 739 753
11 807 828
12 775 783
13 891 689
14 62 93
15 780 220
16 799 739
17 661 348
18 865 688
19 12 4
20 829 827
21 845 896
22 136 243
23 878 584
24 908 794
25 820 771
26 895 788
27 747 915
28 860 746
29 829 754
30 94 149
31 940 847
32 884 747
33 226 904
34 738 802
35 194 98
36 789 744
37 929 895
38 864 696
39 84 161
40 764 615
41 283 937
42 776 807
43 877 427
44 828 266
45 297 994
46 665 900
47 15 93
48 100 956
49 850 790
50 854 794
51 898 679
52 948 888
53 731 282
54 60 87
55 826 362
56 716 264
57 885 814
58 932 825
59 308 926
60 225 130
61 853 861
62 794 753
63 771 729
64 264 853
65 780 693
66 837 723
67 895 849
68 746 715
69 736 862
70 734 730
71 616 228
72 7 80
73 93 860
74 860 765
75 877 734
76 819 798
77 706 922
78 861 714
79 710 149
80 268 903
81 783 808
82 811 865
83 231 950
84 929 771
85 717 857
86 767 755
87 250 924
88 972 543
89 114 955
90 931 866
91 796 414
92 708 270
93 893 755
94 175 956
95 928 757
96 712 401
97 911 968
98 73 240
99 273 9
100 729 595
101 35 166
102 144 36
103 855 718
104 246 872
105 145 125
106 828 875
107 991 591
108 256 913
109 916 785
110 572 373
111 794 708
112 293 607
113 954 807
114 929 743
115 766 280
116 649 291
117 467 677
118 754 655
119 739 882
120 914 788
121 840 785
122 688 415
123 872 383
124 100 253
125 825 737
126 934 881
127 61 122
128 805 306
129 723 293
130 210 984
131 871 845
132 263 916
133 689 176
134 916 696
135 267 798
136 709 162
137 778 748
138 868 711
139 888 705
140 275 849
141 721 780
142 39 209
143 725 784
144 732 339
145 153 957
146 228 685
147 133 309
148 968 772
149 856 654
150 9 152
151 241 951
152 713 376
153 838 377
154 876 764
155 597 423
156 114 992
157 877 851
158 919 703
159 904 766
160 72 31
161 466 393
162 781 784
163 901 846
164 832 916
165 82 123
166 854 803
167 860 788
168 886 728
169 721 227
170 821 575
171 833 775
172 740 699
173 815 870
174 987 925
175 912 794
176 52 131
177 278 957
178 978 690
179 771 292
180 823 346
181 707 335
182 169 906
183 735 870
184 881 748
185 286 992
186 852 889
187 795 680
188 234 986
189 950 871
190 93 187
191 242 902
192 166 240
193 831 436
194 826 244
195 913 959
196 762 783
197 899 829
198 838 765
199 869 785
200 953 964
201 866 944
202 936 737
203 819 800
204 159 845
205 226 948
206 900 582
207 716 261
208 724 340
209 882 786
210 37 115
211 76 158
212 932 900
213 933 720
214 16 220
215 697 613
216 794 288
217 843 826
218 944 819
219 182 953
220 871 819
221 795 277
222 27 151
223 90 898
224 837 658
225 48 57
226 335 937
227 768 713
228 703 796
229 784 302
230 626 928
231 847 721
232 27 180
233 791 822
234 836 834
235 840 350
236 267 903
237 865 981
238 887 753
239 213 883
240 132 331
241 99 100
242 976 899
243 678 226
244 906 926
245 716 733
246 866 711
247 268 882
248 904 726
249 867 615
250 929 807
251 625 238
252 237 947
253 209 895
254 766 806
255 464 628
256 723 817
257 756 859
258 149 12
259 46 127
260 709 1000
261 829 844
262 973 811
263 689 268
264 13 80
265 896 935
266 754 764
267 942 954
268 716 719
269 813 654
270 834 758
271 207 941
272 756 865
273 265 892
274 757 729
275 915 874
276 184 925
277 6 88
278 913 733
279 853 309
280 875 839
281 32 84
282 715 176
283 834 807
284 847 710
285 444 396
286 914 878
287 856 642
288 226 73
289 968 877
290 781 749
291 922 793
292 821 387
293 110 34
294 134 191
295 672 327
296 879 696
297 624 939
298 813 750
299 908 891
300 818 143
301 938 847
302 869 297
303 814 792
304 980 924
305 637 554
306 642 92
307 978 788
308 942 817
309 752 219
310 182 910
311 935 940
312 14 181
313 873 727
314 896 683
315 571 612
316 938 763
317 219 930
318 697 393
319 818 777
320 741 316
321 760 270
322 291 911
323 998 998
324 774 940
325 901 284
326 838 610
327 702 710
328 837 729
329 863 747
330 110 210
331 941 368
332 840 786
333 955 703
334 27 249
335 885 720
336 726 72
337 927 828
338 936 839
339 67 303
340 6 173
341 450 456
342 814 755
343 916 839
344 267 996
345 835 904
346 19 162
347 169 925
348 697 124
349 503 227
350 762 808
351 995 982
352 625 396
353 278 907
354 789 275
355 35 134
356 169 67
357 909 870
358 731 272
359 17 50
360 40 968
361 912 691
362 895 657
363 970 746
364 227 938
365 789 714
366 831 793
367 628 75
368 44 140
369 833 331
370 819 774
371 863 563
372 7 208
373 251 969
374 929 741
375 857 859
376 828 756
377 176 937
378 861 803
379 828 850
380 142 224
381 785 320
382 732 656
383 702 411
384 89 906
385 259 902
386 896 852
387 124 963
388 685 731
389 88 97
390 763 297
391 855 747
392 161 273
393 202 878
394 171 74
395 237 989
396 780 303
397 886 835
398 189 960
399 823 650
400 123 142
401 846 781
402 866 728
403 692 575
404 816 730
405 670 282
406 844 756
407 220 944
408 773 798
409 879 728
410 183 931
411 807 714
412 185 301
413 797 735
414 934 784
415 667 332
416 24 204
417 901 705
418 845 758
419 692 835
420 195 161
421 984 717
422 878 867
423 874 804
424 65 312
425 167 965
426 21 154
427 262 49
428 804 363
429 513 373
430 886 775
431 754 423
432 289 968
433 685 588
434 821 861
435 232 876
436 802 662
437 152 128
438 913 784
439 45 151
440 648 249
441 174 343
442 902 811
443 287 979
444 874 872
445 759 909
446 170 875
447 871 772
448 231 949
449 757 759
450 830 706
451 73 64
452 181 209
453 346 925
454 781 691
455 939 690
456 696 707
457 776 662
458 696 935
459 914 713
460 569 224
461 835 929
462 716 466
463 814 851
464 949 924
465 760 725
466 918 734
467 801 957
468 980 884
469 881 597
470 922 516
471 937 722
472 42 137
473 788 704
474 239 159
475 823 797
476 477 752
477 785 161
478 901 843
479 968 847
480 816 769
481 16 117
482 850 917
483 835 817
484 568 403
485 688 214
486 968 840
487 831 736
488 338 911
489 926 697
490 260 801
491 760 280
492 328 778
493 853 694
494 825 825
495 966 756
496 918 833
497 880 747
498 869 741
499 861 227
500 682 353
501 783 872
502 684 255
503 95 811
504 719 331
505 852 809
506 287 911
507 849 735
508 908 743
509 842 941
510 773 87
511 829 790
512 116 68
513 0 210
514 832 798
515 990 962
516 720 777
517 785 786
518 769 726
519 286 795
520 33 167
521 783 578
522 925 840
523 48 159
524 8 59
525 719 304
526 53 77
527 792 744
528 934 879
529 823 685
530 857 240
531 850 780
532 116 45
533 624 288
534 164 904
535 870 767
536 844 854
537 277 820
538 805 821
539 878 755
540 916 435
541 146 86
542 856 887
543 110 922
544 931 578
545 672 355
546 732 259
547 317 931
548 973 525
549 905 720
550 39 229
551 257 153
552 950 721
553 814 742
554 82 116
555 176 916
556 184 928
557 150 211
558 726 634
559 710 884
560 850 733
561 964 690
562 863 307
563 212 235
564 275 975
565 935 759
566 770 210
567 988 760
568 804 712
569 23 152
570 783 812
571 212 922
572 820 750
573 608 976
574 842 734
575 939 896
576 987 811
577 810 778
578 909 838
579 759 793
580 211 892
581 1 392
582 827 748
583 685 761
584 774 211
585 804 287
586 770 312
587 763 294
588 839 263
589 700 294
590 723 658
591 72 220
592 268 921
593 12 122
594 101 42
595 797 844
596 39 252
597 682 302
598 120 148
599 836 712
600 750 802
601 929 621
602 833 737
603 706 702
604 846 867
605 850 818
606 774 522
607 789 290
608 658 197
609 857 742
610 932 844
611 183 127
612 235 950
613 237 941
614 759 362
615 868 831
616 878 677
617 774 370
618 826 794
619 643 146
620 284 964
621 990 710
622 923 535
623 828 780
624 251 928
625 951 836
626 985 682
627 35 186
628 803 801
629 689 269
630 734 819
631 917 615
632 856 239
633 30 129
634 814 773
635 660 351
636 178 887
637 672 213
638 868 873
639 859 867
640 800 771
641 769 706
642 692 282
643 976 867
644 938 693
645 716 682
646 980 804
647 726 598
648 609 290
649 168 990
650 777 711
651 200 890
652 818 877
653 981 802
654 959 768
655 258 768
656 796 724
657 119 103
658 958 780
659 659 309
660 181 203
661 874 708
662 732 350
663 295 849
664 898 842
665 624 381
666 892 741
667 746 300
668 335 926
669 231 136
670 966 841
671 910 716
672 853 779
673 959 893
674 800 283
675 839 993
676 863 788
677 874 805
678 827 797
679 136 807
680 830 719
681 806 209
682 963 696
683 229 974
684 789 841
685 886 810
686 875 762
687 763 718
688 852 757
689 737 866
690 862 712
691 667 399
692 207 902
693 252 978
694 135 237
695 308 943
696 776 317
697 271 910
698 773 824
699 947 602
700 823 315
701 570 131
702 61 62
703 833 379
704 827 719
705 52 101
706 841 711
707 713 255
708 907 845
709 608 269
710 684 35
711 871 858
712 264 753
713 932 800
714 903 857
715 751 885
716 64 178
717 941 908
718 847 779
719 98 179
720 904 597
721 931 746
722 905 794
723 720 166
724 1000 903
725 951 722
726 805 243
727 244 869
728 707 281
729 915 854
730 851 601
731 746 297
732 864 201
733 775 388
734 851 678
735 820 904
736 44 30
737 871 740
738 622 948
739 732 204
740 55 163
741 850 899
742 885 799
743 274 938
744 967 914
745 178 992
746 129 97
747 814 836
748 233 962
749 847 409
750 39 279
751 760 285
752 963 944
753 764 749
754 835 828
755 899 710
756 700 183
757 2 53
758 156 160
759 815 861
760 868 814
761 61 239
762 802 823
763 863 924
764 312 683
765 80 983
766 322 951
767 848 746
768 817 752
769 816 765
770 132 885
771 544 344
772 84 115
773 732 699
774 202 948
775 876 743
776 895 863
777 855 741
778 909 770
779 225 216
780 698 282
781 62 45
782 326 960
783 63 74
784 916 952
785 733 350
786 843 720
787 741 389
788 15 700
789 755 393
790 784 775
791 284 984
792 906 914
793 735 247
794 699 915
795 876 761
796 687 312
797 703 304
798 828 841
799 640 831
800 799 827
801 940 721
802 856 774
803 119 158
804 641 38
805 783 686
806 811 194
807 871 802
808 886 733
809 938 870
810 50 152
811 852 386
812 663 797
813 784 231
814 947 808
815 199 66
816 874 731
817 950 736
818 792 362
819 738 343
820 260 934
821 739 293
822 302 925
823 920 680
824 727 777
825 737 663
826 792 789
827 765 844
828 777 747
829 656 600
830 84 103
831 63 130
832 988 787
833 531 320
834 67 892
835 932 891
836 299 878
837 70 70
838 699 636
839 820 800
840 139 176
841 63 163
842 660 210
843 806 848
844 664 357
845 887 761
846 907 786
847 254 765
848 888 615
849 758 801
850 897 690
851 831 711
852 850 832
853 764 223
854 963 762
855 888 719
856 801 237
857 818 899
858 896 832
859 784 445
860 66 147
861 797 805
862 961 977
863 833 398
864 845 852
865 783 782
866 906 809
867 528 179
868 936 778
869 850 711
870 968 849
871 343 963
872 26 377
873 305 869
874 999 797
875 824 742
876 794 779
877 34 17
878 884 859
879 58 297
880 3 78
881 867 798
882 825 537
883 875 801
884 750 924
885 859 772
886 928 885
887 805 790
888 728 309
889 47 96
890 846 891
891 665 274
892 42 148
893 867 826
894 76 950
895 912 823
896 836 730
897 722 262
898 876 816
899 36 129
900 812 315
901 835 705
902 126 210
903 986 649
904 100 21
905 582 337
906 64 163
907 903 926
908 833 725
909 714 839
910 842 793
911 763 751
912 778 664
913 881 774
914 874 366
915 801 210
916 736 780
917 883 819
DEMAND_SECTION
2 38
3 48
4 57
5 60
6 56
7 74
8 41
9 95
10 77
11 95
12 54
13 85
14 66
15 18
16 83
17 3
18 84
19 86
20 96
21 69
22 51
23 100
24 77
25 51
26 96
27 53
28 70
29 99
30 58
31 53
32 87
33 12
34 64
35 62
36 64
37 59
38 64
39 51
40 55
41 7
42 64
43 47
44 5
45 20
46 100
47 75
48 41
49 87
50 72
51 74
52 68
53 27
54 72
55 18
56 25
57 68
58 56
59 14
60 68
61 85
62 83
63 88
64 2
65 78
66 98
67 59
68 99
69 88
70 59
71 9
72 87
73 4
74 62
75 89
76 86
77 82
78 74
79 50
80 5
81 72
82 86
83 20
84 98
85 77
86 71
87 29
88 55
89 13
90 57
91 29
92 24
93 82
94 45
95 55
96 42
97 85
98 69
99 90
100 93
101 78
102 78
103 56
104 39
105 56
106 77
107 53
108 43
109 65
110 10
111 67
112 23
113 96
114 52
115 36
116 10
117 18
118 74
119 73
120 95
121 88
122 47
123 11
124 73
125 57
126 100
127 51
128 34
129 50
130 34
131 87
132 13
133 39
134 71
135 5
136 42
137 79
138 65
139 56
140 15
141 76
142 72
143 56
144 4
145 8
146 28
147 70
148 56
149 73
150 65
151 8
152 41
153 12
154 80
155 36
156 4
157 77
158 69
159 69
160 91
161 79
162 89
163 70
164 79
165 89
166 52
167 83
168 72
169 9
170 95
171 53
172 80
173 68
174 57
175 70
176 94
177 33
178 51
179 3
180 47
181 40
182 21
183 67
184 62
185 49
186 96
187 53
188 41
189 88
190 54
191 4
192 91
193 14
194 8
195 94
196 92
COVERAGE_SECTION
2 11 612 252 83 151 448 205 613 748 364 407 373 
3 11 821 53 129 731 667 358 888 525 751 491 320 
4 11 574 328 896 507 602 560 487 66 767 908 231 
5 11 605 217 483 852 505 754 234 20 283 166 494 
6 11 866 442 895 24 722 175 197 685 57 250 120 
7 11 176 831 368 259 472 127 860 810 439 892 355 
8 11 181 796 504 797 295 208 597 525 500 589 415 
9 11 119 27 715 559 183 445 884 77 689 794 69 
10 11 266 449 70 911 753 824 916 86 245 274 516 
11 11 538 762 800 747 233 494 595 843 20 684 463 
12 11 162 865 517 790 196 408 826 579 876 42 254 
13 11 850 314 51 296 139 616 417 361 755 661 18 
14 11 54 705 889 526 783 830 837 389 127 554 281 
15 11 584 813 566 853 915 856 309 681 726 806 739 
16 11 413 527 36 62 553 656 298 404 290 342 768 
17 11 635 844 545 415 500 295 659 8 796 181 665 
18 11 38 493 296 616 734 661 138 246 690 13 78 
19 11 877 736 359 757 524 225 781 160 880 72 264 
20 11 494 754 234 483 217 798 261 747 5 283 11 
21 11 890 741 186 345 542 482 164 735 106 857 604 
22 11 694 380 192 902 557 124 392 330 294 452 660 
23 11 469 206 371 720 730 249 848 326 631 544 170 
24 11 722 175 120 846 438 109 26 291 866 6 442 
25 11 370 480 319 634 769 577 623 171 342 376 29 
26 11 722 846 209 24 742 430 175 438 120 913 109 
27 11 884 445 9 715 119 324 77 183 559 794 689 
28 11 329 391 609 777 498 767 737 688 507 560 775 
29 11 376 270 582 572 768 875 198 342 406 298 418 
30 11 39 211 598 803 860 165 400 719 906 841 554 
31 11 301 338 610 625 522 90 58 337 809 343 189 
32 11 184 497 238 775 539 666 93 808 845 75 737 
33 10 191 253 580 692 571 239 317 435 651 87 
34 11 600 630 849 256 143 916 579 350 824 141 254 
35 11 611 815 394 356 288 60 541 437 669 105 420 
36 11 527 290 62 16 137 413 828 656 63 86 298 
37 11 835 212 575 886 126 528 717 52 299 286 275 
38 11 18 493 246 296 138 661 690 78 869 284 734 
39 11 211 30 906 841 719 860 716 190 740 803 810 
40 11 100 118 521 558 647 457 912 382 825 590 436 
41 11 743 177 592 822 820 506 695 59 322 620 132 
42 11 81 408 570 254 350 698 849 233 861 579 517 
43 11 749 540 123 193 811 863 914 153 703 292 91 
44 11 588 194 585 674 726 221 530 632 216 354 856 
45 11 185 791 443 432 564 344 620 177 782 693 766 
46 11 794 77 458 230 559 297 738 9 85 419 799 
47 11 277 264 72 281 880 481 593 210 889 524 705 
48 11 89 387 894 765 543 156 384 145 223 360 425 
49 11 50 910 167 401 531 121 332 672 718 676 166 
50 11 49 167 166 378 676 910 881 401 505 531 672 
51 11 314 850 13 361 616 362 823 134 296 417 139 
52 11 575 673 126 835 189 528 37 212 886 717 809 
53 11 3 358 129 821 731 897 56 546 667 728 525 
54 11 14 526 783 705 889 837 702 451 281 830 389 
55 11 180 235 703 153 428 292 369 818 811 863 700 
56 11 207 897 707 92 358 546 728 53 780 793 263 
57 11 685 917 898 677 220 423 742 883 442 760 807 
58 11 337 218 308 338 496 522 250 610 895 343 625 
59 11 822 547 695 322 506 41 668 226 766 488 353 
60 11 669 474 551 611 420 35 288 815 437 758 394 
61 11 375 639 604 536 864 711 638 131 444 157 422 
62 11 527 36 290 16 137 413 828 298 640 342 553 
63 11 518 465 274 687 227 650 828 137 753 290 36 
64 11 140 104 727 247 663 537 273 435 836 873 385 
65 11 454 805 473 641 650 187 111 227 365 912 687 
66 11 908 328 786 896 680 231 599 704 574 4 706 
67 11 386 163 478 664 714 708 776 878 397 858 157 
68 11 172 465 687 274 70 773 227 518 641 63 268 
69 10 689 183 85 119 257 272 715 909 559 827 
70 11 245 68 268 274 10 465 687 773 172 518 753 
71 9 251 440 709 460 842 608 637 533 243 
72 11 880 264 277 47 524 281 757 359 481 593 889 
73 10 223 834 384 770 503 543 204 679 446 534 
74 11 885 535 802 688 447 686 154 672 795 418 329 
75 11 816 409 313 737 775 808 168 498 402 497 32 
76 11 203 839 475 303 618 678 366 511 514 628 887 
77 11 794 458 9 559 27 884 46 119 445 715 183 
78 11 690 246 103 138 869 661 284 402 231 38 313 
79 11 136 723 282 348 133 756 739 619 485 608 637 
80 11 236 697 385 273 353 132 108 592 247 506 322 
81 11 570 42 408 861 233 254 698 350 628 826 517 
82 11 173 759 434 463 652 843 106 379 595 261 501 
83 11 448 612 2 205 252 151 613 748 364 407 317 
84 11 868 316 565 95 414 109 778 438 120 291 159 
85 11 909 69 183 689 559 119 419 257 256 272 630 
86 11 911 753 449 137 828 290 266 36 63 790 62 
87 11 624 108 820 132 592 613 191 385 697 252 236 
88 11 548 622 107 544 470 699 206 720 601 631 23 
89 11 387 48 543 156 894 145 765 425 384 94 223 
90 11 809 528 126 275 886 189 301 729 31 286 357 
91 11 733 859 292 863 193 431 789 617 703 749 428 
92 11 56 728 207 707 780 897 263 629 642 358 589 
93 11 238 845 32 184 666 497 539 159 795 154 508 
94 11 219 425 398 377 145 410 774 556 276 347 271 
95 11 565 721 316 84 114 374 202 868 778 508 466 
96 11 383 318 152 122 787 789 691 431 662 785 500 
97 11 195 784 267 265 311 200 244 907 237 201 862 
98 11 761 591 124 550 596 142 334 330 750 190 879 
99 11 427 288 815 35 356 394 258 60 102 669 551 
100 11 647 215 558 40 403 433 838 521 382 590 118 
101 11 520 523 232 346 222 426 439 569 892 627 740 
102 11 258 532 293 356 512 594 904 394 541 746 815 
103 11 78 231 690 869 284 786 246 138 402 560 706 
104 11 727 435 247 64 273 191 385 239 140 236 33 
105 11 437 400 746 598 657 758 611 541 803 840 241 
106 11 652 173 434 759 82 604 890 379 536 857 21 
107 11 699 88 903 544 548 601 631 720 622 206 626 
108 11 132 385 87 592 236 697 80 624 191 820 273 
109 11 438 120 846 175 291 24 722 778 414 84 26 
110 11 484 905 771 665 155 352 429 833 635 648 17 
111 11 473 365 568 411 656 650 65 454 641 805 227 
112 11 764 146 712 847 655 255 492 117 519 135 490 
113 11 814 218 308 262 713 250 646 653 658 58 625 
114 11 374 721 202 95 466 565 278 508 316 471 817 
115 11 491 751 321 179 587 390 354 607 731 396 229 
116 9 659 405 891 533 597 648 440 295 796 
117 6 255 476 315 764 492 112 
118 11 825 382 457 912 590 558 40 805 454 65 172 
119 11 715 183 689 9 69 272 257 559 85 27 445 
120 11 109 438 175 846 24 291 722 26 778 414 713 
121 11 332 401 910 718 49 531 171 366 511 623 672 
122 11 383 318 691 96 152 462 787 500 545 844 352 
123 11 914 811 153 749 703 863 43 235 55 292 180 
124 11 98 22 694 761 591 330 902 380 339 596 879 
125 11 875 487 602 404 582 553 896 328 572 908 4 
126 11 528 886 835 809 37 90 52 575 189 212 275 
127 11 831 176 7 259 165 554 705 472 772 210 368 
128 11 900 585 700 216 229 607 381 674 396 221 696 
129 11 525 3 53 821 888 728 358 589 731 797 667 
130 11 683 188 395 398 748 745 774 205 83 407 448 
131 11 280 157 711 615 397 878 893 375 422 61 67 
132 11 592 108 697 80 236 87 385 353 624 820 273 
133 11 756 136 282 723 79 608 485 637 842 243 739 
134 11 361 158 489 823 417 459 850 671 644 755 314 
135 11 490 519 537 655 847 712 140 64 663 492 727 
136 11 723 79 282 756 133 348 739 485 608 637 169 
137 11 828 290 36 86 753 527 911 62 63 16 413 
138 11 246 690 661 78 103 38 313 402 869 296 335 
139 11 755 296 417 661 855 335 13 850 138 168 246 
140 11 64 663 537 247 873 104 727 836 273 490 435 
141 11 516 143 824 916 228 34 10 600 256 266 579 
142 11 416 550 627 214 232 372 591 761 312 513 716 
143 11 141 824 516 916 34 228 600 256 10 266 579 
144 11 819 208 662 785 504 181 320 888 8 614 525 
145 11 425 94 219 377 387 347 398 649 89 410 556 
146 10 712 764 847 655 112 135 490 519 492 537 
147 11 240 392 412 441 124 22 339 424 694 192 879 
148 11 654 854 658 495 307 567 832 363 316 653 868 
149 11 287 224 734 616 399 18 362 493 249 38 269 
150 10 426 346 569 222 340 520 312 101 593 633 
151 11 2 252 612 83 448 613 748 205 364 373 407 
152 11 318 96 787 662 785 383 208 500 181 819 144 
153 11 703 811 55 292 863 235 749 180 123 428 914 
154 11 686 795 535 447 539 845 913 430 74 238 184 
155 11 484 352 665 110 691 905 122 844 771 635 429 
156 11 387 765 89 48 145 649 894 425 745 543 94 
157 10 131 711 878 280 422 67 397 386 444 375 
158 11 134 489 459 361 671 417 644 755 213 549 823 
159 11 778 93 845 430 438 846 238 109 508 26 120 
160 11 781 736 904 594 451 702 225 293 837 877 783 
161 11 285 429 341 771 833 484 110 905 155 665 352 
162 11 865 517 12 790 826 876 408 196 640 42 81 
163 11 478 664 708 67 386 578 714 858 729 197 343 
164 11 345 461 735 482 857 21 741 509 890 763 186 
165 11 554 772 830 831 127 389 30 241 860 7 176 
166 11 505 378 50 49 881 167 605 910 676 807 760 
167 11 676 50 199 49 672 881 531 378 802 166 401 
168 11 808 409 335 855 75 816 313 666 248 775 32 
169 11 793 739 707 309 207 546 485 897 56 243 853 
170 11 521 882 326 730 371 23 249 469 40 606 399 
171 11 623 198 121 332 25 370 401 319 718 511 270 
172 11 773 68 645 641 687 227 268 70 465 274 603 
173 11 82 652 759 434 106 463 379 843 857 261 604 
174 11 304 744 724 242 752 515 464 468 673 717 200 
175 11 24 120 722 846 109 291 438 866 6 26 442 
176 11 7 259 831 368 472 127 899 355 892 439 810 
177 11 620 432 564 743 41 443 791 820 373 693 695 
178 9 626 561 682 621 333 421 455 644 552 
179 11 587 390 115 751 396 229 491 607 586 216 321 
180 11 55 235 369 428 700 900 153 703 818 292 128 
181 11 8 504 208 144 662 785 796 500 797 819 525 
182 10 534 555 310 347 636 276 556 410 446 377 
183 11 689 69 119 85 272 715 257 9 559 909 827 
184 11 497 32 775 238 539 666 737 93 498 795 845 
185 11 791 45 443 344 564 432 620 177 693 373 395 
186 10 542 890 21 741 345 604 638 639 61 106 
187 11 805 454 436 65 912 473 457 111 529 269 568 
188 11 395 683 693 130 373 748 344 2 83 151 612 
189 11 809 52 528 126 289 90 673 31 643 886 301 
190 11 719 39 330 716 211 30 841 906 591 803 902 
191 11 33 385 108 87 132 236 273 80 435 624 104 
192 11 380 22 694 392 557 452 660 563 902 294 330 
193 11 749 863 91 43 859 292 811 703 153 123 55 
194 11 726 44 588 856 632 530 499 681 915 813 221 
195 9 784 97 265 267 311 244 907 200 792 
196 11 579 12 849 162 408 266 865 600 254 517 790 
197 11 858 578 664 397 478 895 163 442 708 496 917 
198 11 270 418 171 406 376 29 688 718 401 623 25 
199 11 676 167 209 447 881 885 913 50 672 802 807 
200 11 267 862 752 311 515 784 195 464 97 351 304 
201 8 763 509 265 482 461 237 907 164 
202 11 374 114 721 817 471 801 213 466 552 725 95 
203 11 839 76 475 303 618 678 514 366 511 628 283 
204 8 446 679 636 770 393 534 651 182 
205 11 83 448 407 612 2 364 252 613 151 748 317 
206 11 720 23 469 544 848 631 371 249 601 699 622 
207 11 56 897 707 92 546 358 728 793 53 263 629 
208 11 144 504 662 785 819 181 8 320 888 525 152 
209 11 430 913 26 199 742 883 447 676 807 881 423 
210 10 899 259 633 355 481 705 889 176 472 127 
211 11 39 906 841 860 30 740 716 810 523 7 719 
212 11 37 575 835 717 886 126 52 528 299 286 673 
213 11 471 801 202 552 725 459 374 466 158 114 671 
214 11 372 416 513 142 550 334 312 596 627 232 340 
215 10 838 433 647 558 100 403 829 590 382 825 
216 11 607 674 585 221 354 229 128 396 179 115 390 
217 11 5 754 852 234 605 483 20 494 505 283 798 
218 11 308 814 58 113 625 250 337 338 713 31 522 
219 10 94 398 377 425 774 410 556 271 276 145 
220 11 760 898 893 615 917 677 57 423 685 807 883 
221 11 354 674 216 585 607 229 179 115 396 128 44 
222 10 569 426 346 892 101 520 150 439 355 368 
223 11 384 834 543 73 770 894 48 89 387 534 182 
224 11 399 149 269 734 287 529 436 493 18 616 38 
225 11 702 781 526 783 451 837 736 281 54 359 160 
226 10 668 453 547 766 782 488 871 695 59 822 
227 11 641 687 650 518 465 63 274 365 68 473 65 
228 11 141 143 516 256 824 34 916 583 630 812 419 
229 11 396 607 179 216 586 696 381 128 390 587 585 
230 11 297 738 46 573 458 794 77 559 799 9 260 
231 11 786 103 66 869 284 560 706 328 507 574 599 
232 11 627 312 520 101 346 340 416 426 569 222 523 
233 11 800 762 570 538 81 11 698 861 684 42 595 
234 11 754 20 217 798 261 494 852 5 483 379 864 
235 11 180 55 369 153 703 428 811 914 700 292 279 
236 11 80 385 697 273 353 132 108 592 247 506 191 
237 9 675 201 509 97 195 265 763 784 461 
238 11 93 32 184 845 497 539 666 795 686 775 154 
239 10 580 393 253 651 435 692 33 727 104 191 
240 11 147 441 412 392 424 339 879 124 22 694 192 
241 11 389 830 657 772 554 165 746 512 14 54 837 
242 11 468 744 673 289 724 304 174 52 643 717 464 
243 9 637 485 842 502 608 440 169 263 629 
244 6 907 792 265 784 311 195 
245 11 268 70 327 10 388 456 603 68 773 274 172 
246 11 138 690 78 661 103 38 869 313 402 284 296 
247 11 273 80 236 385 104 353 727 697 64 836 108 
248 11 549 278 671 459 466 508 755 855 168 666 808 
249 11 730 848 469 287 326 23 149 720 206 362 631 
250 11 713 291 308 58 814 218 175 337 6 866 895 
251 9 71 440 709 842 533 608 637 243 648 
252 11 2 612 151 448 613 83 205 364 748 407 624 
253 10 580 692 651 239 393 33 571 435 310 636 
254 11 350 849 42 408 579 600 81 570 698 196 12 
255 8 117 315 476 764 112 341 305 829 
256 11 630 34 909 228 600 143 419 141 849 916 85 
257 7 272 827 69 689 183 715 119 
258 11 102 293 532 904 594 356 512 394 541 815 160 
259 11 176 899 472 7 355 368 210 127 633 831 892 
260 11 458 77 794 884 324 27 738 467 9 445 573 
261 11 798 379 234 20 463 747 754 536 864 434 494 
262 10 646 653 576 113 307 814 832 486 218 874 
263 11 629 502 642 780 92 728 405 891 56 707 207 
264 11 72 880 277 47 281 524 757 359 481 889 526 
265 8 907 244 792 784 195 201 763 97 
266 11 449 86 911 753 10 196 916 12 137 579 828 
267 11 200 311 752 784 195 862 464 97 244 717 744 
268 11 245 327 603 70 456 773 68 172 388 645 10 
269 11 399 436 224 187 529 912 457 149 805 287 734 
270 11 29 376 198 406 418 582 572 171 688 767 768 
271 10 774 407 317 205 364 571 448 83 398 410 
272 8 257 689 69 715 183 827 119 501 
273 11 247 80 236 385 697 353 108 132 191 104 506 
274 11 465 518 687 63 68 227 753 70 911 641 650 
275 11 286 357 886 90 299 126 528 729 714 776 809 
276 9 556 410 555 377 310 347 182 219 271 
277 11 72 47 880 264 281 524 481 593 757 359 210 
278 11 466 248 508 549 671 374 114 459 666 721 202 
279 11 562 302 369 700 900 235 128 180 588 44 325 
280 11 131 615 157 397 893 711 220 67 858 878 917 
281 11 47 264 889 526 72 277 705 54 880 14 210 
282 11 723 136 756 133 79 739 485 169 348 309 637 
283 11 514 483 678 366 475 618 839 910 76 203 5 
284 11 869 706 103 231 599 786 901 78 690 66 851 
285 11 161 341 429 771 833 484 110 905 155 349 352 
286 11 275 357 299 886 126 528 90 835 37 714 729 
287 11 149 224 249 399 734 326 616 730 362 848 269 
288 11 815 35 427 394 60 356 669 611 99 541 551 
289 11 643 468 673 189 52 242 870 479 809 126 528 
290 11 137 828 36 527 62 86 753 911 16 413 63 
291 11 120 109 175 713 438 24 414 250 722 846 868 
292 11 703 863 153 55 428 811 749 91 818 180 235 
293 11 594 532 904 102 512 160 258 451 781 837 702 
294 11 840 902 557 330 380 803 719 758 190 598 694 
295 10 415 796 659 17 8 597 635 500 545 844 
296 11 139 661 13 38 18 138 616 850 246 314 690 
297 11 738 230 573 46 458 794 77 559 260 799 9 
298 11 768 342 572 553 582 875 769 29 376 16 125 
299 8 286 275 37 357 886 792 835 212 
300 10 477 806 681 915 510 732 584 566 15 499 
301 11 31 610 338 522 625 90 337 58 343 809 496 
302 10 562 279 325 588 700 369 44 530 632 235 
303 11 76 203 887 475 839 618 628 678 511 577 319 
304 11 174 744 242 752 724 464 673 515 468 717 52 
305 10 829 403 433 215 315 647 100 838 462 558 
306 11 367 619 804 348 710 701 336 79 133 136 608 
307 11 832 653 646 148 658 874 262 576 654 567 854 
308 11 218 814 58 113 250 337 713 625 338 496 522 
309 11 853 566 584 739 15 169 793 813 546 915 321 
310 9 555 182 276 556 534 347 410 636 692 
311 11 267 464 784 752 195 200 244 717 907 97 265 
312 11 340 232 346 627 520 416 101 372 426 150 569 
313 11 816 409 402 75 168 737 335 808 498 775 138 
314 11 51 850 13 361 616 296 139 417 134 823 362 
315 7 829 305 255 433 117 215 403 
316 11 565 84 95 868 721 414 114 654 374 854 202 
317 10 364 571 407 271 205 613 448 83 252 774 
318 11 96 383 152 122 691 500 787 545 844 662 635 
319 11 370 25 634 480 577 623 769 171 303 511 887 
320 11 888 667 731 821 144 525 504 819 3 129 208 
321 11 491 115 751 587 179 390 354 358 546 731 3 
322 11 506 353 822 697 59 80 236 592 41 132 273 
323 11 351 515 862 200 752 267 174 304 311 464 744 
324 11 884 467 445 27 735 9 715 857 461 164 119 
325 8 302 562 279 530 632 588 499 44 
326 11 730 249 287 170 399 469 23 149 224 848 269 
327 9 456 603 268 245 388 645 773 70 172 
328 11 896 66 908 4 574 487 602 786 680 231 507 
329 11 28 391 498 609 777 737 775 688 767 497 539 
330 11 902 190 294 719 380 694 591 557 22 124 840 
331 9 914 123 540 43 811 325 562 302 153 
332 11 121 910 401 718 49 366 511 531 171 623 514 
333 11 682 561 552 725 644 455 801 178 471 213 489 
334 10 596 550 214 750 761 142 416 372 98 513 
335 11 855 168 409 808 313 139 75 661 816 755 138 
336 11 510 710 348 79 306 136 804 723 367 282 477 
337 11 58 496 522 338 343 895 610 218 308 250 578 
338 11 610 301 31 522 337 58 625 496 343 218 308 
339 9 424 879 750 596 124 98 761 147 334 
340 11 312 346 150 232 426 569 520 101 222 627 372 
341 11 285 161 429 484 771 110 155 833 255 905 352 
342 11 768 298 572 769 553 376 480 29 582 875 25 
343 11 496 578 522 708 729 337 478 895 163 610 664 
344 11 185 791 564 693 443 45 373 395 188 432 620 
345 11 164 21 735 741 890 857 482 186 461 542 106 
346 10 426 569 150 222 520 101 340 232 312 892 
347 10 555 377 276 410 556 182 310 534 219 94 
348 11 79 136 723 133 282 619 756 336 306 608 367 
349 11 867 460 833 71 709 701 251 648 771 905 533 
350 11 254 849 600 42 408 579 698 81 570 34 196 
351 11 323 515 862 200 752 174 267 304 311 464 744 
352 11 665 155 691 844 484 635 110 17 545 122 500 
353 11 697 506 80 236 322 132 592 273 385 108 247 
354 11 221 216 674 607 585 115 179 229 321 396 491 
355 10 899 633 472 368 259 892 176 210 222 7 
356 11 394 541 815 35 102 746 512 288 532 258 611 
357 11 275 286 714 776 729 299 90 386 886 67 163 
358 11 53 546 897 3 56 207 129 821 92 707 793 
359 11 524 757 264 880 72 225 736 281 877 277 47 
360 11 894 765 48 89 156 384 834 387 543 223 145 
361 11 134 158 823 489 850 51 314 417 13 459 755 
362 11 51 314 616 13 850 823 361 149 287 296 18 
363 7 495 854 817 567 654 148 725 
364 11 407 205 613 317 448 83 252 612 2 151 271 
365 11 111 473 650 656 568 411 227 413 641 63 65 
366 11 511 514 618 678 475 332 910 121 76 623 839 
367 11 306 804 710 619 701 348 336 79 133 136 608 
368 11 472 892 355 439 7 176 259 810 899 633 523 
369 11 180 700 235 900 279 55 128 562 428 153 703 
370 11 25 319 634 480 769 577 623 171 303 511 640 
371 11 23 469 730 206 170 882 249 326 720 848 622 
372 11 513 214 416 312 142 232 340 627 550 334 346 
373 11 693 748 151 2 683 188 395 564 612 252 83 
374 11 114 721 202 466 95 278 565 213 471 508 817 
375 11 61 639 536 604 711 864 638 131 444 157 422 
376 11 29 270 582 572 768 198 342 769 875 298 406 
377 10 410 556 276 347 219 94 555 398 310 774 
378 11 166 881 807 50 505 423 677 760 883 167 676 
379 11 261 798 434 463 536 759 864 234 747 843 20 
380 11 557 694 22 902 192 294 330 452 660 840 124 
381 10 696 586 229 396 128 900 607 179 390 216 
382 11 590 825 118 558 645 838 773 172 457 912 40 
383 11 96 122 318 152 691 787 431 789 462 500 545 
384 11 223 543 834 73 894 770 48 89 387 534 765 
385 11 236 80 108 273 697 132 191 353 592 247 87 
386 11 67 163 714 478 664 776 708 878 157 578 729 
387 11 89 48 145 156 425 543 765 894 94 649 377 
388 8 456 327 583 245 268 603 70 773 
389 11 830 241 772 554 14 165 54 657 837 783 451 
390 11 587 179 751 115 491 586 667 731 396 229 696 
391 11 28 609 777 767 329 688 507 406 418 498 560 
392 11 192 412 22 694 147 380 557 124 563 240 452 
393 10 239 651 580 253 692 636 435 446 33 310 
394 11 356 541 815 35 102 746 611 288 512 105 437 
395 11 188 683 693 373 130 748 344 2 151 83 612 
396 11 229 586 179 696 607 381 390 587 216 128 115 
397 11 858 280 197 664 917 67 478 131 157 615 163 
398 10 219 94 774 425 271 377 410 130 556 745 
399 11 269 224 436 149 287 529 734 187 326 912 457 
400 11 598 803 105 30 437 758 840 657 39 165 719 
401 11 718 531 121 672 332 49 802 910 171 50 167 
402 11 313 816 75 409 498 737 78 103 690 138 246 
403 10 433 215 647 100 829 305 838 558 40 590 
404 11 125 553 875 487 704 411 602 680 908 16 298 
405 9 891 642 116 597 629 263 780 659 502 
406 11 418 688 270 198 767 391 29 376 74 28 582 
407 11 205 364 448 83 271 317 612 2 252 613 774 
408 11 42 254 81 12 350 579 849 162 517 570 196 
409 11 75 313 816 168 808 335 402 855 737 775 498 
410 9 556 276 377 347 555 310 219 774 94 
411 11 568 111 656 365 404 473 704 413 450 680 851 
412 11 392 441 147 240 192 563 22 694 380 452 779 
413 11 16 527 656 36 62 553 404 290 298 365 137 
414 11 868 84 291 713 109 120 316 438 175 250 658 
415 11 295 17 635 545 659 844 500 796 8 597 181 
416 11 142 372 214 627 232 312 513 550 340 520 101 
417 11 755 139 671 459 549 850 134 158 361 13 855 
418 11 406 688 198 270 767 391 29 74 376 28 802 
419 11 909 85 256 228 630 812 69 559 799 183 689 
420 11 611 758 60 474 660 669 452 437 840 105 35 
421 7 621 178 682 333 363 725 552 
422 7 444 878 711 638 157 776 639 
423 11 677 883 807 881 742 760 898 378 685 57 220 
424 9 339 879 750 596 147 124 240 98 761 
425 11 94 145 219 398 649 377 745 410 774 347 556 
426 10 569 222 346 150 101 520 892 340 355 439 
427 11 99 288 815 35 60 669 394 356 551 611 474 
428 10 818 55 180 292 617 703 153 235 733 369 
429 11 771 161 833 110 484 285 905 155 341 665 352 
430 11 913 209 845 154 447 26 686 795 535 159 199 
431 11 789 787 859 733 91 96 383 462 617 614 152 
432 11 620 443 177 564 791 185 45 695 41 743 344 
433 10 403 215 829 647 100 838 305 558 590 40 
434 11 759 82 173 463 379 106 652 261 843 798 536 
435 11 727 104 239 580 191 33 253 393 651 247 692 
436 11 269 187 399 912 457 529 805 224 454 65 473 
437 11 105 611 400 758 598 746 657 541 803 840 35 
438 11 109 120 846 175 24 291 722 778 26 159 84 
439 11 892 810 523 368 472 740 7 101 222 355 520 
440 9 251 891 502 71 243 405 842 116 637 
441 11 412 240 147 392 192 22 424 694 339 563 124 
442 11 866 6 685 895 57 722 24 197 175 742 917 
443 11 791 432 185 564 620 45 177 344 693 373 41 
444 6 422 638 711 639 878 157 
445 10 27 884 715 9 119 324 272 501 183 689 
446 10 636 534 182 204 393 651 310 770 555 239 
447 11 535 154 913 686 795 885 74 199 430 802 209 
448 11 83 612 2 205 252 151 613 364 407 748 317 
449 11 266 911 86 753 10 828 137 196 290 12 274 
450 11 851 901 599 706 680 704 284 66 786 908 869 
451 11 837 702 783 781 526 54 225 14 160 389 594 
452 11 660 557 192 563 380 779 294 420 840 694 758 
453 8 668 226 488 547 766 59 871 782 
454 11 65 805 473 187 641 650 111 365 227 912 457 
455 11 644 489 333 823 134 158 561 682 361 213 801 
456 9 327 603 268 388 645 245 773 70 172 
457 11 912 118 805 187 436 454 65 269 825 382 473 
458 11 77 794 46 9 559 27 884 260 119 445 230 
459 11 671 158 549 417 755 248 134 213 278 489 466 
460 11 71 251 709 867 349 648 440 533 842 608 701 
461 10 164 509 482 345 763 735 21 201 741 857 
462 11 383 431 122 96 859 318 606 787 691 789 152 
463 11 843 759 434 82 379 747 261 798 595 173 11 
464 11 717 311 744 752 212 575 267 304 673 37 52 
465 11 274 687 518 63 227 68 641 650 753 70 911 
466 11 278 374 508 114 248 202 721 549 671 213 459 
467 11 324 461 509 164 675 735 857 884 345 482 445 
468 11 289 242 643 673 724 52 189 744 870 479 304 
469 11 23 848 249 720 206 730 371 631 326 287 544 
470 11 622 548 88 544 206 371 23 540 720 699 469 
471 11 801 213 552 725 202 817 374 114 466 459 721 
472 10 368 355 899 259 892 176 7 439 633 810 
473 11 111 365 650 65 454 568 641 805 411 227 656 
474 11 551 669 60 420 779 611 660 35 452 563 758 
475 11 76 618 678 839 203 366 511 514 303 283 623 
476 4 117 255 492 315 
477 11 300 806 566 584 681 915 15 723 853 309 739 
478 11 163 664 708 67 578 386 858 197 714 343 397 
479 10 870 670 486 625 643 31 189 289 301 338 
480 11 25 634 769 370 319 577 342 623 640 768 171 
481 10 593 633 210 899 47 355 277 259 472 150 
482 9 763 164 741 461 345 21 509 890 186 
483 11 283 754 5 20 217 494 605 234 505 514 852 
484 11 110 155 352 665 429 771 905 833 691 161 635 
485 9 243 637 842 756 608 169 133 502 739 
486 10 670 479 870 625 643 31 262 301 218 338 
487 11 602 125 896 328 875 4 574 908 582 66 404 
488 8 668 453 226 547 59 822 766 695 
489 11 158 134 644 361 455 823 459 213 671 417 471 
490 11 135 537 519 655 847 712 140 64 663 727 104 
491 11 751 115 321 587 179 390 731 667 821 3 53 
492 10 519 135 537 712 655 490 847 663 140 873 
493 11 38 18 734 284 869 690 246 706 901 78 138 
494 11 20 754 483 234 747 798 11 217 261 283 538 
495 9 854 363 654 148 567 658 817 316 565 
496 11 343 337 522 578 895 58 708 610 197 338 478 
497 11 184 32 775 539 238 737 75 498 666 93 795 
498 11 737 775 329 28 75 816 609 402 497 184 777 
499 11 632 530 732 194 588 44 681 726 806 856 915 
500 11 545 844 17 635 415 295 181 8 152 796 318 
501 9 272 82 257 595 173 684 827 843 759 
502 9 263 629 891 92 642 707 243 405 780 
503 8 679 73 204 770 834 223 384 446 
504 11 208 181 144 8 819 662 785 888 320 525 797 
505 11 166 605 378 5 50 760 283 49 217 483 881 
506 11 322 353 697 80 592 822 236 132 41 59 273 
507 11 560 574 4 777 609 767 328 391 231 896 28 
508 11 278 466 666 248 93 114 374 159 238 549 721 
509 9 461 201 482 164 763 345 735 741 467 
510 10 336 300 477 348 79 723 136 710 282 806 
511 11 366 618 678 475 514 623 121 332 76 839 910 
512 11 532 594 746 293 541 657 241 389 102 451 837 
513 11 372 214 416 312 340 142 232 627 550 334 346 
514 11 366 678 618 283 475 511 910 839 76 203 332 
515 11 351 752 862 174 200 323 304 267 744 464 311 
516 11 141 824 143 916 228 10 34 266 583 600 256 
517 11 162 865 826 12 790 876 408 887 640 81 861 
518 11 63 465 687 274 227 650 641 828 365 137 753 
519 11 135 490 537 655 847 492 712 140 663 64 873 
520 11 101 232 346 222 523 426 569 627 439 892 740 
521 11 170 40 100 606 882 647 326 730 558 371 118 
522 11 610 343 496 338 337 301 578 31 58 729 708 
523 11 810 740 439 892 101 841 906 520 368 222 860 
524 11 757 359 880 72 264 277 47 281 225 736 526 
525 11 888 129 797 589 3 821 53 320 728 504 667 
526 11 783 54 702 14 837 889 225 281 451 705 781 
527 11 36 16 62 413 290 137 828 656 298 553 342 
528 11 126 886 809 835 90 37 52 189 575 275 286 
529 11 450 901 851 187 734 224 599 436 493 706 269 
530 11 632 499 588 194 44 732 726 856 302 681 325 
531 11 672 718 401 802 49 121 332 885 167 50 676 
532 11 293 594 512 102 904 160 258 451 541 837 746 
533 8 648 116 709 659 891 405 440 251 
534 10 182 555 310 347 636 276 446 556 410 377 
535 11 447 154 686 795 74 885 913 539 802 199 430 
536 11 864 61 604 375 379 261 639 798 234 852 434 
537 11 135 490 519 140 663 64 655 873 727 847 104 
538 11 762 11 800 233 747 861 494 628 570 595 20 
539 11 795 184 497 686 154 238 32 845 775 535 93 
540 11 43 123 331 749 470 811 914 193 863 153 622 
541 11 746 394 356 657 512 105 437 35 241 102 532 
542 9 186 890 741 21 638 639 604 444 61 
543 11 384 223 89 48 387 770 894 834 145 534 347 
544 11 699 206 720 631 601 622 23 469 88 848 107 
545 11 844 500 17 635 415 295 8 181 691 318 152 
546 11 897 793 358 207 56 707 53 92 3 321 728 
547 11 59 695 822 226 668 766 488 453 782 322 41 
548 11 88 622 470 107 544 699 206 720 601 631 540 
549 11 248 671 459 755 278 417 855 466 335 168 158 
550 11 142 334 596 761 214 416 591 98 372 513 627 
551 11 474 669 60 420 779 611 35 288 660 452 563 
552 10 725 801 471 817 213 333 202 682 374 114 
553 11 298 572 768 875 125 404 342 582 16 413 487 
554 11 772 165 830 389 127 241 831 14 7 176 705 
555 9 310 347 182 276 556 410 534 377 636 
556 9 276 410 377 555 347 310 219 271 182 
557 11 380 902 294 694 452 660 192 22 840 330 758 
558 11 382 590 838 825 118 215 647 100 40 645 457 
559 11 9 85 119 183 689 794 69 77 715 909 27 
560 11 507 574 4 777 609 231 767 328 896 391 786 
561 10 682 178 333 626 455 644 621 421 552 725 
562 11 279 302 369 700 325 235 588 900 44 180 128 
563 11 779 452 660 192 392 557 380 412 22 420 694 
564 11 443 791 620 432 177 185 344 693 373 45 743 
565 11 316 95 84 721 114 374 868 202 414 654 817 
566 11 584 15 853 309 813 915 681 739 856 806 726 
567 8 495 148 363 854 832 307 654 658 
568 11 411 111 656 365 473 404 413 704 16 450 650 
569 10 426 222 346 150 101 520 892 355 439 368 
570 11 81 42 233 698 861 408 254 350 762 800 628 
571 9 317 271 692 364 33 407 253 276 774 
572 11 768 298 582 342 875 29 376 553 125 270 769 
573 10 738 297 230 46 458 260 794 77 559 9 
574 11 4 328 507 896 560 602 487 66 767 908 231 
575 11 212 835 37 52 717 126 886 528 673 809 189 
576 9 646 653 262 874 832 307 113 486 670 
577 11 634 319 370 480 25 640 887 769 303 876 623 
578 11 343 708 478 496 163 664 197 858 895 522 729 
579 11 849 196 600 254 350 408 12 42 34 162 865 
580 10 253 239 651 692 393 33 435 571 191 636 
581 9 872 424 339 879 750 240 334 596 147 
582 11 29 572 875 376 125 768 270 487 602 298 553 
583 10 388 516 228 141 245 812 824 143 268 327 
584 11 566 15 853 813 309 915 681 856 806 739 726 
585 11 674 216 221 607 128 354 229 396 900 44 179 
586 10 696 396 229 381 390 587 179 667 731 320 
587 11 390 179 751 115 491 731 667 396 586 229 321 
588 11 44 194 530 632 726 499 585 674 302 221 856 
589 10 797 780 642 728 597 525 796 129 92 629 
590 10 382 825 558 645 118 838 773 172 603 215 
591 11 98 761 550 142 190 330 124 716 596 719 627 
592 11 132 697 108 820 353 80 87 236 624 743 385 
593 10 481 633 899 210 355 47 150 569 222 426 
594 11 293 532 904 512 160 451 781 837 102 702 783 
595 11 684 843 800 463 11 747 762 233 538 82 759 
596 10 334 550 761 750 98 214 142 591 879 416 
597 10 796 589 797 642 405 659 780 295 8 728 
598 11 400 803 30 105 840 39 437 719 758 165 211 
599 11 706 851 901 450 680 66 284 704 786 908 231 
600 11 849 34 350 579 254 196 408 630 42 916 12 
601 11 631 699 720 848 544 206 362 469 823 249 23 
602 11 487 4 125 896 328 574 875 908 582 66 507 
603 9 327 456 268 645 773 245 172 388 70 
604 11 61 536 639 375 864 106 542 186 638 890 379 
605 11 5 505 217 852 483 166 754 760 283 378 893 
606 11 882 521 170 859 462 100 647 40 371 403 431 
607 11 216 229 674 221 354 585 396 179 128 115 587 
608 10 842 637 485 243 133 756 71 251 440 619 
609 11 777 28 391 329 767 507 560 498 737 688 4 
610 11 338 301 522 31 337 343 496 58 729 625 90 
611 11 35 437 420 105 60 758 669 394 541 356 400 
612 11 2 83 252 448 151 205 613 748 364 407 373 
613 11 252 612 2 364 448 83 151 205 407 624 87 
614 10 617 819 785 662 733 789 787 818 144 208 
615 11 893 280 220 131 760 898 397 852 917 157 605 
616 11 18 13 296 314 51 850 38 362 734 139 493 
617 10 614 733 818 789 428 787 819 785 662 91 
618 11 678 475 366 511 514 76 839 203 303 623 283 
619 11 608 306 133 348 842 79 136 756 367 637 701 
620 11 432 177 564 443 791 41 185 743 695 45 373 
621 7 421 178 626 682 561 333 363 
622 11 470 544 88 548 206 720 371 23 699 469 631 
623 11 171 319 511 370 25 121 332 366 618 480 634 
624 11 87 820 108 132 592 613 252 151 743 364 2 
625 11 338 31 670 301 486 218 479 308 610 870 58 
626 9 178 561 682 621 903 421 333 455 644 
627 11 232 520 101 416 312 142 346 523 716 740 340 
628 11 861 887 303 76 203 826 839 475 538 81 762 
629 10 263 642 502 780 92 728 405 891 56 589 
630 9 256 34 600 909 350 849 254 143 579 
631 11 601 720 848 699 206 469 544 362 23 249 823 
632 11 530 499 588 194 44 732 726 856 681 302 915 
633 10 899 355 472 210 259 368 481 593 176 222 
634 11 480 370 25 319 577 769 640 623 342 171 303 
635 11 17 844 545 415 500 295 659 8 665 796 691 
636 10 446 182 534 651 310 393 555 253 580 692 
637 9 842 243 485 608 133 756 440 502 169 
638 7 444 639 422 711 375 542 61 
639 9 61 375 638 604 711 444 422 536 542 
640 11 876 577 634 480 790 769 62 319 370 25 826 
641 11 227 650 687 65 454 473 518 465 365 63 805 
642 10 780 629 263 589 728 92 405 597 797 502 
643 10 289 468 870 479 189 486 670 673 242 52 
644 11 455 489 333 158 134 823 682 361 561 213 801 
645 10 603 773 590 825 172 327 382 456 268 68 
646 10 653 262 576 307 832 874 113 658 814 148 
647 11 100 215 558 403 40 433 838 382 521 590 118 
648 10 533 709 116 659 251 905 440 891 71 405 
649 11 745 425 94 145 398 219 130 387 156 377 774 
650 11 227 641 365 473 687 111 518 65 63 454 465 
651 10 253 580 393 692 239 636 310 33 446 571 
652 11 173 106 82 434 759 857 463 735 379 604 843 
653 10 646 576 262 307 832 874 113 658 148 814 
654 11 854 148 658 495 316 363 868 565 307 84 414 
655 11 847 712 135 490 519 537 492 140 64 146 663 
656 11 413 365 568 16 411 111 527 36 404 473 650 
657 11 746 241 389 541 105 512 830 772 400 554 437 
658 11 654 148 854 307 868 414 495 316 113 84 814 
659 10 116 295 415 597 796 405 891 17 533 635 
660 11 452 557 192 380 420 563 779 294 758 840 902 
661 11 138 246 296 690 78 139 38 335 855 313 103 
662 11 785 819 144 208 504 181 614 152 320 787 8 
663 10 140 873 836 64 537 247 273 104 519 727 
664 11 478 163 67 708 386 858 578 197 397 714 343 
665 11 352 635 691 844 17 155 110 545 484 905 500 
666 11 32 808 184 238 497 93 168 508 775 75 409 
667 11 731 821 3 320 390 587 888 751 53 129 491 
668 9 226 453 488 547 59 766 695 822 782 
669 11 60 474 551 420 611 35 288 815 437 758 779 
670 10 486 479 870 625 31 643 301 338 218 262 
671 11 459 549 248 755 417 158 278 466 134 855 213 
672 11 531 718 802 401 885 49 167 676 121 50 332 
673 11 52 242 289 575 744 468 717 189 835 126 212 
674 11 585 216 221 607 354 128 229 396 179 44 115 
675 9 237 467 509 201 461 763 97 164 482 
676 11 167 199 50 881 49 672 378 531 802 807 885 
677 11 423 807 883 881 760 898 378 685 742 57 220 
678 11 618 475 514 366 511 76 839 203 283 303 910 
679 8 503 204 73 446 770 636 393 534 
680 11 704 908 66 851 599 328 450 786 896 706 901 
681 11 915 806 15 856 813 584 726 566 194 853 477 
682 10 561 333 178 455 644 626 552 725 421 621 
683 11 188 748 395 130 373 693 2 83 448 612 151 
684 8 595 800 843 233 11 762 698 827 
685 11 57 917 742 898 423 677 883 442 220 807 760 
686 11 795 154 535 539 447 845 913 74 184 238 497 
687 11 227 465 518 274 641 63 650 68 365 473 65 
688 11 418 406 391 74 767 28 329 198 609 777 802 
689 11 69 183 119 272 257 85 715 559 9 909 827 
690 11 78 246 138 103 869 661 284 38 402 231 313 
691 11 122 318 383 352 844 545 96 665 500 635 17 
692 9 253 580 651 33 239 571 393 310 317 
693 11 373 395 188 344 564 683 748 151 2 177 612 
694 11 22 380 902 557 192 330 124 392 294 452 660 
695 11 547 766 59 822 782 41 226 432 620 668 177 
696 10 586 381 396 229 390 179 587 607 128 216 
697 11 80 236 353 132 592 385 108 506 273 322 87 
698 8 570 42 233 81 254 350 827 684 
699 11 601 544 631 720 107 206 848 903 88 469 23 
700 11 900 369 128 180 279 585 381 235 674 216 229 
701 11 867 619 367 306 460 71 608 349 804 251 842 
702 11 451 783 837 225 526 781 54 14 160 281 736 
703 11 153 292 55 863 811 235 428 749 180 123 914 
704 11 680 908 851 66 599 450 328 896 404 706 786 
705 11 889 14 54 210 127 526 281 259 783 176 831 
706 11 599 284 901 786 869 851 231 450 66 680 103 
707 11 207 56 897 92 546 793 358 263 728 629 169 
708 11 163 478 578 664 343 729 67 386 714 496 858 
709 9 648 533 251 71 440 116 891 460 405 
710 11 804 336 367 306 348 510 79 619 136 723 133 
711 10 157 422 131 878 375 444 638 639 61 280 
712 11 655 847 135 519 490 537 492 146 764 140 64 
713 11 250 291 414 814 308 175 109 120 218 868 113 
714 11 386 776 67 163 729 708 357 478 664 878 578 
715 10 119 272 183 9 689 445 257 69 27 501 
716 11 841 906 740 211 523 39 190 627 810 101 860 
717 11 212 575 37 464 835 52 673 886 744 126 528 
718 11 401 531 672 121 332 802 49 885 171 910 167 
719 11 190 39 30 211 803 330 716 294 598 841 906 
720 11 206 631 469 848 23 544 601 249 699 371 730 
721 11 114 374 202 95 565 316 466 817 278 508 84 
722 11 24 175 846 120 26 438 109 866 6 291 442 
723 11 282 136 79 756 133 739 348 485 169 309 477 
724 11 242 174 468 304 744 289 673 643 52 464 752 
725 10 552 801 471 817 213 333 202 374 682 114 
726 11 856 194 813 44 915 15 681 221 354 588 674 
727 11 104 435 64 247 273 191 239 385 140 33 580 
728 11 780 92 589 642 56 129 207 263 629 797 53 
729 11 708 714 343 163 357 522 578 478 386 90 275 
730 11 326 249 469 23 170 371 848 287 149 206 720 
731 11 667 821 3 390 587 751 320 53 491 888 129 
732 10 499 632 530 806 194 681 915 588 726 856 
733 10 617 789 614 818 91 787 428 431 292 55 
734 11 493 18 38 224 149 616 529 901 284 296 869 
735 11 857 345 164 21 652 461 890 106 741 482 173 
736 11 877 781 225 160 359 702 19 451 524 526 757 
737 11 498 775 75 816 329 497 28 184 313 402 409 
738 11 297 230 573 46 458 794 77 260 559 799 9 
739 11 169 309 282 853 566 756 723 584 793 485 136 
740 11 523 841 906 810 439 716 860 101 892 211 520 
741 10 21 890 186 542 345 482 164 763 735 604 
742 11 883 685 423 209 677 807 26 57 881 898 917 
743 11 41 820 592 177 132 624 87 620 697 506 108 
744 11 304 242 464 673 174 717 752 52 468 575 724 
745 11 649 425 130 398 94 219 145 774 683 377 188 
746 11 657 541 241 105 512 437 389 400 830 394 772 
747 11 11 843 463 798 494 20 261 538 800 762 595 
748 11 2 83 612 448 683 151 205 252 373 613 407 
749 11 863 811 193 153 703 292 43 123 55 91 914 
750 9 879 596 334 339 424 761 550 98 214 
751 11 491 115 587 390 179 321 731 667 821 3 396 
752 11 200 267 464 304 311 744 174 515 862 717 242 
753 11 911 86 449 828 137 290 266 63 274 465 518 
754 11 20 234 217 494 483 5 798 852 261 605 283 
755 11 417 139 549 671 855 459 248 335 850 158 13 
756 11 133 282 136 723 485 79 739 637 608 243 842 
757 11 524 359 880 72 264 277 47 281 225 736 877 
758 11 840 437 105 803 294 400 598 420 611 660 557 
759 11 82 434 173 463 652 843 379 106 261 798 595 
760 11 220 898 677 423 807 893 378 883 881 917 57 
761 11 98 591 550 596 334 142 124 750 214 416 330 
762 11 538 800 11 233 747 861 570 595 628 684 494 
763 7 482 201 509 461 741 164 21 
764 11 112 146 712 492 847 655 519 135 490 537 117 
765 11 894 48 156 360 89 387 543 145 384 223 649 
766 11 782 695 226 547 871 668 59 822 453 432 620 
767 11 391 777 609 406 507 28 418 688 4 560 574 
768 11 298 342 572 553 582 29 376 875 769 125 480 
769 11 480 25 634 370 342 319 768 577 298 376 572 
770 11 534 446 182 543 223 73 636 204 384 347 555 
771 11 833 905 110 429 484 648 665 161 155 352 533 
772 11 554 165 830 389 241 127 831 14 30 705 7 
773 11 172 68 645 268 603 70 327 687 825 456 245 
774 10 271 398 407 219 205 317 410 364 556 94 
775 11 497 737 184 498 32 75 539 816 329 808 238 
776 9 714 386 878 67 357 422 163 478 664 
777 11 609 391 28 507 560 767 329 498 4 574 688 
778 11 159 438 846 109 120 84 93 26 95 24 175 
779 11 563 452 660 474 420 192 551 557 669 380 60 
780 10 642 728 589 92 629 263 797 56 597 129 
781 11 160 702 225 451 736 837 783 526 594 877 54 
782 9 766 871 226 695 547 668 59 432 453 
783 11 837 526 702 54 451 14 225 889 705 781 281 
784 10 195 97 311 265 267 244 907 200 792 464 
785 11 662 819 144 208 504 614 181 152 320 787 888 
786 11 231 66 706 284 328 599 869 908 103 896 680 
787 11 789 96 152 614 733 431 617 662 785 318 383 
788 8 503 679 73 834 204 223 146 384 
789 11 787 733 431 617 614 96 152 91 785 818 662 
790 11 865 162 517 876 12 640 826 196 62 408 86 
791 11 443 185 564 45 432 620 344 177 693 373 41 
792 6 244 907 265 299 37 212 
793 11 546 897 707 169 207 56 358 309 321 53 92 
794 11 77 458 559 9 46 27 119 884 183 445 715 
795 11 686 154 539 535 845 447 184 238 913 497 32 
796 10 597 8 797 295 589 415 659 181 642 780 
797 10 589 525 796 597 8 129 728 780 642 888 
798 11 261 379 234 20 747 754 494 463 864 217 434 
799 10 812 419 228 46 909 85 583 256 559 630 
800 11 762 11 538 233 595 684 747 570 843 861 81 
801 11 471 213 552 725 202 817 333 374 114 466 459 
802 11 885 672 531 74 718 401 167 447 535 676 49 
803 11 598 400 30 840 719 39 294 758 190 105 211 
804 11 367 710 306 336 348 619 701 79 136 510 133 
805 11 454 65 187 473 912 641 111 457 650 365 227 
806 11 681 915 15 584 477 566 856 813 726 300 194 
807 11 423 677 883 881 378 760 742 898 676 166 199 
808 11 168 75 409 666 816 335 32 313 775 855 497 
809 11 90 528 126 189 886 52 835 31 275 301 286 
810 11 439 523 892 740 368 7 472 841 860 906 101 
811 11 153 123 703 863 749 914 292 55 235 43 180 
812 10 228 799 583 419 141 516 143 256 909 824 
813 11 15 856 584 853 726 566 915 681 309 194 354 
814 11 113 308 218 713 250 58 262 414 337 625 291 
815 11 288 394 356 35 541 102 611 427 60 258 669 
816 11 75 313 409 402 737 498 168 775 808 335 497 
817 11 202 725 552 801 471 721 114 363 374 213 495 
818 10 428 617 733 614 55 180 292 381 703 153 
819 10 144 662 785 208 504 320 614 181 888 152 
820 11 624 87 592 743 132 108 41 613 151 252 697 
821 11 3 731 667 53 129 888 358 751 320 525 390 
822 11 59 547 322 695 506 41 353 743 668 766 592 
823 11 361 134 489 455 51 644 158 314 850 13 417 
824 11 141 143 516 916 10 34 266 228 600 449 196 
825 11 382 590 118 645 558 172 773 457 912 838 603 
826 11 517 876 865 162 887 628 790 861 12 640 81 
827 7 257 698 272 684 595 501 69 
828 11 137 290 36 86 753 527 911 62 63 518 16 
829 9 433 215 403 305 838 647 100 558 315 
830 11 389 772 554 241 165 14 54 127 705 831 657 
831 11 127 7 176 259 860 165 368 472 554 772 810 
832 10 307 874 653 646 576 148 567 262 658 654 
833 11 771 905 429 110 648 484 709 349 161 533 460 
834 11 223 384 73 543 894 770 48 89 360 503 387 
835 11 37 886 212 575 126 528 52 717 286 809 275 
836 10 873 663 247 322 506 353 273 140 80 236 
837 11 451 783 702 526 54 14 225 781 389 889 705 
838 10 215 558 590 382 647 825 645 433 100 829 
839 11 203 76 475 618 678 303 514 366 511 283 628 
840 11 294 758 803 598 902 557 400 719 330 190 380 
841 11 906 740 211 716 523 860 810 39 439 892 7 
842 9 637 608 243 485 440 133 251 71 756 
843 11 463 595 747 759 82 684 11 434 379 800 261 
844 11 635 545 17 500 415 295 691 8 665 181 659 
845 11 93 238 154 539 795 686 32 184 430 913 497 
846 11 438 120 24 722 109 175 26 778 291 159 866 
847 10 655 712 135 490 519 537 492 146 140 64 
848 11 469 249 720 631 23 206 730 601 287 362 149 
849 11 350 579 600 254 408 196 42 34 12 81 570 
850 11 13 314 51 361 417 139 296 134 755 616 823 
851 11 450 599 901 680 704 706 66 908 786 284 231 
852 11 217 5 234 605 754 615 893 483 864 20 505 
853 11 309 566 15 584 813 739 793 915 856 169 681 
854 11 495 654 148 363 658 316 567 565 817 307 868 
855 11 335 168 409 139 755 808 248 313 549 661 816 
856 11 726 813 194 15 915 681 584 44 221 354 853 
857 11 735 345 164 652 106 21 173 890 741 461 82 
858 11 197 397 664 478 578 163 67 708 895 917 386 
859 11 91 431 193 733 789 863 292 462 787 749 617 
860 11 211 7 841 906 810 831 740 176 439 523 39 
861 11 628 81 570 826 887 233 538 762 42 303 517 
862 11 200 267 515 752 351 323 311 97 195 784 464 
863 11 292 749 703 153 811 55 193 91 123 428 235 
864 11 536 61 375 604 379 261 234 798 639 852 217 
865 11 162 517 790 12 826 876 408 640 196 887 42 
866 11 6 442 24 722 895 175 685 197 57 120 250 
867 11 349 460 701 71 251 619 709 608 842 648 440 
868 11 414 84 316 565 109 291 95 658 713 120 438 
869 11 284 103 706 231 78 786 690 599 246 901 493 
870 10 479 670 486 643 625 31 189 289 301 338 
871 8 782 766 226 453 668 695 547 59 
872 9 581 424 339 879 750 240 596 147 334 
873 10 836 663 140 247 64 322 273 506 353 80 
874 9 832 576 653 646 307 262 567 148 658 
875 11 125 582 487 572 553 602 768 29 298 404 376 
876 11 640 826 517 790 865 162 577 887 12 634 303 
877 11 736 19 359 160 781 225 757 524 702 451 526 
878 9 422 157 776 711 386 67 444 131 714 
879 9 339 424 750 596 334 761 98 124 550 
880 11 72 264 277 47 524 757 281 359 481 593 889 
881 11 807 378 423 883 677 676 167 199 50 166 760 
882 11 170 371 606 521 730 23 326 469 206 249 622 
883 11 423 677 807 881 742 378 685 760 898 57 199 
884 11 27 445 324 9 715 119 77 794 458 183 559 
885 11 802 74 672 447 531 535 718 167 199 401 676 
886 11 126 835 528 37 212 286 575 275 809 90 52 
887 11 303 628 577 826 76 876 203 861 319 839 475 
888 11 525 320 129 821 667 3 731 504 797 53 144 
889 11 705 14 54 281 526 210 783 127 259 47 176 
890 11 21 186 741 542 345 106 604 482 639 638 164 
891 8 405 116 263 629 502 642 440 597 
892 11 439 368 810 472 523 222 355 7 101 569 176 
893 11 615 220 760 898 280 917 852 131 605 397 5 
894 11 48 765 89 360 543 384 387 223 156 834 145 
895 11 496 6 197 578 866 337 343 442 858 58 522 
896 11 328 908 4 66 574 487 602 786 125 680 231 
897 11 56 207 546 707 358 92 793 53 728 3 129 
898 11 220 760 917 57 677 423 685 893 807 883 615 
899 10 355 633 259 472 210 368 176 7 892 481 
900 11 128 700 369 381 585 229 216 180 396 607 674 
901 11 450 599 851 706 284 680 704 869 786 66 231 
902 11 330 294 380 557 694 22 840 190 719 124 192 
903 11 626 178 561 682 107 621 699 333 455 601 644 
904 11 293 594 532 160 781 102 258 512 451 702 736 
905 11 110 771 648 833 665 533 484 352 709 429 635 
906 11 841 740 211 716 523 860 810 39 439 892 7 
907 5 244 265 792 784 195 
908 11 66 328 896 680 704 487 786 602 4 574 599 
909 11 85 419 256 630 69 689 183 34 228 559 257 
910 11 332 121 49 366 514 50 401 511 531 718 166 
911 11 753 86 449 137 828 266 290 63 274 10 465 
912 11 457 187 805 436 118 454 65 269 473 825 641 
913 11 430 447 154 209 535 686 795 845 199 539 26 
914 11 123 811 153 235 703 55 749 863 369 180 292 
915 11 681 806 15 584 813 856 566 726 853 194 309 
916 11 824 143 141 516 34 266 196 579 600 10 449 
917 11 57 898 685 220 397 760 423 677 893 858 197 
DEPOT_SECTION
   1
   -1
EOF
