NAME :  X-n979-kX-w97-c7.cctp
COMMENT : 	Adapted by Maziero, Usberti and Cavellucci from the Uchoa, Pecin, Pessoa, Poggi, Subramanian, and Vidal (2013)
TYPE :  CCTP
DIMENSION :    611
EDGE_WEIGHT_TYPE : 	EUC_2D	
CAPACITY : 	998
VERTICES_WITHIN_COVERAGE :  7
VERTICES_WITH_DEMAND : 	97
NODE_COORD_SECTION
1 0 0
2 236 951
3 735 289
4 841 735
5 846 821
6 907 810
7 55 136
8 699 326
9 731 899
10 739 753
11 807 828
12 775 783
13 891 689
14 62 93
15 780 220
16 799 739
17 661 348
18 865 688
19 12 4
20 829 827
21 845 896
22 136 243
23 878 584
24 908 794
25 820 771
26 895 788
27 747 915
28 860 746
29 829 754
30 94 149
31 940 847
32 884 747
33 226 904
34 738 802
35 194 98
36 789 744
37 929 895
38 864 696
39 84 161
40 764 615
41 283 937
42 776 807
43 877 427
44 828 266
45 297 994
46 665 900
47 15 93
48 100 956
49 850 790
50 854 794
51 898 679
52 948 888
53 731 282
54 60 87
55 826 362
56 716 264
57 885 814
58 932 825
59 308 926
60 225 130
61 853 861
62 794 753
63 771 729
64 264 853
65 780 693
66 837 723
67 895 849
68 746 715
69 736 862
70 734 730
71 616 228
72 7 80
73 93 860
74 860 765
75 877 734
76 819 798
77 706 922
78 861 714
79 710 149
80 268 903
81 783 808
82 811 865
83 231 950
84 929 771
85 717 857
86 767 755
87 250 924
88 972 543
89 114 955
90 931 866
91 796 414
92 708 270
93 893 755
94 175 956
95 928 757
96 712 401
97 911 968
98 73 240
99 273 9
100 729 595
101 855 718
102 246 872
103 828 875
104 991 591
105 256 913
106 916 785
107 794 708
108 929 743
109 754 655
110 739 882
111 914 788
112 840 785
113 688 415
114 872 383
115 100 253
116 934 881
117 61 122
118 723 293
119 263 916
120 689 176
121 709 162
122 778 748
123 868 711
124 888 705
125 275 849
126 721 780
127 725 784
128 153 957
129 133 309
130 856 654
131 241 951
132 713 376
133 838 377
134 114 992
135 877 851
136 904 766
137 781 784
138 901 846
139 832 916
140 82 123
141 854 803
142 860 788
143 886 728
144 821 575
145 833 775
146 740 699
147 815 870
148 912 794
149 52 131
150 278 957
151 823 346
152 707 335
153 735 870
154 881 748
155 286 992
156 852 889
157 795 680
158 950 871
159 93 187
160 242 902
161 166 240
162 831 436
163 826 244
164 913 959
165 762 783
166 838 765
167 819 800
168 226 948
169 900 582
170 716 261
171 724 340
172 882 786
173 76 158
174 932 900
175 843 826
176 944 819
177 182 953
178 871 819
179 90 898
180 768 713
181 703 796
182 626 928
183 847 721
184 791 822
185 836 834
186 840 350
187 267 903
188 865 981
189 887 753
190 213 883
191 716 733
192 866 711
193 268 882
194 867 615
195 929 807
196 625 238
197 237 947
198 209 895
199 766 806
200 723 817
201 756 859
202 46 127
203 709 1000
204 829 844
205 689 268
206 13 80
207 754 764
208 716 719
209 834 758
210 756 865
211 265 892
212 757 729
213 915 874
214 6 88
215 32 84
216 715 176
217 914 878
218 226 73
219 968 877
220 781 749
221 922 793
222 821 387
223 672 327
224 879 696
225 624 939
226 908 891
227 938 847
228 869 297
229 814 792
230 942 817
231 752 219
232 873 727
233 896 683
234 938 763
235 697 393
236 818 777
237 291 911
238 774 940
239 838 610
240 837 729
241 863 747
242 941 368
243 840 786
244 885 720
245 726 72
246 927 828
247 936 839
248 67 303
249 267 996
250 835 904
251 697 124
252 503 227
253 762 808
254 278 907
255 169 67
256 909 870
257 731 272
258 17 50
259 40 968
260 912 691
261 895 657
262 227 938
263 44 140
264 833 331
265 819 774
266 863 563
267 251 969
268 929 741
269 857 859
270 828 756
271 176 937
272 861 803
273 142 224
274 702 411
275 89 906
276 259 902
277 896 852
278 124 963
279 88 97
280 855 747
281 161 273
282 171 74
283 886 835
284 189 960
285 123 142
286 846 781
287 866 728
288 844 756
289 220 944
290 773 798
291 879 728
292 185 301
293 797 735
294 934 784
295 667 332
296 845 758
297 692 835
298 195 161
299 167 965
300 262 49
301 804 363
302 886 775
303 754 423
304 289 968
305 821 861
306 232 876
307 913 784
308 45 151
309 648 249
310 174 343
311 902 811
312 287 979
313 759 909
314 871 772
315 231 949
316 757 759
317 73 64
318 781 691
319 776 662
320 696 935
321 569 224
322 835 929
323 716 466
324 814 851
325 760 725
326 980 884
327 881 597
328 922 516
329 42 137
330 788 704
331 239 159
332 823 797
333 785 161
334 901 843
335 968 847
336 816 769
337 16 117
338 850 917
339 835 817
340 968 840
341 831 736
342 853 694
343 825 825
344 918 833
345 880 747
346 869 741
347 861 227
348 682 353
349 783 872
350 684 255
351 95 811
352 719 331
353 852 809
354 287 911
355 849 735
356 908 743
357 773 87
358 720 777
359 785 786
360 769 726
361 783 578
362 8 59
363 719 304
364 53 77
365 792 744
366 934 879
367 857 240
368 850 780
369 870 767
370 844 854
371 277 820
372 805 821
373 878 755
374 916 435
375 856 887
376 110 922
377 931 578
378 672 355
379 732 259
380 317 931
381 973 525
382 257 153
383 710 884
384 850 733
385 935 759
386 770 210
387 783 812
388 212 922
389 820 750
390 608 976
391 842 734
392 939 896
393 810 778
394 759 793
395 211 892
396 827 748
397 774 211
398 839 263
399 72 220
400 268 921
401 12 122
402 797 844
403 39 252
404 120 148
405 836 712
406 750 802
407 833 737
408 846 867
409 850 818
410 857 742
411 932 844
412 183 127
413 235 950
414 237 941
415 878 677
416 826 794
417 643 146
418 284 964
419 923 535
420 828 780
421 251 928
422 951 836
423 803 801
424 689 269
425 734 819
426 856 239
427 814 773
428 660 351
429 859 867
430 800 771
431 769 706
432 692 282
433 726 598
434 168 990
435 818 877
436 796 724
437 874 708
438 295 849
439 898 842
440 624 381
441 892 741
442 746 300
443 335 926
444 231 136
445 966 841
446 853 779
447 959 893
448 863 788
449 827 797
450 136 807
451 830 719
452 806 209
453 229 974
454 789 841
455 886 810
456 763 718
457 852 757
458 737 866
459 862 712
460 667 399
461 207 902
462 135 237
463 308 943
464 271 910
465 773 824
466 570 131
467 61 62
468 833 379
469 827 719
470 52 101
471 713 255
472 907 845
473 608 269
474 684 35
475 903 857
476 751 885
477 64 178
478 941 908
479 847 779
480 98 179
481 904 597
482 931 746
483 905 794
484 720 166
485 805 243
486 244 869
487 707 281
488 851 601
489 746 297
490 775 388
491 851 678
492 820 904
493 44 30
494 871 740
495 622 948
496 850 899
497 885 799
498 274 938
499 178 992
500 814 836
501 233 962
502 847 409
503 764 749
504 835 828
505 700 183
506 2 53
507 815 861
508 61 239
509 802 823
510 80 983
511 322 951
512 848 746
513 817 752
514 816 765
515 132 885
516 732 699
517 876 743
518 895 863
519 855 741
520 909 770
521 698 282
522 63 74
523 916 952
524 843 720
525 741 389
526 15 700
527 755 393
528 784 775
529 284 984
530 735 247
531 699 915
532 687 312
533 703 304
534 828 841
535 640 831
536 799 827
537 856 774
538 119 158
539 783 686
540 811 194
541 886 733
542 938 870
543 50 152
544 784 231
545 947 808
546 199 66
547 874 731
548 792 362
549 260 934
550 739 293
551 302 925
552 920 680
553 727 777
554 777 747
555 84 103
556 63 130
557 67 892
558 932 891
559 70 70
560 820 800
561 806 848
562 664 357
563 887 761
564 907 786
565 888 615
566 758 801
567 897 690
568 831 711
569 850 832
570 764 223
571 801 237
572 818 899
573 896 832
574 784 445
575 66 147
576 797 805
577 833 398
578 845 852
579 783 782
580 906 809
581 528 179
582 936 778
583 850 711
584 968 849
585 305 869
586 34 17
587 884 859
588 3 78
589 825 537
590 750 924
591 859 772
592 928 885
593 805 790
594 728 309
595 47 96
596 846 891
597 76 950
598 912 823
599 836 730
600 722 262
601 876 816
602 126 210
603 833 725
604 714 839
605 842 793
606 763 751
607 778 664
608 874 366
609 801 210
610 736 780
611 883 819
DEMAND_SECTION
2 38
3 48
4 57
5 60
6 56
7 74
8 41
9 95
10 77
11 95
12 54
13 85
14 66
15 18
16 83
17 3
18 84
19 86
20 96
21 69
22 51
23 100
24 77
25 51
26 96
27 53
28 70
29 99
30 58
31 53
32 87
33 12
34 64
35 62
36 64
37 59
38 64
39 51
40 55
41 7
42 64
43 47
44 5
45 20
46 100
47 75
48 41
49 87
50 72
51 74
52 68
53 27
54 72
55 18
56 25
57 68
58 56
59 14
60 68
61 85
62 83
63 88
64 2
65 78
66 98
67 59
68 99
69 88
70 59
71 9
72 87
73 4
74 62
75 89
76 86
77 82
78 74
79 50
80 5
81 72
82 86
83 20
84 98
85 77
86 71
87 29
88 55
89 13
90 57
91 29
92 24
93 82
94 45
95 55
96 42
97 85
98 69
COVERAGE_SECTION
2 7 413 197 83 131 315 168 414 
3 7 550 53 118 489 442 257 594 
4 7 391 240 599 355 407 384 341 
5 7 409 175 339 569 353 504 185 
6 6 580 311 598 24 483 148 
7 7 149 556 263 202 329 117 575 
8 6 152 532 352 533 223 171 
9 7 110 27 476 383 153 313 590 
10 7 207 316 70 606 503 553 610 
11 7 372 509 536 500 184 343 402 
12 6 137 579 359 528 165 290 
13 6 567 233 51 224 124 415 
14 7 54 470 595 364 522 555 559 
15 7 397 544 386 570 609 571 231 
16 5 293 365 36 62 436 
17 6 428 562 378 295 348 223 
18 7 38 342 224 415 491 437 123 
19 5 586 493 258 506 362 
20 7 343 504 185 339 175 534 204 
21 7 596 496 156 250 375 338 139 
22 6 462 273 161 602 115 281 
23 7 327 169 266 481 488 194 565 
24 7 483 148 111 564 307 106 26 
25 7 265 336 236 427 514 393 420 
26 7 483 564 172 24 497 302 148 
27 7 590 313 9 476 110 238 77 
28 7 241 280 410 519 346 512 494 
29 6 270 209 396 389 513 166 
30 7 39 173 404 538 575 140 285 
31 6 227 247 411 422 90 58 
32 7 154 345 189 517 373 441 93 
33 6 160 198 395 461 388 190 
34 7 406 425 566 200 127 610 394 
35 6 412 546 282 255 218 60 
36 7 365 220 62 16 122 293 554 
37 7 558 174 392 592 116 366 478 
38 7 18 342 192 224 123 437 459 
39 5 173 30 480 575 477 
40 6 100 109 361 433 319 607 
41 7 498 150 400 551 549 354 463 
42 7 81 290 387 199 253 465 566 
43 6 502 374 114 162 577 608 
44 4 398 163 485 367 
45 6 155 529 312 304 249 418 
46 7 531 77 320 182 383 225 495 
47 7 214 206 72 215 588 337 401 
48 7 89 278 597 510 376 134 275 
49 7 50 605 142 286 368 112 243 
50 6 49 142 141 272 448 605 
51 7 233 567 13 260 415 261 552 
52 7 392 447 116 558 158 366 37 
53 7 3 257 118 550 489 600 56 
54 7 14 364 522 470 595 559 467 
55 7 151 186 468 133 301 222 264 
56 7 170 600 471 92 257 379 487 
57 5 455 611 601 178 497 
58 6 246 176 230 247 344 195 
59 7 551 380 463 237 354 41 443 
60 7 444 331 382 412 298 35 218 
61 5 269 429 408 370 578 
62 7 365 36 220 16 122 293 554 
63 6 360 325 212 456 180 554 
64 7 125 102 486 193 438 371 211 
65 6 318 539 330 431 157 107 
66 7 603 240 524 599 451 183 405 
67 7 277 138 334 439 475 472 518 
68 7 146 325 456 212 70 516 180 
69 7 458 153 85 110 201 210 476 
70 7 191 68 208 212 10 325 456 
71 4 196 309 473 321 
72 7 588 206 214 47 362 215 506 
73 6 179 557 275 515 351 376 
74 5 591 369 537 457 314 
75 7 547 291 232 494 517 541 143 
76 6 167 560 332 229 416 449 
77 7 531 320 9 383 27 590 46 
78 6 459 192 101 123 583 437 
79 6 121 484 216 251 120 505 
80 7 187 464 276 211 254 119 105 
81 7 387 42 290 576 184 199 465 
82 7 147 507 305 324 435 561 103 
83 7 315 413 2 168 197 131 414 
84 7 582 234 385 95 294 106 520 
85 7 604 69 153 458 383 110 297 
86 7 606 503 316 122 554 220 207 
87 7 421 105 549 119 400 414 160 
88 6 381 419 104 377 328 169 
89 7 278 48 376 134 597 128 510 
90 7 542 366 116 213 592 158 227 
91 7 490 574 222 577 162 303 527 
92 7 56 487 170 471 521 600 205 
93 7 189 563 32 154 441 345 373 
94 5 177 299 284 271 128 
95 6 385 482 234 84 108 268 
96 7 274 235 132 113 525 527 460 
97 2 164 523 
98 4 508 399 115 403 
99 6 300 218 546 35 255 282 
100 2 433 40 
101 6 78 183 459 583 524 192 
102 7 486 306 193 64 211 160 276 
103 7 435 147 305 507 82 408 596 
104 3 88 377 381 
105 7 119 276 87 400 187 464 80 
106 7 307 111 564 148 221 24 483 
107 3 330 436 65 
108 4 268 482 95 385 
109 3 319 607 40 
110 7 476 153 458 9 69 210 201 
111 7 106 307 148 564 24 221 483 
112 7 243 286 605 479 49 368 145 
113 7 274 235 460 96 132 323 525 
114 6 608 133 502 468 577 43 
115 6 98 22 462 508 399 602 
116 7 366 592 558 542 37 90 52 
117 6 556 149 7 202 140 470 
118 7 363 3 53 550 594 487 257 
119 7 400 105 464 80 187 87 276 
120 5 505 121 216 484 79 
121 6 484 79 216 505 120 251 
122 7 554 220 36 86 503 365 606 
123 7 192 459 437 78 101 38 232 
124 4 224 437 244 13 
125 7 64 438 371 193 585 102 486 
126 7 358 127 553 610 181 34 10 
127 7 126 553 358 610 34 181 406 
128 6 299 94 177 271 278 284 
129 6 281 292 310 115 22 248 
130 4 491 415 18 261 
131 7 2 197 413 83 315 414 501 
132 5 235 96 525 274 171 
133 6 468 55 222 577 186 502 
134 7 278 510 89 48 128 434 597 
135 3 587 67 283 
136 7 520 93 563 302 307 564 189 
137 5 579 359 12 528 290 
138 6 334 439 472 67 277 475 
139 7 250 322 492 338 572 21 496 
140 5 555 556 117 279 30 
141 6 353 272 50 49 142 409 
142 5 448 50 49 446 368 
143 6 541 291 244 75 547 232 
144 7 361 589 239 488 266 23 194 
145 7 420 166 112 243 25 265 286 
146 6 516 68 431 456 180 208 
147 6 82 435 507 305 103 324 
148 7 24 111 483 564 106 221 307 
149 6 7 202 556 263 329 117 
150 6 418 304 498 41 312 529 
151 5 55 186 264 301 133 
152 4 8 352 171 532 
153 7 458 69 110 85 210 476 201 
154 7 345 32 517 189 373 441 494 
155 6 529 45 312 249 304 418 
156 6 375 596 21 496 250 408 
157 6 539 318 65 607 330 319 
158 7 542 52 366 116 219 90 447 
159 5 480 39 477 173 30 
160 7 33 276 105 87 119 187 211 
161 4 273 22 462 281 
162 6 502 577 91 43 574 222 
163 7 485 44 398 571 426 367 347 
164 2 523 97 
165 7 394 12 566 137 290 207 579 
166 7 209 296 145 288 270 29 457 
167 6 560 76 332 229 416 449 
168 7 83 315 289 413 2 262 197 
169 6 481 23 327 377 565 266 
170 7 56 600 471 92 379 257 487 
171 3 352 152 8 
172 4 302 26 497 314 
173 4 39 575 30 477 
174 7 37 392 558 478 592 116 52 
175 7 5 504 569 185 409 339 20 
176 6 230 545 58 422 195 246 
177 4 94 284 271 299 
178 3 601 611 57 
179 7 275 557 376 73 515 597 48 
180 6 431 456 360 325 63 212 
181 7 126 127 358 200 553 34 610 
182 7 225 495 46 390 320 531 77 
183 5 524 101 66 583 384 
184 7 536 509 387 372 81 11 465 
185 7 504 20 175 534 204 343 569 
186 6 151 55 264 133 468 301 
187 7 80 276 464 211 254 119 105 
188 2 97 164 
189 7 93 32 154 563 345 373 441 
190 5 395 198 306 461 33 
191 3 208 70 10 
192 7 123 459 78 437 101 38 583 
193 7 211 80 187 276 102 254 486 
194 6 488 565 327 239 23 130 
195 6 221 230 58 545 176 148 
196 3 71 309 473 
197 7 2 413 131 315 414 83 168 
198 4 395 461 190 33 
199 7 253 566 42 290 394 406 81 
200 7 425 34 604 181 406 127 297 
201 3 210 69 458 
202 4 149 329 7 263 
203 7 320 77 531 590 238 27 495 
204 6 534 185 20 324 500 504 
205 6 424 350 432 521 92 487 
206 7 72 588 214 47 215 362 506 
207 7 316 86 606 503 10 165 610 
208 4 191 70 516 68 
209 7 29 270 166 288 296 396 389 
210 5 201 458 69 476 153 
211 7 193 80 187 276 464 254 105 
212 7 325 360 456 63 68 180 503 
213 7 217 256 592 90 226 116 366 
214 7 72 47 588 206 215 362 337 
215 7 47 206 595 364 72 214 470 
216 5 484 121 505 120 79 
217 7 213 256 226 592 116 366 90 
218 7 546 35 300 282 60 255 444 
219 5 326 447 158 52 584 
220 7 122 554 36 365 62 86 503 
221 6 111 106 148 307 24 294 
222 6 468 577 133 55 301 502 
223 5 295 532 17 8 428 
224 7 124 437 13 38 18 123 415 
225 7 495 182 390 46 320 531 77 
226 5 217 213 37 256 592 
227 6 31 411 247 422 90 246 
228 3 398 264 44 
229 7 76 167 593 332 560 416 423 
230 5 176 545 58 195 246 
231 5 570 386 397 15 530 
232 7 547 291 287 75 143 494 244 
233 7 51 567 13 260 415 224 124 
234 7 385 84 95 582 482 294 108 
235 7 96 274 132 113 460 348 525 
236 7 265 25 427 336 393 420 514 
237 7 354 254 551 464 59 80 187 
238 6 590 313 27 492 9 476 
239 5 488 194 144 327 23 
240 7 599 66 603 4 391 341 407 
241 7 28 280 346 410 519 494 517 
242 4 608 114 374 43 
243 5 112 605 286 479 49 
244 6 143 291 541 232 124 75 
245 5 357 474 251 79 121 
246 5 58 344 247 598 411 
247 6 411 227 31 246 58 422 
248 4 403 115 98 508 
249 5 155 529 312 45 267 
250 7 139 21 492 496 596 572 338 
251 7 79 121 484 120 216 417 505 
252 6 581 321 71 473 466 196 
253 7 199 566 406 42 290 394 465 
254 7 464 354 80 187 237 119 400 
255 3 282 546 35 
256 6 213 217 475 518 226 90 
257 7 53 379 600 3 56 170 118 
258 6 362 506 206 588 72 493 
259 7 597 510 48 89 134 275 557 
260 4 552 567 51 233 
261 7 51 233 415 13 567 552 260 
262 6 289 168 414 315 83 197 
263 5 329 308 7 149 202 
264 3 151 186 55 
265 7 25 236 427 336 514 393 420 
266 7 23 327 488 169 144 589 194 
267 4 501 131 2 453 
268 4 108 482 95 385 
269 5 61 429 370 408 578 
270 6 29 209 396 389 513 166 
271 2 177 94 
272 3 141 50 353 
273 4 462 22 602 161 
274 7 96 113 235 132 460 525 303 
275 7 179 376 557 73 597 515 48 
276 7 187 80 105 211 464 119 160 
277 7 67 138 475 334 439 518 472 
278 7 89 48 128 134 299 376 510 
279 4 555 14 140 54 
280 7 28 410 519 512 241 457 355 
281 6 161 292 22 462 129 273 
282 4 255 546 35 412 
283 5 573 439 611 67 334 
284 4 177 94 299 271 
285 3 404 538 30 
286 7 479 368 112 446 243 49 537 
287 7 232 547 75 291 346 494 78 
288 7 296 457 209 166 512 280 29 
289 5 168 262 315 83 413 
290 7 42 199 81 12 253 394 566 
291 7 75 232 547 143 541 244 287 
292 5 281 310 129 161 22 
293 5 16 365 436 36 62 
294 6 582 84 221 106 111 234 
295 6 223 17 428 378 562 348 
296 7 288 457 166 209 512 280 29 
297 6 604 85 200 181 425 69 
298 4 412 60 331 444 
299 7 94 128 177 284 434 271 499 
300 7 99 218 546 35 60 444 282 
301 6 548 55 151 222 468 133 
302 4 172 563 314 26 
303 7 527 525 574 490 91 96 274 
304 6 418 312 150 529 155 45 
305 6 507 82 147 324 103 435 
306 7 486 102 190 395 160 33 198 
307 7 106 111 564 148 24 221 483 
308 4 543 263 329 7 
309 3 196 350 71 
310 5 292 129 281 161 22 
311 7 580 6 455 598 57 483 24 
312 6 529 304 155 418 45 150 
313 7 27 590 476 9 110 238 210 
314 3 369 591 74 
315 7 83 413 2 168 197 131 414 
316 7 207 606 86 503 10 554 122 
317 5 559 467 522 364 54 
318 6 65 539 330 157 431 107 
319 6 607 109 539 157 318 65 
320 7 77 531 46 9 383 27 590 
321 6 71 196 473 581 252 309 
322 5 139 338 250 492 21 
323 6 274 303 113 96 574 235 
324 6 561 507 305 82 500 204 
325 7 212 456 360 63 180 68 431 
326 4 219 447 52 158 
327 7 23 565 194 481 169 488 266 
328 7 419 381 88 377 169 266 23 
329 4 263 202 149 7 
330 4 107 65 318 431 
331 5 382 444 60 298 412 
332 5 76 416 449 560 167 
333 6 540 386 397 452 609 15 
334 6 138 439 472 67 277 573 
335 5 584 445 340 422 31 
336 6 25 427 514 265 236 393 
337 2 401 47 
338 5 139 496 322 250 21 
339 6 504 5 20 175 343 409 
340 5 445 335 584 422 31 
341 5 407 599 240 4 391 
342 6 38 18 491 583 459 192 
343 7 20 504 339 185 500 534 11 
344 4 246 598 58 472 
345 7 154 32 517 373 189 494 75 
346 7 494 517 241 28 75 547 410 
347 6 426 367 163 398 44 452 
348 7 378 562 17 428 295 223 152 
349 5 210 82 201 402 147 
350 4 205 424 92 432 
351 4 450 73 515 557 
352 3 171 152 8 
353 5 141 409 272 5 50 
354 7 237 254 464 80 400 551 187 
355 7 384 391 4 519 410 512 240 
356 4 441 93 108 268 
357 6 245 333 251 79 484 121 
358 7 126 553 127 610 181 10 34 
359 5 137 579 12 528 290 
360 6 63 325 456 212 180 431 
361 6 144 40 100 589 433 239 
362 7 506 258 588 72 206 214 47 
363 6 594 118 533 3 550 53 
364 6 522 54 467 14 559 595 
365 7 36 16 62 293 220 122 554 
366 7 116 592 542 558 90 37 52 
367 6 426 347 398 163 44 485 
368 7 446 479 286 537 49 112 243 
369 3 314 74 591 
370 6 578 61 408 269 204 429 
371 3 125 438 64 
372 7 509 11 536 184 500 576 343 
373 4 154 345 189 32 
374 6 43 114 242 502 328 608 
375 6 156 596 496 21 429 408 
376 7 275 179 89 48 278 515 597 
377 4 169 481 419 23 
378 7 562 348 17 428 295 223 8 
379 7 600 530 257 170 56 471 53 
380 5 59 463 551 443 511 
381 6 88 419 328 104 377 169 
382 6 331 444 60 298 412 35 
383 7 9 85 110 153 458 531 69 
384 7 355 391 4 519 410 183 512 
385 7 234 95 84 482 108 268 582 
386 7 397 15 570 231 544 609 452 
387 7 81 42 184 465 576 290 199 
388 3 461 262 33 
389 4 513 396 29 270 
390 7 495 225 182 46 320 203 531 
391 7 4 240 355 599 384 407 341 
392 7 174 558 37 52 478 116 592 
393 7 427 236 265 336 25 430 593 
394 7 566 165 406 199 253 290 12 
395 4 198 190 461 33 
396 5 29 389 270 513 209 
397 7 386 15 570 544 231 609 452 
398 6 44 163 367 426 485 347 
399 4 98 508 159 115 
400 7 119 464 105 549 254 80 87 
401 2 337 47 
402 7 454 561 536 324 11 500 509 
403 2 508 98 
404 4 285 538 30 39 
405 3 568 451 66 
406 7 566 34 253 394 199 165 290 
407 5 341 4 599 240 391 
408 7 61 370 429 269 578 103 375 
409 7 5 353 175 569 339 141 504 
410 7 519 28 280 241 512 355 384 
411 5 247 227 31 246 344 
412 4 35 298 60 444 
413 7 2 83 197 315 131 168 414 
414 7 197 413 2 262 315 83 131 
415 7 18 13 224 233 51 567 38 
416 4 449 332 76 560 
417 4 120 251 79 121 
418 6 304 150 312 529 41 155 
419 7 328 377 88 381 169 481 266 
420 6 145 236 265 25 112 243 
421 7 87 549 105 119 400 414 197 
422 7 247 31 445 227 340 176 335 
423 6 576 593 229 76 167 560 
424 6 205 432 350 521 92 487 
425 7 200 34 406 604 253 566 199 
426 6 367 347 398 163 44 485 
427 7 336 265 25 236 393 514 430 
428 6 17 562 378 295 348 223 
429 3 61 269 408 
430 6 393 427 336 528 514 62 
431 6 180 456 65 318 330 360 
432 5 521 424 205 487 92 
433 2 100 40 
434 6 499 299 94 128 284 177 
435 7 147 103 82 305 507 572 324 
436 4 293 16 107 365 
437 7 123 192 224 459 78 124 38 
438 5 125 585 64 371 193 
439 6 334 138 67 472 277 573 
440 4 428 460 562 17 
441 7 32 541 154 189 345 93 143 
442 4 489 550 3 594 
443 3 380 59 511 
444 7 60 331 382 298 412 35 218 
445 6 340 335 584 422 31 227 
446 7 368 479 537 286 591 49 142 
447 5 52 219 392 326 478 
448 5 142 50 49 446 272 
449 4 416 332 76 560 
450 2 351 73 
451 6 469 603 66 568 405 240 
452 7 609 540 15 571 544 397 485 
453 3 501 267 2 
454 5 402 536 561 184 11 
455 4 57 611 497 601 
456 6 180 325 360 212 431 63 
457 7 296 288 280 74 512 28 241 
458 7 69 153 110 210 201 85 476 
459 6 78 192 123 101 583 437 
460 6 113 235 274 562 378 96 
461 5 198 395 33 190 388 
462 5 22 273 602 161 115 
463 5 380 511 59 551 41 
464 7 80 187 254 119 400 276 105 
465 5 387 42 184 81 199 
466 4 581 417 321 71 
467 5 317 522 559 364 54 
468 6 133 222 55 577 186 301 
469 6 451 603 568 66 405 240 
470 6 595 14 54 117 364 215 
471 7 170 56 600 92 379 530 257 
472 4 138 334 439 67 
473 3 196 71 309 
474 4 245 251 357 79 
475 6 277 518 67 138 472 256 
476 7 110 210 153 9 458 313 201 
477 3 173 39 159 
478 6 174 392 37 558 52 447 
479 7 286 368 446 112 243 537 49 
480 6 159 39 30 173 538 477 
481 5 169 327 565 23 377 
482 5 108 268 95 385 234 
483 7 24 148 564 111 26 307 106 
484 6 216 121 79 505 120 251 
485 7 571 163 544 44 609 15 452 
486 7 102 306 64 193 211 160 190 
487 6 521 92 432 56 118 170 
488 7 239 194 327 23 144 266 565 
489 3 442 550 3 
490 5 527 548 91 525 301 
491 5 342 18 38 130 415 
492 7 572 250 139 21 435 322 596 
493 4 586 258 467 19 
494 7 346 517 75 547 241 345 28 
495 7 225 182 390 46 320 531 77 
496 7 21 596 156 375 250 338 139 
497 3 455 172 26 
498 7 41 549 400 150 119 421 87 
499 6 434 299 284 94 177 128 
500 7 11 561 324 534 343 20 204 
501 7 2 83 413 315 453 131 168 
502 6 577 162 133 468 222 43 
503 7 606 86 316 554 122 220 207 
504 7 20 185 175 343 339 5 534 
505 5 120 216 121 484 79 
506 7 362 258 588 72 206 214 47 
507 6 82 305 147 324 435 561 
508 4 98 399 403 115 
509 7 372 536 11 184 500 576 387 
510 7 597 48 134 259 89 278 376 
511 4 463 380 443 59 
512 7 280 519 410 288 355 28 296 
513 4 389 396 29 270 
514 6 336 25 427 265 236 513 
515 3 376 179 73 
516 4 146 68 208 70 
517 7 345 494 154 346 32 75 373 
518 6 475 277 587 67 256 138 
519 7 410 280 28 355 384 512 241 
520 7 136 307 564 106 111 84 93 
521 5 432 487 92 424 205 
522 6 559 364 467 54 317 14 
523 2 164 97 
524 5 183 66 240 405 583 
525 5 527 96 132 490 303 
526 4 351 450 73 557 
527 5 525 490 303 96 132 
528 5 579 137 359 12 430 
529 6 312 155 45 304 418 249 
530 6 379 600 471 170 56 257 
531 7 77 320 383 9 46 27 110 
532 4 8 533 223 295 
533 5 363 532 8 118 487 
534 6 204 185 20 500 504 343 
535 5 297 181 46 604 85 
536 7 509 11 372 184 402 454 500 
537 7 591 446 368 74 479 286 142 
538 5 404 285 30 480 39 
539 7 318 65 157 330 607 431 107 
540 7 452 609 15 397 333 386 571 
541 7 143 75 291 441 547 244 32 
542 7 90 366 116 158 592 52 558 
543 4 308 263 7 329 
544 7 15 571 397 570 485 386 609 
545 4 230 176 195 58 
546 5 218 282 255 35 412 
547 7 75 232 291 287 494 346 143 
548 4 301 490 55 151 
549 7 421 87 400 498 119 105 41 
550 7 3 489 442 53 118 594 257 
551 7 59 380 237 463 354 41 254 
552 2 260 51 
553 7 126 127 358 610 10 34 207 
554 7 122 220 36 86 503 365 606 
555 4 279 140 14 54 
556 7 117 7 149 202 575 140 263 
557 7 179 275 73 376 597 515 48 
558 7 37 592 174 392 116 366 52 
559 6 317 522 467 364 54 14 
560 6 167 76 332 416 449 229 
561 7 324 402 500 507 82 454 11 
562 7 428 378 17 348 295 223 460 
563 4 93 189 373 32 
564 7 307 111 24 483 106 148 26 
565 6 327 194 481 23 169 488 
566 7 253 394 406 199 290 165 42 
567 6 13 233 51 260 124 224 
568 4 405 451 469 66 
569 5 175 5 185 409 504 
570 6 231 386 15 397 544 530 
571 7 485 544 163 15 609 452 397 
572 7 492 250 139 435 103 21 147 
573 5 283 439 334 138 67 
574 7 91 303 162 490 527 577 222 
575 4 173 7 543 556 
576 6 423 81 387 593 184 372 
577 6 222 502 468 133 55 162 
578 6 370 61 269 408 204 185 
579 5 137 359 528 12 290 
580 7 6 311 24 483 598 148 455 
581 7 252 321 466 71 196 417 473 
582 7 294 84 234 385 106 221 95 
583 5 101 183 78 524 459 
584 6 335 445 340 422 31 158 
585 5 438 125 193 64 237 
586 4 493 19 258 506 
587 4 135 518 277 67 
588 7 72 206 214 47 362 506 215 
589 6 144 266 361 488 23 239 
590 7 27 313 238 9 476 110 77 
591 7 537 74 446 314 368 369 479 
592 7 116 558 366 37 174 217 392 
593 5 229 423 393 76 167 
594 6 363 118 550 442 3 489 
595 6 470 14 54 215 364 522 
596 7 21 156 496 375 250 103 408 
597 7 48 510 89 259 376 275 278 
598 4 344 6 580 246 
599 7 240 603 4 66 391 341 407 
600 7 56 170 379 471 257 92 530 
601 4 178 611 57 455 
602 3 273 462 22 
603 7 66 240 599 451 469 341 524 
604 7 85 297 200 425 69 458 153 
605 5 243 112 49 50 286 
606 7 503 86 316 122 554 207 220 
607 6 319 157 539 109 318 65 
608 6 114 133 186 468 55 502 
609 7 452 540 15 397 544 571 386 
610 7 553 127 126 358 34 207 165 
611 5 57 601 455 178 283 
DEPOT_SECTION
   1
   -1
EOF
