NAME :  X-n916-kX-w366-c7.cctp
COMMENT : 	Adapted by Maziero, Usberti and Cavellucci from the Uchoa, Pecin, Pessoa, Poggi, Subramanian, and Vidal (2013)
TYPE :  CCTP
DIMENSION :    836
EDGE_WEIGHT_TYPE : 	EUC_2D	
CAPACITY : 	33
VERTICES_WITHIN_COVERAGE :  7
VERTICES_WITH_DEMAND : 	366
NODE_COORD_SECTION
1 0 0
2 471 44
3 63 475
4 766 504
5 895 595
6 816 377
7 462 590
8 997 596
9 775 993
10 16 97
11 839 348
12 558 896
13 423 912
14 169 411
15 75 602
16 402 52
17 388 208
18 202 39
19 510 841
20 555 484
21 920 633
22 369 718
23 432 696
24 624 872
25 472 323
26 753 701
27 584 440
28 292 665
29 202 310
30 764 255
31 662 486
32 822 575
33 469 13
34 640 165
35 814 886
36 554 82
37 336 745
38 950 229
39 142 835
40 407 932
41 69 205
42 86 764
43 202 165
44 376 632
45 639 987
46 775 98
47 503 855
48 38 960
49 215 73
50 566 78
51 4 517
52 44 457
53 676 337
54 338 568
55 623 911
56 626 931
57 97 43
58 799 942
59 725 430
60 93 953
61 264 347
62 986 595
63 631 614
64 331 362
65 158 793
66 760 436
67 115 641
68 307 764
69 469 817
70 315 388
71 906 830
72 564 25
73 88 246
74 671 892
75 181 139
76 723 784
77 609 798
78 174 403
79 76 671
80 984 939
81 830 579
82 3 893
83 176 164
84 625 158
85 249 590
86 663 347
87 21 500
88 501 372
89 572 218
90 483 270
91 604 201
92 548 281
93 205 745
94 125 178
95 870 931
96 276 846
97 759 839
98 79 105
99 218 992
100 277 797
101 545 62
102 161 102
103 1 827
104 719 128
105 80 366
106 16 732
107 24 521
108 848 600
109 585 594
110 618 577
111 44 300
112 489 239
113 479 978
114 768 731
115 274 30
116 546 837
117 890 640
118 594 308
119 878 716
120 498 448
121 145 96
122 54 935
123 473 5
124 906 899
125 277 752
126 435 254
127 630 686
128 905 275
129 521 401
130 850 425
131 374 186
132 712 433
133 814 730
134 740 622
135 681 74
136 120 490
137 297 816
138 376 534
139 982 560
140 1 332
141 815 625
142 356 868
143 659 994
144 804 110
145 415 517
146 106 844
147 549 366
148 57 742
149 848 739
150 381 700
151 442 808
152 867 408
153 67 930
154 763 186
155 581 91
156 416 56
157 729 620
158 163 73
159 160 129
160 468 902
161 694 730
162 319 644
163 831 476
164 863 921
165 524 71
166 299 197
167 193 823
168 18 360
169 987 845
170 998 548
171 302 506
172 432 229
173 550 142
174 637 527
175 168 0
176 178 804
177 888 448
178 270 481
179 250 421
180 410 125
181 373 134
182 275 772
183 965 25
184 858 502
185 587 967
186 860 275
187 178 710
188 331 4
189 811 598
190 560 886
191 712 512
192 216 974
193 528 75
194 740 12
195 840 109
196 980 512
197 928 334
198 90 78
199 788 322
200 665 990
201 400 702
202 131 24
203 238 610
204 392 541
205 40 394
206 713 806
207 823 571
208 863 568
209 145 20
210 509 893
211 629 447
212 854 236
213 717 78
214 525 774
215 695 620
216 721 979
217 957 457
218 594 451
219 514 110
220 899 994
221 772 937
222 877 942
223 533 82
224 399 742
225 273 688
226 360 780
227 650 339
228 312 455
229 272 771
230 362 515
231 716 823
232 307 627
233 787 639
234 28 212
235 38 119
236 130 518
237 535 632
238 832 952
239 874 955
240 106 653
241 440 485
242 73 329
243 934 692
244 638 325
245 126 820
246 382 958
247 884 840
248 706 90
249 424 652
250 216 964
251 841 543
252 370 271
253 863 886
254 361 490
255 875 91
256 266 457
257 179 817
258 430 197
259 512 412
260 111 1
261 811 631
262 366 758
263 227 575
264 197 524
265 398 905
266 939 361
267 953 287
268 897 410
269 285 104
270 245 215
271 569 401
272 159 310
273 20 90
274 212 39
275 415 407
276 13 641
277 855 610
278 95 571
279 780 936
280 63 84
281 240 801
282 977 62
283 405 258
284 995 89
285 334 695
286 265 783
287 988 790
288 68 368
289 497 712
290 201 513
291 676 581
292 625 400
293 791 162
294 351 55
295 572 827
296 584 930
297 482 749
298 110 723
299 230 362
300 942 467
301 540 63
302 202 848
303 161 162
304 272 788
305 137 87
306 177 274
307 324 842
308 229 434
309 149 697
310 916 866
311 634 157
312 42 213
313 655 154
314 123 1000
315 460 506
316 21 698
317 435 615
318 838 67
319 120 425
320 54 726
321 475 624
322 923 980
323 391 94
324 105 901
325 463 618
326 568 659
327 999 831
328 719 93
329 290 423
330 796 547
331 123 595
332 515 939
333 550 757
334 954 98
335 898 486
336 695 337
337 40 727
338 217 284
339 910 245
340 536 956
341 262 332
342 91 91
343 697 755
344 894 726
345 919 962
346 909 22
347 253 535
348 703 346
349 416 895
350 330 596
351 524 250
352 475 780
353 365 803
354 844 845
355 909 202
356 802 755
357 77 246
358 266 819
359 759 835
360 850 267
361 71 176
362 244 82
363 881 234
364 867 75
365 564 436
366 749 216
367 30 624
368 677 208
369 980 257
370 582 317
371 421 870
372 183 454
373 442 766
374 875 497
375 217 979
376 867 873
377 280 473
378 582 382
379 35 597
380 527 786
381 991 617
382 448 513
383 581 780
384 415 498
385 215 359
386 964 211
387 886 296
388 696 784
389 102 90
390 227 699
391 76 258
392 705 580
393 752 531
394 246 128
395 834 350
396 838 453
397 809 825
398 468 650
399 204 930
400 523 626
401 110 964
402 422 180
403 940 246
404 513 333
405 446 78
406 992 939
407 58 941
408 24 763
409 17 536
410 70 381
411 142 464
412 621 976
413 878 960
414 286 774
415 349 202
416 841 520
417 134 20
418 107 804
419 278 847
420 103 639
421 555 920
422 427 289
423 987 735
424 905 345
425 608 750
426 471 58
427 482 339
428 319 913
429 966 994
430 288 458
431 225 777
432 501 384
433 3 25
434 259 851
435 632 304
436 180 66
437 300 608
438 591 113
439 569 817
440 165 31
441 137 397
442 820 139
443 858 354
444 846 618
445 0 438
446 308 337
447 772 594
448 684 931
449 76 667
450 750 130
451 538 354
452 725 339
453 758 410
454 664 460
455 837 95
456 90 978
457 898 281
458 301 417
459 480 247
460 441 215
461 749 43
462 30 919
463 481 281
464 680 2
465 262 513
466 892 100
467 291 346
468 297 568
469 248 393
470 41 933
471 32 959
472 535 246
473 790 155
474 351 192
475 974 278
476 853 66
477 402 223
478 946 112
479 125 815
480 542 231
481 867 55
482 356 901
483 432 398
484 943 107
485 50 932
486 152 996
487 456 587
488 249 311
489 993 242
490 499 264
491 801 81
492 740 343
493 413 424
494 885 23
495 22 856
496 120 843
497 878 250
498 285 767
499 62 901
500 923 284
501 647 167
502 284 481
503 474 146
504 879 57
505 226 446
506 681 214
507 10 764
508 303 406
509 306 364
510 443 329
511 256 544
512 902 315
513 99 834
514 246 156
515 244 466
516 744 203
517 795 267
518 484 108
519 152 734
520 862 64
521 403 167
522 80 925
523 918 400
524 888 170
525 122 356
526 970 207
527 838 63
528 772 29
529 481 228
530 159 405
531 142 807
532 631 386
533 927 39
534 374 989
535 269 417
536 568 286
537 289 426
538 936 279
539 869 414
540 197 686
541 187 768
542 369 80
543 166 764
544 908 249
545 224 440
546 337 486
547 220 794
548 74 791
549 787 73
550 787 362
551 750 177
552 254 284
553 547 281
554 172 865
555 24 961
556 887 262
557 687 320
558 156 826
559 310 852
560 239 787
561 297 604
562 122 849
563 500 280
564 308 485
565 216 326
566 788 310
567 120 859
568 952 262
569 50 951
570 521 285
571 566 179
572 51 802
573 234 720
574 297 461
575 102 907
576 602 414
577 568 274
578 977 339
579 363 614
580 262 418
581 877 28
582 266 562
583 283 404
584 21 904
585 464 235
586 436 737
587 85 979
588 827 264
589 127 983
590 883 290
591 553 441
592 118 745
593 863 44
594 494 238
595 348 368
596 871 87
597 281 341
598 437 236
599 231 337
600 479 274
601 589 30
602 486 301
603 261 354
604 417 390
605 169 825
606 934 247
607 199 952
608 491 210
609 547 203
610 810 114
611 366 344
612 138 699
613 121 678
614 458 199
615 265 932
616 150 301
617 520 532
618 941 342
619 185 796
620 184 339
621 961 294
622 925 179
623 113 864
624 254 377
625 785 101
626 944 220
627 392 85
628 223 275
629 451 269
630 272 419
631 213 987
632 542 240
633 435 278
634 590 292
635 816 399
636 10 893
637 912 350
638 932 281
639 431 819
640 102 918
641 915 417
642 248 506
643 507 957
644 610 313
645 104 710
646 445 305
647 91 921
648 968 286
649 530 28
650 772 457
651 821 71
652 568 311
653 420 267
654 331 433
655 897 47
656 721 109
657 783 26
658 843 135
659 649 30
660 792 295
661 817 187
662 310 398
663 108 980
664 113 943
665 627 268
666 843 9
667 827 183
668 469 247
669 293 476
670 48 802
671 299 571
672 247 818
673 926 105
674 198 537
675 193 518
676 319 377
677 212 832
678 263 293
679 506 64
680 124 894
681 277 359
682 325 320
683 720 133
684 82 861
685 100 923
686 585 222
687 496 113
688 820 51
689 131 436
690 280 364
691 175 812
692 921 343
693 678 290
694 960 590
695 927 210
696 106 895
697 287 535
698 494 399
699 418 389
700 563 224
701 227 316
702 234 332
703 858 251
704 345 175
705 908 99
706 401 449
707 125 846
708 226 934
709 915 307
710 420 185
711 99 895
712 858 255
713 904 280
714 836 295
715 954 91
716 307 462
717 63 942
718 234 500
719 990 351
720 16 979
721 746 95
722 110 822
723 874 368
724 282 437
725 735 65
726 343 882
727 16 952
728 698 290
729 797 162
730 836 112
731 519 268
732 392 244
733 889 215
734 822 706
735 567 222
736 569 663
737 254 984
738 939 225
739 953 324
740 202 931
741 882 219
742 252 380
743 64 517
744 875 542
745 786 222
746 908 103
747 915 177
748 321 438
749 205 294
750 408 460
751 189 798
752 93 968
753 889 238
754 296 871
755 497 523
756 329 391
757 548 355
758 630 125
759 322 213
760 897 281
761 474 446
762 221 764
763 917 309
764 390 957
765 435 336
766 862 457
767 144 827
768 131 239
769 396 258
770 817 68
771 868 115
772 861 244
773 484 279
774 252 836
775 413 905
776 121 908
777 223 490
778 775 116
779 932 226
780 807 379
781 254 997
782 332 319
783 808 87
784 973 410
785 549 147
786 517 226
787 284 419
788 851 84
789 383 311
790 456 720
791 816 63
792 336 428
793 944 359
794 185 820
795 18 846
796 861 274
797 50 970
798 869 277
799 872 242
800 370 207
801 46 964
802 541 303
803 442 386
804 835 160
805 206 314
806 533 279
807 307 397
808 205 953
809 390 508
810 983 411
811 561 527
812 709 161
813 47 963
814 786 186
815 960 209
816 698 347
817 923 254
818 999 380
819 408 243
820 677 170
821 510 245
822 973 291
823 39 922
824 37 1000
825 966 301
826 344 450
827 112 334
828 133 830
829 107 466
830 798 121
831 224 769
832 503 237
833 294 796
834 521 264
835 113 820
836 996 220
DEMAND_SECTION
2 8
3 6
4 7
5 6
6 10
7 10
8 5
9 7
10 8
11 8
12 6
13 6
14 6
15 6
16 5
17 8
18 6
19 10
20 9
21 8
22 9
23 6
24 10
25 10
26 6
27 6
28 6
29 9
30 9
31 10
32 9
33 6
34 5
35 5
36 6
37 10
38 8
39 5
40 6
41 9
42 8
43 7
44 8
45 6
46 7
47 6
48 5
49 7
50 9
51 8
52 8
53 10
54 8
55 7
56 10
57 6
58 5
59 6
60 10
61 7
62 6
63 7
64 8
65 9
66 9
67 9
68 6
69 10
70 7
71 9
72 5
73 7
74 9
75 6
76 5
77 9
78 6
79 5
80 5
81 5
82 7
83 10
84 10
85 6
86 9
87 7
88 10
89 10
90 7
91 10
92 7
93 9
94 5
95 9
96 8
97 7
98 8
99 10
100 10
101 7
102 10
103 6
104 6
105 5
106 10
107 10
108 6
109 5
110 7
111 7
112 5
113 5
114 7
115 9
116 9
117 8
118 5
119 7
120 9
121 7
122 7
123 9
124 5
125 9
126 5
127 6
128 6
129 8
130 10
131 7
132 8
133 9
134 10
135 6
136 8
137 7
138 6
139 7
140 5
141 5
142 6
143 8
144 10
145 10
146 8
147 10
148 9
149 6
150 10
151 5
152 5
153 7
154 5
155 10
156 6
157 8
158 8
159 5
160 9
161 6
162 7
163 7
164 6
165 9
166 8
167 10
168 10
169 6
170 9
171 9
172 5
173 5
174 8
175 10
176 6
177 8
178 5
179 7
180 5
181 5
182 10
183 9
184 10
185 8
186 7
187 6
188 5
189 8
190 6
191 5
192 9
193 9
194 5
195 9
196 7
197 8
198 8
199 9
200 10
201 10
202 7
203 8
204 7
205 6
206 9
207 10
208 10
209 7
210 10
211 5
212 10
213 8
214 8
215 8
216 9
217 8
218 8
219 8
220 10
221 8
222 7
223 6
224 9
225 10
226 7
227 5
228 6
229 9
230 8
231 6
232 8
233 7
234 7
235 5
236 7
237 8
238 6
239 5
240 8
241 6
242 6
243 10
244 8
245 9
246 6
247 7
248 7
249 5
250 7
251 10
252 6
253 5
254 10
255 6
256 10
257 7
258 10
259 9
260 5
261 5
262 5
263 8
264 8
265 5
266 8
267 10
268 6
269 7
270 9
271 8
272 6
273 9
274 10
275 10
276 6
277 10
278 9
279 7
280 10
281 9
282 5
283 6
284 10
285 5
286 5
287 7
288 9
289 9
290 10
291 6
292 5
293 10
294 7
295 7
296 8
297 10
298 5
299 5
300 7
301 10
302 8
303 10
304 7
305 8
306 10
307 9
308 8
309 10
310 7
311 10
312 10
313 6
314 7
315 6
316 8
317 9
318 7
319 6
320 5
321 9
322 6
323 8
324 9
325 6
326 6
327 5
328 7
329 6
330 10
331 7
332 5
333 5
334 8
335 8
336 6
337 6
338 7
339 7
340 7
341 5
342 9
343 7
344 6
345 5
346 9
347 5
348 6
349 7
350 8
351 10
352 9
353 5
354 6
355 9
356 6
357 7
358 5
359 9
360 10
361 10
362 6
363 5
364 8
365 6
366 10
367 10
COVERAGE_SECTION
2 7 426 33 123 679 405 156 165 
3 7 52 743 829 87 136 107 51 
4 7 393 650 330 191 66 163 416 
5 7 208 277 21 117 108 444 744 
6 7 780 635 395 550 11 443 130 
7 7 487 325 321 317 398 400 249 
8 7 62 381 694 139 170 21 196 
9 7 58 216 221 279 238 239 413 
10 7 273 235 280 98 433 342 198 
11 6 395 443 6 723 780 714 
12 7 190 421 296 210 116 332 340 
13 7 775 349 40 265 371 160 764 
14 7 78 530 441 372 689 319 411 
15 7 278 379 420 331 367 67 240 
16 7 156 627 323 542 294 405 2 
17 7 800 477 131 732 415 710 474 
18 7 274 436 49 440 158 175 209 
19 7 47 116 69 210 380 295 439 
20 7 591 811 365 218 27 617 120 
21 7 117 5 694 243 277 381 62 
22 7 150 201 224 262 285 37 226 
23 7 201 790 586 249 150 224 398 
24 7 55 74 56 190 295 12 296 
25 7 427 602 510 646 765 404 463 
26 7 114 161 133 734 233 356 343 
27 7 218 365 591 576 271 211 20 
28 7 225 162 232 285 437 561 390 
29 7 805 749 565 701 338 620 702 
30 7 517 745 366 660 516 566 588 
31 7 454 174 211 191 132 218 59 
32 7 207 81 189 108 251 330 208 
33 7 123 2 426 649 679 156 405 
34 7 501 311 84 313 820 758 91 
35 7 253 354 376 58 164 279 397 
36 7 50 223 101 301 193 155 165 
37 7 262 68 226 22 285 498 414 
38 7 626 738 779 403 815 386 606 
39 7 767 828 558 707 245 496 562 
40 7 13 265 775 764 246 349 482 
41 7 312 361 234 357 73 391 94 
42 7 548 148 592 418 298 320 572 
43 7 83 75 303 514 159 394 270 
44 7 579 249 162 350 317 150 232 
45 7 143 412 200 185 56 448 55 
46 7 625 778 549 721 144 491 830 
47 7 19 210 116 69 160 190 12 
48 7 471 801 813 555 569 797 727 
49 7 362 274 18 436 158 102 394 
50 7 36 155 101 301 223 193 165 
51 7 107 409 87 743 3 52 445 
52 7 3 445 87 205 743 829 107 
53 7 86 336 557 816 227 348 244 
54 7 350 671 468 138 579 437 561 
55 7 56 24 296 74 448 412 12 
56 7 55 296 412 185 45 448 24 
57 7 198 202 260 417 389 342 209 
58 7 279 221 238 9 35 164 95 
59 7 132 66 453 650 454 191 31 
60 5 752 401 664 456 587 
61 7 603 341 597 681 690 467 624 
62 7 8 381 694 139 170 21 196 
63 7 110 109 291 215 127 326 736 
64 7 595 676 509 756 70 446 611 
65 7 531 176 691 619 543 751 257 
66 7 650 453 59 132 635 4 780 
67 7 420 240 613 331 449 79 15 
68 7 498 414 125 182 37 833 229 
69 7 151 352 639 19 47 373 380 
70 7 662 676 807 756 508 509 64 
71 7 247 310 376 354 124 253 169 
72 7 601 649 101 301 50 36 165 
73 7 357 391 768 41 312 234 111 
74 7 448 24 55 56 231 296 206 
75 7 159 83 303 43 102 121 394 
76 7 206 388 343 231 161 359 97 
77 7 383 439 295 425 333 116 24 
78 7 14 530 441 372 689 319 385 
79 7 449 240 420 613 645 67 320 
80 7 406 429 345 322 124 169 310 
81 7 32 207 189 108 208 251 277 
82 5 636 584 462 495 823 
83 7 303 75 43 159 94 102 514 
84 7 311 34 501 313 758 91 820 
85 7 203 263 582 511 561 468 671 
86 7 227 53 244 336 816 557 348 
87 7 107 51 409 743 3 52 445 
88 7 432 698 129 427 259 404 451 
89 7 735 700 686 609 480 91 632 
90 7 600 773 463 490 563 459 668 
91 7 686 89 735 571 700 84 34 
92 7 553 806 536 577 802 570 731 
93 7 762 541 831 431 573 543 187 
94 7 303 83 361 159 768 41 75 
95 7 164 222 239 413 238 253 124 
96 7 419 434 774 358 754 559 137 
97 7 359 231 397 206 76 35 388 
98 7 342 280 389 198 235 273 305 
99 7 631 375 192 250 781 737 808 
100 7 304 833 286 182 358 414 229 
101 7 301 193 36 165 223 50 649 
102 7 121 159 305 158 436 75 303 
103 5 795 495 670 572 507 
104 7 683 656 450 812 328 248 721 
105 7 288 410 242 525 827 205 168 
106 7 337 408 507 316 320 148 42 
107 7 409 51 87 743 3 52 379 
108 7 277 444 81 208 32 189 207 
109 7 110 63 237 326 400 736 811 
110 7 109 63 174 291 811 392 215 
111 7 242 391 140 357 168 73 288 
112 7 594 459 529 832 668 821 585 
113 7 643 332 340 160 40 13 210 
114 7 26 356 133 734 76 161 343 
115 7 362 188 274 18 49 269 294 
116 7 295 439 19 47 190 380 12 
117 7 21 5 277 444 108 243 141 
118 7 370 634 644 652 536 435 577 
119 7 344 149 734 243 133 117 356 
120 7 761 259 698 129 591 432 20 
121 7 305 102 158 159 389 436 342 
122 7 485 407 717 470 153 569 823 
123 7 33 2 426 649 679 156 405 
124 7 310 253 376 95 164 222 247 
125 7 498 182 229 414 68 286 304 
126 7 598 653 629 633 172 819 283 
127 7 736 326 425 63 161 215 343 
128 7 713 457 760 500 556 544 590 
129 7 259 432 698 88 147 271 451 
130 7 539 152 396 766 635 177 268 
131 7 800 474 17 415 704 521 477 
132 7 59 66 453 454 650 31 191 
133 7 734 356 149 114 119 26 344 
134 7 157 447 215 233 392 261 141 
135 7 248 213 328 656 659 725 104 
136 7 829 236 411 689 3 743 319 
137 7 833 100 358 419 96 307 304 
138 7 204 230 809 145 254 54 384 
139 7 170 62 694 8 196 381 5 
140 7 168 111 242 205 288 410 105 
141 7 261 189 233 444 108 277 81 
142 7 726 482 307 559 265 428 754 
143 7 200 45 412 216 448 56 185 
144 7 610 830 625 783 491 778 46 
145 7 384 809 204 382 241 138 315 
146 7 513 496 562 707 567 623 722 
147 7 757 451 378 271 129 88 404 
148 7 320 337 42 408 106 507 548 
149 7 133 119 734 344 356 114 397 
150 7 201 22 224 285 23 262 37 
151 7 639 69 373 352 371 297 586 
152 7 539 130 268 723 177 641 766 
153 5 717 122 407 522 485 
154 7 551 814 516 366 293 473 729 
155 7 50 438 36 101 223 301 193 
156 7 16 405 627 323 542 426 2 
157 7 134 215 392 447 233 291 261 
158 7 436 102 121 305 440 18 49 
159 7 75 102 303 121 83 305 43 
160 7 210 13 349 775 371 47 332 
161 7 343 388 76 26 114 127 206 
162 7 232 28 437 561 350 285 579 
163 7 396 766 184 416 374 130 650 
164 7 95 222 253 239 413 238 124 
165 7 193 223 301 679 101 36 219 
166 7 759 415 704 474 270 514 800 
167 7 794 257 677 691 176 605 751 
168 7 140 205 288 410 105 242 111 
169 7 327 287 310 71 80 406 124 
170 7 139 196 8 62 694 381 300 
171 7 564 502 669 697 377 546 178 
172 7 598 460 126 819 477 258 585 
173 6 785 571 219 438 36 155 
174 7 31 110 291 454 191 811 211 
175 7 209 440 417 202 18 260 274 
176 7 691 619 257 751 794 65 605 
177 7 766 268 335 539 641 130 152 
178 7 377 502 256 669 430 515 465 
179 6 580 535 630 308 469 545 
180 7 323 181 521 627 402 405 542 
181 7 180 323 521 704 131 627 542 
182 7 229 414 498 286 304 125 100 
183 7 282 533 346 715 284 655 334 
184 7 374 416 163 335 744 251 766 
185 7 412 296 340 56 45 421 55 
186 7 796 798 360 712 703 590 556 
187 7 540 309 519 612 93 390 543 
188 7 294 115 542 16 156 627 323 
189 7 32 81 141 207 261 108 447 
190 7 12 421 296 116 210 295 47 
191 7 393 4 31 392 454 174 291 
192 7 375 250 631 99 808 607 737 
193 7 165 223 301 101 679 36 50 
194 6 461 528 657 725 464 213 
195 7 730 455 658 788 771 610 144 
196 7 170 139 300 217 694 62 8 
197 7 692 618 637 424 739 763 266 
198 7 342 389 280 98 57 305 121 
199 7 566 660 550 492 395 517 714 
200 7 143 45 412 216 448 56 185 
201 7 150 23 22 224 586 249 790 
202 7 417 209 260 440 57 175 158 
203 7 85 263 582 561 437 511 232 
204 7 138 145 809 230 384 54 254 
205 7 410 288 168 105 445 52 140 
206 7 231 76 388 343 359 97 161 
207 7 32 81 189 251 330 108 208 
208 7 744 251 81 108 207 5 32 
209 7 417 202 440 175 260 57 158 
210 7 47 160 332 12 190 19 421 
211 7 218 454 576 27 292 31 532 
212 7 772 703 712 799 363 497 360 
213 7 328 248 725 656 721 135 461 
214 7 380 333 297 352 383 439 116 
215 7 157 392 291 134 63 447 110 
216 7 9 200 448 143 221 279 45 
217 7 300 784 810 641 196 335 523 
218 7 27 365 211 576 591 20 271 
219 7 687 518 223 193 165 679 173 
220 7 322 345 413 239 222 429 95 
221 7 279 58 9 238 35 216 448 
222 7 95 239 413 164 238 345 124 
223 7 193 165 301 36 101 679 50 
224 7 262 586 22 201 150 373 226 
225 7 28 390 573 285 125 162 232 
226 7 262 353 37 224 68 22 833 
227 7 86 244 53 435 557 336 644 
228 7 716 574 748 430 669 654 564 
229 7 182 286 414 498 304 125 100 
230 7 138 254 809 546 204 145 384 
231 7 206 76 388 359 97 343 74 
232 7 437 162 561 350 28 579 671 
233 7 261 141 447 189 134 157 444 
234 7 312 41 361 357 391 73 111 
235 7 10 273 98 280 342 198 361 
236 7 136 411 829 675 278 743 264 
237 7 400 326 736 321 109 398 325 
238 7 58 239 95 164 222 413 279 
239 7 413 222 95 164 238 220 345 
240 7 420 67 613 449 79 612 645 
241 7 384 315 382 145 750 761 706 
242 7 105 288 827 111 410 525 168 
243 7 344 21 119 117 423 381 149 
244 7 227 435 644 86 53 118 557 
245 7 479 828 835 722 767 531 39 
246 7 764 534 40 265 775 13 482 
247 7 71 376 354 310 253 124 397 
248 7 328 213 656 135 725 104 721 
249 7 317 398 23 44 325 201 321 
250 7 192 375 808 607 631 99 708 
251 7 416 207 208 744 32 81 184 
252 6 769 732 283 789 819 653 
253 7 376 164 124 354 95 35 247 
254 6 546 230 809 826 138 564 
255 7 596 364 466 771 788 520 476 
256 7 377 430 178 515 724 502 574 
257 7 691 794 176 605 167 751 619 
258 6 710 402 460 614 172 477 
259 7 129 698 432 120 88 591 761 
260 7 202 417 209 57 175 440 198 
261 7 141 233 189 444 108 277 447 
262 7 226 37 224 22 353 68 150 
263 7 85 203 582 511 347 674 264 
264 7 675 290 674 777 718 642 347 
265 7 775 349 13 40 371 482 764 
266 7 793 618 692 197 637 424 739 
267 7 621 648 538 825 822 638 475 
268 7 641 523 539 152 177 723 130 
269 7 394 362 514 115 49 294 542 
270 7 166 514 628 43 552 338 759 
271 7 378 365 576 147 27 591 129 
272 7 616 620 306 29 805 749 827 
273 7 10 235 280 98 433 198 342 
274 7 18 49 436 440 362 175 158 
275 5 493 604 699 483 803 
276 7 367 379 316 449 79 15 337 
277 7 108 444 81 5 141 208 117 
278 7 15 331 743 236 379 420 67 
279 7 221 58 238 9 35 216 164 
280 7 98 198 342 389 235 273 10 
281 7 560 672 547 431 286 358 304 
282 7 284 715 183 334 533 484 478 
283 7 769 819 653 732 126 477 633 
284 7 282 715 334 478 484 183 673 
285 7 22 150 37 28 162 225 201 
286 7 304 229 182 100 414 498 560 
287 7 327 169 423 71 310 243 344 
288 7 105 410 205 242 168 525 827 
289 7 297 790 586 23 214 398 333 
290 7 675 264 674 777 718 642 347 
291 7 392 215 63 110 157 174 134 
292 7 532 576 211 378 271 27 218 
293 7 729 473 814 661 154 442 667 
294 7 542 16 627 188 323 156 115 
295 7 439 116 77 383 190 380 19 
296 7 421 185 56 12 55 190 340 
297 7 352 790 289 373 586 214 380 
298 7 645 592 612 519 613 309 42 
299 7 385 599 624 742 702 603 469 
300 7 217 335 177 641 196 784 810 
301 7 101 193 165 223 36 50 679 
302 6 677 167 794 554 257 605 
303 7 83 75 159 94 43 102 121 
304 7 286 100 182 229 414 833 498 
305 7 121 102 158 389 342 159 198 
306 7 749 616 272 338 29 628 805 
307 7 559 137 754 142 726 419 96 
308 7 545 505 179 515 580 535 256 
309 7 612 187 613 519 298 645 540 
310 7 124 71 247 376 253 169 354 
311 7 84 34 501 313 758 820 91 
312 7 234 41 361 357 391 73 111 
313 7 501 34 311 820 84 758 812 
314 6 589 663 486 401 456 587 
315 7 382 241 755 145 384 761 617 
316 7 106 337 320 148 276 79 449 
317 7 325 487 7 249 321 398 44 
318 7 527 476 651 770 788 791 520 
319 7 689 441 829 530 411 14 78 
320 7 337 148 106 316 408 42 645 
321 7 325 398 7 317 487 400 249 
322 7 345 220 429 413 239 222 95 
323 7 627 542 180 16 181 156 294 
324 7 696 575 711 640 776 680 685 
325 7 321 7 317 398 487 249 400 
326 7 736 237 400 109 127 63 289 
327 7 169 287 310 71 423 406 80 
328 7 248 213 656 721 725 104 683 
329 7 537 787 458 724 630 583 508 
330 7 207 32 251 81 393 4 416 
331 7 278 67 420 15 240 236 613 
332 7 643 340 421 210 113 160 12 
333 7 214 380 383 425 439 297 289 
334 7 715 484 478 673 284 282 705 
335 7 374 177 184 766 300 744 217 
336 7 816 348 53 557 452 86 227 
337 7 320 148 106 316 408 507 42 
338 7 628 749 29 805 701 552 306 
339 7 544 817 753 606 556 779 128 
340 7 332 643 421 185 296 113 12 
341 7 61 597 603 488 702 599 681 
342 7 389 198 98 280 305 57 121 
343 7 161 388 76 206 231 114 26 
344 7 119 149 243 734 133 117 423 
345 7 322 220 413 239 222 429 95 
346 7 494 533 655 581 504 593 481 
347 7 511 465 642 582 697 718 263 
348 7 816 336 452 53 557 492 86 
349 7 775 13 265 371 40 160 482 
350 7 54 437 561 579 232 671 468 
351 7 472 834 821 731 632 786 832 
352 7 297 373 69 151 214 380 586 
353 7 226 262 307 37 142 639 137 
354 7 376 247 397 253 35 71 310 
355 7 695 733 747 622 741 779 524 
356 7 133 114 149 734 397 26 76 
357 7 73 391 41 312 768 234 111 
358 7 672 774 100 96 419 137 281 
359 7 97 231 397 206 76 35 388 
360 7 186 796 712 703 798 588 772 
361 7 41 312 94 234 235 357 98 
362 7 49 394 269 274 18 115 436 
363 7 753 799 741 497 733 772 212 
364 7 520 596 476 255 788 481 504 
365 7 591 27 218 271 576 20 129 
366 7 516 154 745 551 30 814 293 
367 7 276 379 15 449 79 316 420 
368 7 506 820 501 34 812 313 311 
369 7 489 475 568 648 822 267 836 
370 7 118 652 634 644 536 802 577 
371 7 349 775 13 265 639 160 40 
372 7 411 545 505 14 308 78 777 
373 7 586 352 151 297 790 224 639 
374 7 184 335 416 766 744 163 177 
375 7 192 631 99 250 808 607 737 
376 7 253 354 247 124 164 310 35 
377 7 502 178 669 430 256 574 716 
378 7 271 147 576 757 292 532 451 
379 7 367 15 276 409 278 107 420 
380 7 214 333 352 439 116 383 19 
381 7 8 62 694 139 170 21 243 
382 7 315 241 145 384 755 809 204 
383 7 77 333 439 425 295 380 214 
384 7 145 809 241 382 750 315 204 
385 7 299 599 565 702 620 624 742 
386 5 815 526 626 38 738 
387 7 590 457 760 713 512 798 128 
388 7 76 206 343 231 161 359 97 
389 7 342 198 98 305 280 121 57 
390 7 573 540 225 187 93 762 831 
391 7 357 73 41 111 312 768 234 
392 7 291 215 157 134 191 393 447 
393 7 4 191 330 447 392 650 207 
394 7 514 269 362 43 49 75 83 
395 6 11 443 6 780 723 550 
396 7 163 766 130 177 539 184 152 
397 7 354 359 97 35 356 376 247 
398 7 321 325 249 317 23 7 400 
399 5 740 708 607 808 250 
400 7 237 321 326 736 398 325 109 
401 6 663 752 60 664 456 589 
402 6 710 258 521 460 614 17 
403 7 606 817 38 568 738 779 626 
404 7 427 451 88 757 802 25 602 
405 7 426 156 2 518 16 627 323 
406 7 80 429 345 322 169 124 310 
407 6 717 122 485 569 153 470 
408 7 507 106 148 337 670 572 320 
409 7 107 51 87 743 379 3 52 
410 7 288 105 205 242 168 525 827 
411 7 689 136 829 372 319 236 14 
412 7 45 185 143 56 200 296 55 
413 7 239 222 95 220 345 164 238 
414 7 498 182 229 304 68 286 833 
415 7 474 800 704 759 131 17 166 
416 7 251 184 744 374 163 330 208 
417 7 202 209 260 440 175 57 158 
418 7 835 722 479 245 513 531 548 
419 7 96 434 774 358 754 559 137 
420 7 67 240 449 79 613 15 331 
421 7 12 296 190 340 332 210 185 
422 6 633 653 646 629 126 283 
423 7 287 243 344 327 169 119 381 
424 6 637 692 197 512 618 266 
425 7 383 77 333 127 439 295 214 
426 7 2 405 679 33 518 123 156 
427 7 25 404 88 602 510 765 432 
428 6 482 726 754 615 142 559 
429 7 322 345 80 406 220 413 239 
430 7 574 377 669 716 256 724 502 
431 7 831 762 560 547 281 93 541 
432 7 88 698 129 259 451 427 147 
433 7 273 10 280 57 235 198 98 
434 7 774 96 419 358 672 754 559 
435 7 244 644 665 118 227 634 693 
436 7 158 18 49 440 102 274 121 
437 7 561 232 350 671 468 162 85 
438 7 155 758 50 36 173 785 84 
439 7 295 116 383 77 380 214 333 
440 7 209 175 417 202 18 436 158 
441 7 530 319 14 78 689 525 105 
442 7 658 804 610 830 730 144 729 
443 6 11 723 395 6 424 637 
444 7 277 108 141 261 189 81 32 
445 7 52 205 87 3 51 168 107 
446 7 467 682 509 597 782 64 681 
447 7 189 134 233 157 32 141 330 
448 7 74 56 216 200 55 143 45 
449 7 79 240 420 613 67 645 316 
450 7 778 683 104 721 656 46 625 
451 7 757 147 404 88 432 129 802 
452 7 492 348 816 336 557 53 728 
453 7 66 59 650 132 550 780 635 
454 7 31 211 132 59 191 218 174 
455 7 195 730 788 318 651 783 527 
456 5 587 752 663 401 60 
457 7 760 713 128 590 387 556 500 
458 7 508 329 537 787 662 807 583 
459 7 668 112 594 529 585 90 490 
460 6 172 258 598 614 585 710 
461 6 725 528 194 657 213 549 
462 7 823 584 470 485 122 636 407 
463 7 773 600 90 563 602 490 629 
464 7 659 194 135 461 725 213 248 
465 7 642 347 718 511 178 697 502 
466 6 705 746 255 596 771 673 
467 7 597 446 681 690 509 61 603 
468 7 671 582 697 561 437 54 350 
469 5 742 624 179 580 535 
470 7 485 823 122 462 407 569 717 
471 7 48 555 801 813 727 569 797 
472 7 632 351 480 834 821 731 786 
473 7 293 729 814 442 830 154 661 
474 7 415 704 131 800 759 17 166 
475 7 648 822 621 369 267 825 568 
476 7 520 318 527 364 481 788 593 
477 7 17 819 732 172 283 769 800 
478 6 484 334 673 715 746 705 
479 7 245 835 722 828 531 418 767 
480 7 632 472 700 786 351 735 609 
481 7 520 504 593 476 364 581 527 
482 7 726 142 428 265 775 40 349 
483 5 803 604 699 275 493 
484 6 478 334 673 715 746 705 
485 7 122 470 407 823 717 153 569 
486 3 589 314 663 
487 7 7 325 317 321 398 249 382 
488 6 678 701 341 702 552 599 
489 7 369 836 475 386 526 38 568 
490 7 563 90 731 773 600 821 834 
491 7 783 549 770 651 791 625 144 
492 7 452 348 816 336 550 199 557 
493 6 275 706 483 604 699 750 
494 7 581 346 655 593 504 481 666 
495 4 795 103 636 82 
496 7 562 707 146 567 828 623 39 
497 7 799 556 363 753 772 703 712 
498 7 414 182 229 125 68 304 286 
499 2 153 522 
500 7 638 538 713 128 709 457 760 
501 7 34 313 311 84 820 758 368 
502 7 377 669 178 430 564 574 256 
503 4 518 687 219 614 
504 7 481 520 593 655 364 476 581 
505 7 545 308 515 179 256 372 777 
506 7 368 820 501 812 34 516 313 
507 7 408 106 337 148 670 572 320 
508 7 807 458 662 583 329 70 787 
509 7 676 467 64 70 690 446 681 
510 5 765 646 25 427 422 
511 7 347 582 465 697 642 263 85 
512 6 709 763 387 424 590 197 
513 7 146 722 835 496 562 707 245 
514 7 394 43 270 269 75 166 83 
515 7 256 505 178 777 545 308 718 
516 7 366 154 551 814 745 812 30 
517 7 660 588 30 566 745 714 199 
518 6 687 219 503 405 679 426 
519 7 543 187 592 309 612 298 541 
520 7 476 481 364 504 593 788 318 
521 7 402 710 131 258 180 17 181 
522 6 647 153 685 640 717 407 
523 7 641 268 266 793 637 539 152 
524 2 747 355 
525 7 827 105 441 288 242 410 272 
526 5 386 815 626 836 38 
527 7 318 476 651 688 770 791 520 
528 6 657 461 194 549 725 688 
529 6 112 594 585 459 608 668 
530 7 14 78 441 689 319 372 411 
531 7 479 767 65 245 558 828 39 
532 7 292 576 378 86 227 211 244 
533 7 346 655 183 494 504 581 282 
534 7 246 764 40 265 482 13 775 
535 6 630 580 787 179 583 329 
536 7 577 92 553 634 652 802 118 
537 7 329 787 724 458 630 535 583 
538 7 638 500 267 568 817 621 128 
539 7 152 130 268 177 766 641 723 
540 7 187 390 309 573 93 612 519 
541 7 543 619 93 751 762 176 831 
542 7 627 323 294 16 156 181 180 
543 7 541 65 519 619 751 176 93 
544 7 339 817 753 556 128 606 497 
545 7 505 308 179 515 372 580 256 
546 7 254 564 826 230 716 171 228 
547 7 431 560 281 831 762 751 619 
548 7 572 670 42 418 722 835 513 
549 6 491 783 46 625 770 791 
550 7 780 6 199 635 395 492 566 
551 7 154 516 814 366 293 812 473 
552 4 678 488 628 338 
553 7 92 806 536 577 802 570 731 
554 1 302 
555 7 471 727 48 720 801 813 569 
556 7 497 760 128 457 798 753 544 
557 7 336 53 816 348 693 728 86 
558 7 767 605 39 828 531 691 257 
559 7 307 754 419 96 137 726 142 
560 7 281 431 547 831 286 762 672 
561 7 437 232 671 350 468 162 85 
562 6 707 496 567 146 623 828 
563 7 490 773 463 90 570 600 731 
564 7 669 171 716 502 574 546 228 
565 7 701 805 599 702 29 385 749 
566 7 199 660 517 714 550 492 30 
567 5 623 562 707 496 146 
568 7 403 538 606 267 475 369 638 
569 6 813 407 801 48 122 717 
570 7 806 731 834 563 553 92 802 
571 7 609 785 89 173 735 91 700 
572 4 670 548 408 42 
573 7 390 93 762 225 540 831 125 
574 7 430 716 228 669 377 502 564 
575 7 324 640 711 696 685 647 776 
576 7 292 27 271 218 378 532 211 
577 7 536 92 553 634 806 652 802 
578 6 719 739 618 793 825 266 
579 7 44 350 54 162 232 437 561 
580 6 535 630 179 787 583 329 
581 7 494 593 655 481 504 346 520 
582 7 511 347 468 85 671 697 263 
583 5 787 535 630 329 508 
584 5 636 462 82 823 470 
585 7 668 529 459 112 598 460 594 
586 7 790 373 224 23 297 201 352 
587 4 456 752 663 60 
588 7 360 517 712 714 703 186 796 
589 5 314 663 401 486 456 
590 7 387 457 760 798 713 128 186 
591 7 365 27 218 20 271 259 129 
592 7 298 519 42 645 612 543 309 
593 7 481 520 504 581 476 494 364 
594 7 112 832 529 459 821 490 786 
595 6 64 611 676 756 70 509 
596 7 255 364 788 466 520 476 771 
597 7 467 61 681 341 690 603 446 
598 7 172 126 460 585 819 668 653 
599 7 702 565 701 299 385 341 488 
600 7 90 463 773 490 563 459 602 
601 7 72 50 101 301 649 659 155 
602 7 463 773 563 25 600 90 427 
603 7 61 681 690 341 597 624 742 
604 4 699 275 483 803 
605 7 257 558 691 794 176 167 767 
606 7 403 817 779 568 738 38 339 
607 7 808 250 740 399 192 375 708 
608 3 529 594 112 
609 5 700 480 735 89 571 
610 7 144 830 730 442 783 625 195 
611 4 595 789 64 782 
612 7 309 613 645 298 519 187 592 
613 7 612 240 309 645 67 420 79 
614 5 460 258 608 585 529 
615 4 708 737 428 250 
616 7 272 306 827 620 29 749 805 
617 7 755 811 20 315 382 7 487 
618 6 197 793 266 692 739 637 
619 7 751 176 691 257 794 65 167 
620 7 805 29 565 385 272 599 701 
621 7 825 267 648 822 475 538 739 
622 3 747 355 695 
623 5 567 562 146 496 707 
624 5 742 469 603 299 681 
625 7 46 778 144 830 491 783 549 
626 7 738 38 779 815 695 386 403 
627 7 323 542 16 156 180 294 181 
628 7 338 749 552 29 701 805 488 
629 7 633 126 600 668 422 653 90 
630 7 535 580 787 329 537 583 724 
631 6 99 375 192 250 808 607 
632 7 472 480 351 700 786 735 821 
633 6 422 629 653 126 646 283 
634 7 118 536 370 577 644 652 92 
635 7 6 780 130 550 152 395 539 
636 5 82 584 462 495 823 
637 7 424 692 197 266 618 793 512 
638 7 538 500 267 128 568 713 817 
639 7 151 69 371 373 352 353 349 
640 7 685 575 647 324 776 522 696 
641 7 523 268 177 539 152 300 217 
642 7 718 465 347 777 178 511 515 
643 7 332 340 113 421 210 160 12 
644 7 118 435 370 634 244 652 227 
645 7 298 612 613 592 309 79 449 
646 6 422 510 633 25 765 629 
647 6 685 640 522 575 324 153 
648 7 822 475 621 267 825 568 369 
649 7 72 301 101 165 679 193 223 
650 7 66 4 453 59 163 132 396 
651 7 770 791 318 527 688 783 491 
652 7 370 536 118 802 634 92 553 
653 7 283 633 126 422 769 819 629 
654 5 792 748 826 228 458 
655 7 504 494 346 581 481 533 593 
656 7 328 104 248 683 721 213 450 
657 6 528 461 194 688 549 791 
658 5 442 730 195 804 771 
659 7 464 135 601 213 248 72 155 
660 7 566 199 517 714 588 30 360 
661 7 667 814 729 804 293 473 745 
662 7 807 70 508 756 458 676 583 
663 7 401 456 589 752 587 314 60 
664 4 401 60 685 640 
665 7 435 634 644 118 693 244 577 
666 7 581 593 494 688 481 527 318 
667 7 661 804 729 814 293 442 473 
668 7 459 585 112 529 90 594 629 
669 7 502 377 574 564 430 716 178 
670 5 572 548 408 103 795 
671 7 468 561 582 437 697 54 350 
672 7 281 358 774 560 434 547 100 
673 6 484 746 705 478 334 715 
674 7 264 675 290 263 718 777 347 
675 7 264 290 674 777 718 642 347 
676 7 70 756 509 64 662 807 595 
677 7 302 167 794 257 672 547 774 
678 3 552 488 341 
679 7 165 193 223 301 426 101 2 
680 3 776 696 324 
681 6 690 603 61 597 467 509 
682 4 782 446 64 467 
683 7 104 656 450 812 328 248 721 
684 2 146 623 
685 6 640 647 575 522 324 664 
686 7 89 735 700 91 609 480 571 
687 6 518 219 503 223 165 193 
688 7 791 770 651 527 318 476 491 
689 7 319 411 829 441 530 14 78 
690 6 681 467 603 61 597 509 
691 7 257 176 794 605 619 751 167 
692 7 197 637 424 618 266 793 512 
693 7 728 557 53 435 336 244 227 
694 7 62 8 139 381 170 21 5 
695 6 779 738 355 626 38 622 
696 6 324 711 575 680 776 640 
697 7 511 171 465 347 468 582 671 
698 7 432 259 129 88 120 761 803 
699 4 604 483 275 803 
700 7 735 89 480 686 609 632 472 
701 7 565 702 599 805 488 29 749 
702 7 599 701 565 488 341 299 385 
703 7 712 772 212 799 360 497 796 
704 7 474 415 131 800 759 181 166 
705 6 746 466 673 255 484 596 
706 4 750 493 275 384 
707 7 562 496 567 828 146 39 623 
708 5 399 740 808 250 607 
709 7 763 512 500 713 197 387 457 
710 7 402 258 521 460 17 614 477 
711 5 696 324 575 640 680 
712 7 703 772 360 212 796 799 186 
713 7 128 457 760 500 590 387 556 
714 7 186 360 588 796 798 660 712 
715 7 334 484 478 673 282 284 705 
716 7 228 574 430 669 564 748 377 
717 5 407 122 153 485 569 
718 7 642 777 465 290 515 347 178 
719 6 578 818 739 793 618 266 
720 7 555 471 727 48 824 801 797 
721 7 328 46 656 725 213 450 778 
722 7 835 245 513 479 418 146 496 
723 7 443 424 11 152 637 395 539 
724 7 537 329 787 630 430 535 256 
725 6 213 461 328 721 248 656 
726 7 142 482 428 307 559 754 265 
727 7 555 471 48 720 470 801 813 
728 7 693 557 336 53 348 452 816 
729 7 293 473 814 661 442 667 804 
730 7 195 455 658 610 442 144 771 
731 7 834 570 806 351 490 563 821 
732 7 769 819 283 477 252 17 653 
733 7 741 363 753 355 799 339 497 
734 7 133 149 356 119 114 26 344 
735 7 700 89 686 480 609 632 472 
736 7 326 237 400 127 109 63 289 
737 7 781 99 375 192 631 250 615 
738 7 626 779 38 695 403 606 815 
739 6 618 825 197 578 621 793 
740 5 399 607 808 708 250 
741 7 733 363 753 799 497 355 212 
742 5 624 469 299 603 690 
743 7 107 3 87 409 51 136 278 
744 7 208 251 416 184 374 5 81 
745 7 814 366 30 154 516 517 661 
746 6 705 466 673 255 484 478 
747 4 622 355 524 695 
748 7 654 792 228 826 716 458 574 
749 7 29 338 805 628 701 306 565 
750 5 706 493 384 241 809 
751 7 619 176 691 257 794 167 541 
752 5 456 587 60 401 663 
753 7 363 497 799 741 339 544 733 
754 6 559 419 96 307 434 428 
755 7 617 315 382 811 241 20 120 
756 7 70 676 662 807 64 508 595 
757 7 451 147 404 378 652 88 271 
758 7 311 84 313 34 438 501 155 
759 6 166 415 474 704 800 131 
760 7 457 713 128 590 387 556 500 
761 7 120 259 698 241 315 483 129 
762 7 831 431 93 560 547 541 281 
763 7 709 512 500 197 638 713 387 
764 7 246 40 534 265 13 775 482 
765 3 510 646 25 
766 7 396 177 130 163 374 539 184 
767 7 39 828 558 245 531 479 605 
768 7 73 357 306 391 94 616 41 
769 7 283 732 819 653 252 477 126 
770 7 651 791 688 318 491 783 527 
771 6 255 466 596 195 658 730 
772 7 703 212 712 799 497 363 360 
773 7 463 600 90 563 490 602 459 
774 7 434 672 358 96 419 281 677 
775 7 349 13 265 40 371 160 482 
776 4 680 324 575 696 
777 7 718 642 290 515 675 264 505 
778 7 46 625 830 450 144 610 721 
779 7 738 626 695 38 606 403 339 
780 7 6 635 550 395 11 443 453 
781 7 737 99 375 631 192 250 615 
782 5 682 446 611 64 467 
783 7 491 651 770 144 549 791 610 
784 7 810 818 217 523 641 793 266 
785 5 173 571 219 438 609 
786 6 832 821 351 480 594 472 
787 7 329 537 630 535 583 458 724 
788 7 364 455 476 596 318 520 255 
789 4 611 252 422 782 
790 7 586 23 297 289 373 201 224 
791 7 770 651 688 318 527 491 783 
792 4 654 748 826 228 
793 6 266 618 692 197 637 739 
794 7 257 167 691 176 605 751 619 
795 4 495 103 636 82 
796 7 186 798 360 712 703 590 497 
797 5 801 813 48 569 471 
798 7 186 796 590 360 556 387 712 
799 7 497 772 363 703 753 212 712 
800 7 17 131 415 474 477 704 732 
801 6 813 797 48 569 471 555 
802 7 92 553 806 570 652 536 577 
803 4 483 699 604 275 
804 6 667 442 658 661 729 293 
805 7 29 565 749 701 338 620 702 
806 7 570 553 92 731 834 802 351 
807 7 662 508 70 458 676 756 583 
808 7 607 250 740 399 192 708 375 
809 7 145 384 230 138 204 254 750 
810 7 784 818 217 719 793 523 266 
811 7 617 20 755 109 110 174 218 
812 7 683 820 104 551 450 656 313 
813 5 801 797 48 569 471 
814 7 154 293 729 473 661 745 551 
815 5 386 526 626 38 738 
816 7 348 336 53 452 557 86 492 
817 7 606 339 544 403 128 538 638 
818 6 719 810 784 578 793 266 
819 7 283 732 769 477 653 172 126 
820 7 313 501 812 34 368 506 311 
821 7 832 351 594 786 112 490 834 
822 6 648 621 825 475 267 369 
823 7 462 470 485 122 584 407 153 
824 6 720 797 801 813 48 471 
825 6 621 822 648 267 475 739 
826 4 654 792 748 228 
827 7 525 242 105 616 272 288 410 
828 7 39 767 245 479 496 707 562 
829 7 136 411 689 319 3 236 52 
830 7 144 610 625 778 442 46 473 
831 7 762 431 560 547 93 281 541 
832 7 594 821 112 786 529 351 459 
833 7 100 137 304 414 498 182 286 
834 7 731 351 806 570 490 821 472 
835 7 722 245 479 418 513 828 496 
836 6 489 526 386 815 369 38 
DEPOT_SECTION
   1
   -1
EOF
