NAME :  X-n979-kX-w391-c9.cctp
COMMENT : 	Adapted by Maziero, Usberti and Cavellucci from the Uchoa, Pecin, Pessoa, Poggi, Subramanian, and Vidal (2013)
TYPE :  CCTP
DIMENSION :    963
EDGE_WEIGHT_TYPE : 	EUC_2D	
CAPACITY : 	998
VERTICES_WITHIN_COVERAGE :  9
VERTICES_WITH_DEMAND : 	391
NODE_COORD_SECTION
1 0 0
2 236 951
3 735 289
4 841 735
5 846 821
6 907 810
7 55 136
8 699 326
9 731 899
10 739 753
11 807 828
12 775 783
13 891 689
14 62 93
15 780 220
16 799 739
17 661 348
18 865 688
19 12 4
20 829 827
21 845 896
22 136 243
23 878 584
24 908 794
25 820 771
26 895 788
27 747 915
28 860 746
29 829 754
30 94 149
31 940 847
32 884 747
33 226 904
34 738 802
35 194 98
36 789 744
37 929 895
38 864 696
39 84 161
40 764 615
41 283 937
42 776 807
43 877 427
44 828 266
45 297 994
46 665 900
47 15 93
48 100 956
49 850 790
50 854 794
51 898 679
52 948 888
53 731 282
54 60 87
55 826 362
56 716 264
57 885 814
58 932 825
59 308 926
60 225 130
61 853 861
62 794 753
63 771 729
64 264 853
65 780 693
66 837 723
67 895 849
68 746 715
69 736 862
70 734 730
71 616 228
72 7 80
73 93 860
74 860 765
75 877 734
76 819 798
77 706 922
78 861 714
79 710 149
80 268 903
81 783 808
82 811 865
83 231 950
84 929 771
85 717 857
86 767 755
87 250 924
88 972 543
89 114 955
90 931 866
91 796 414
92 708 270
93 893 755
94 175 956
95 928 757
96 712 401
97 911 968
98 73 240
99 273 9
100 729 595
101 35 166
102 144 36
103 855 718
104 246 872
105 145 125
106 828 875
107 991 591
108 256 913
109 916 785
110 572 373
111 794 708
112 293 607
113 954 807
114 929 743
115 766 280
116 649 291
117 467 677
118 754 655
119 739 882
120 914 788
121 840 785
122 688 415
123 872 383
124 100 253
125 825 737
126 934 881
127 61 122
128 805 306
129 723 293
130 210 984
131 871 845
132 263 916
133 689 176
134 916 696
135 267 798
136 709 162
137 778 748
138 868 711
139 888 705
140 275 849
141 721 780
142 39 209
143 725 784
144 732 339
145 153 957
146 228 685
147 133 309
148 968 772
149 856 654
150 9 152
151 241 951
152 713 376
153 838 377
154 876 764
155 597 423
156 114 992
157 877 851
158 919 703
159 904 766
160 72 31
161 466 393
162 781 784
163 901 846
164 832 916
165 82 123
166 854 803
167 860 788
168 886 728
169 721 227
170 821 575
171 833 775
172 740 699
173 815 870
174 987 925
175 912 794
176 52 131
177 278 957
178 978 690
179 771 292
180 823 346
181 707 335
182 169 906
183 735 870
184 881 748
185 286 992
186 852 889
187 795 680
188 234 986
189 950 871
190 93 187
191 242 902
192 166 240
193 831 436
194 826 244
195 913 959
196 762 783
197 899 829
198 838 765
199 175 829
200 869 785
201 953 964
202 866 944
203 936 737
204 819 800
205 159 845
206 226 948
207 900 582
208 716 261
209 724 340
210 882 786
211 37 115
212 76 158
213 932 900
214 933 720
215 16 220
216 697 613
217 794 288
218 843 826
219 944 819
220 182 953
221 871 819
222 795 277
223 27 151
224 90 898
225 837 658
226 48 57
227 335 937
228 768 713
229 620 617
230 870 923
231 703 796
232 784 302
233 626 928
234 847 721
235 27 180
236 791 822
237 836 834
238 840 350
239 267 903
240 865 981
241 887 753
242 213 883
243 132 331
244 99 100
245 976 899
246 678 226
247 906 926
248 716 733
249 866 711
250 268 882
251 904 726
252 867 615
253 929 807
254 625 238
255 237 947
256 209 895
257 766 806
258 464 628
259 723 817
260 756 859
261 149 12
262 46 127
263 648 763
264 709 1000
265 829 844
266 973 811
267 689 268
268 13 80
269 896 935
270 754 764
271 942 954
272 716 719
273 813 654
274 834 758
275 207 941
276 756 865
277 265 892
278 757 729
279 915 874
280 184 925
281 6 88
282 913 733
283 853 309
284 875 839
285 32 84
286 715 176
287 834 807
288 847 710
289 444 396
290 914 878
291 856 642
292 226 73
293 968 877
294 781 749
295 922 793
296 821 387
297 110 34
298 134 191
299 672 327
300 879 696
301 624 939
302 813 750
303 908 891
304 818 143
305 938 847
306 869 297
307 814 792
308 980 924
309 637 554
310 642 92
311 978 788
312 942 817
313 752 219
314 182 910
315 935 940
316 14 181
317 873 727
318 896 683
319 571 612
320 938 763
321 219 930
322 697 393
323 818 777
324 741 316
325 760 270
326 291 911
327 998 998
328 774 940
329 901 284
330 838 610
331 702 710
332 837 729
333 863 747
334 110 210
335 941 368
336 840 786
337 955 703
338 27 249
339 885 720
340 726 72
341 927 828
342 936 839
343 67 303
344 6 173
345 450 456
346 814 755
347 916 839
348 267 996
349 885 921
350 835 904
351 19 162
352 169 925
353 697 124
354 503 227
355 762 808
356 995 982
357 625 396
358 278 907
359 789 275
360 661 251
361 35 134
362 169 67
363 909 870
364 731 272
365 880 876
366 17 50
367 40 968
368 912 691
369 895 657
370 970 746
371 227 938
372 789 714
373 831 793
374 628 75
375 44 140
376 833 331
377 819 774
378 863 563
379 7 208
380 251 969
381 877 878
382 929 741
383 857 859
384 828 756
385 982 730
386 176 937
387 861 803
388 828 850
389 142 224
390 785 320
391 732 656
392 702 411
393 885 900
394 89 906
395 259 902
396 896 852
397 124 963
398 685 731
399 88 97
400 763 297
401 855 747
402 161 273
403 202 878
404 171 74
405 237 989
406 780 303
407 886 835
408 189 960
409 823 650
410 123 142
411 846 781
412 866 728
413 692 575
414 816 730
415 670 282
416 844 756
417 220 944
418 773 798
419 879 728
420 183 931
421 807 714
422 185 301
423 797 735
424 934 784
425 667 332
426 24 204
427 901 705
428 845 758
429 692 835
430 195 161
431 984 717
432 878 867
433 874 804
434 65 312
435 167 965
436 21 154
437 262 49
438 804 363
439 513 373
440 886 775
441 754 423
442 289 968
443 685 588
444 821 861
445 232 876
446 877 928
447 868 130
448 802 662
449 152 128
450 913 784
451 45 151
452 648 249
453 662 246
454 174 343
455 902 811
456 287 979
457 874 872
458 759 909
459 170 875
460 871 772
461 231 949
462 757 759
463 830 706
464 73 64
465 181 209
466 346 925
467 781 691
468 939 690
469 696 707
470 776 662
471 696 935
472 914 713
473 569 224
474 835 929
475 716 466
476 814 851
477 949 924
478 760 725
479 918 734
480 801 957
481 980 884
482 881 597
483 922 516
484 937 722
485 42 137
486 788 704
487 239 159
488 823 797
489 477 752
490 989 733
491 785 161
492 901 843
493 617 720
494 968 847
495 816 769
496 16 117
497 850 917
498 835 817
499 568 403
500 688 214
501 968 840
502 831 736
503 338 911
504 926 697
505 260 801
506 760 280
507 328 778
508 853 694
509 825 825
510 966 756
511 918 833
512 880 747
513 869 741
514 861 227
515 675 706
516 682 353
517 783 872
518 684 255
519 8 275
520 95 811
521 719 331
522 852 809
523 287 911
524 849 735
525 908 743
526 842 941
527 773 87
528 829 790
529 116 68
530 0 210
531 832 798
532 172 794
533 990 962
534 720 777
535 785 786
536 769 726
537 286 795
538 33 167
539 882 887
540 783 578
541 925 840
542 48 159
543 8 59
544 719 304
545 53 77
546 792 744
547 934 879
548 823 685
549 857 240
550 850 780
551 116 45
552 624 288
553 197 910
554 164 904
555 870 767
556 844 854
557 277 820
558 805 821
559 878 755
560 916 435
561 146 86
562 856 887
563 110 922
564 931 578
565 672 355
566 732 259
567 317 931
568 973 525
569 905 720
570 39 229
571 257 153
572 950 721
573 814 742
574 82 116
575 767 838
576 176 916
577 184 928
578 150 211
579 726 634
580 710 884
581 850 733
582 964 690
583 863 307
584 212 235
585 275 975
586 935 759
587 770 210
588 588 740
589 988 760
590 804 712
591 23 152
592 783 812
593 212 922
594 820 750
595 608 976
596 842 734
597 939 896
598 987 811
599 810 778
600 909 838
601 759 793
602 211 892
603 1 392
604 827 748
605 685 761
606 774 211
607 804 287
608 770 312
609 763 294
610 839 263
611 700 294
612 723 658
613 72 220
614 268 921
615 12 122
616 892 897
617 101 42
618 797 844
619 39 252
620 957 295
621 682 302
622 120 148
623 836 712
624 750 802
625 929 621
626 764 839
627 833 737
628 706 702
629 846 867
630 850 818
631 774 522
632 789 290
633 658 197
634 857 742
635 932 844
636 183 127
637 235 950
638 237 941
639 868 831
640 878 677
641 826 794
642 643 146
643 284 964
644 990 710
645 923 535
646 828 780
647 251 928
648 774 334
649 996 821
650 951 836
651 195 927
652 985 682
653 35 186
654 803 801
655 689 269
656 734 819
657 917 615
658 856 239
659 30 129
660 683 678
661 814 773
662 660 351
663 178 887
664 672 213
665 868 873
666 859 867
667 800 771
668 769 706
669 692 282
670 976 867
671 938 693
672 716 682
673 980 804
674 726 598
675 996 842
676 609 290
677 168 990
678 777 711
679 200 890
680 818 877
681 981 802
682 959 768
683 258 768
684 796 724
685 119 103
686 958 780
687 659 309
688 181 203
689 874 708
690 894 899
691 732 350
692 295 849
693 898 842
694 624 381
695 892 741
696 746 300
697 335 926
698 231 136
699 966 841
700 910 716
701 853 779
702 959 893
703 800 283
704 839 993
705 863 788
706 874 805
707 827 797
708 136 807
709 830 719
710 806 209
711 963 696
712 229 974
713 789 841
714 886 810
715 875 762
716 763 718
717 852 757
718 737 866
719 862 712
720 667 399
721 207 902
722 252 978
723 135 237
724 308 943
725 776 317
726 271 910
727 356 925
728 773 824
729 947 602
730 823 315
731 570 131
732 61 62
733 833 379
734 827 719
735 52 101
736 841 711
737 713 255
738 907 845
739 608 269
740 684 35
741 361 967
742 871 858
743 264 753
744 932 800
745 903 857
746 751 885
747 64 178
748 941 908
749 769 847
750 847 779
751 98 179
752 904 597
753 931 746
754 181 841
755 905 794
756 720 166
757 1000 903
758 951 722
759 805 243
760 244 869
761 938 162
762 707 281
763 915 854
764 851 601
765 746 297
766 992 731
767 864 201
768 775 388
769 877 877
770 851 678
771 820 904
772 44 30
773 871 740
774 622 948
775 732 204
776 55 163
777 850 899
778 885 799
779 274 938
780 967 914
781 178 992
782 129 97
783 814 836
784 233 962
785 847 409
786 39 279
787 760 285
788 963 944
789 764 749
790 835 828
791 899 710
792 700 183
793 2 53
794 156 160
795 815 861
796 868 814
797 61 239
798 802 823
799 863 924
800 312 683
801 80 983
802 322 951
803 848 746
804 817 752
805 816 765
806 132 885
807 0 296
808 544 344
809 84 115
810 732 699
811 202 948
812 876 743
813 895 863
814 855 741
815 909 770
816 225 216
817 698 282
818 62 45
819 326 960
820 63 74
821 916 952
822 733 350
823 843 720
824 741 389
825 15 700
826 755 393
827 784 775
828 284 984
829 906 914
830 735 247
831 699 915
832 876 761
833 687 312
834 703 304
835 828 841
836 640 831
837 799 827
838 940 721
839 856 774
840 119 158
841 641 38
842 783 686
843 811 194
844 871 802
845 886 733
846 938 870
847 50 152
848 852 386
849 663 797
850 784 231
851 947 808
852 199 66
853 874 731
854 24 135
855 950 736
856 792 362
857 738 343
858 260 934
859 739 293
860 302 925
861 920 680
862 727 777
863 737 663
864 878 872
865 944 251
866 792 789
867 765 844
868 777 747
869 656 600
870 924 279
871 84 103
872 63 130
873 988 787
874 531 320
875 67 892
876 932 891
877 299 878
878 70 70
879 353 901
880 699 636
881 820 800
882 139 176
883 63 163
884 660 210
885 976 725
886 806 848
887 664 357
888 887 761
889 907 786
890 254 765
891 888 615
892 758 801
893 897 690
894 831 711
895 850 832
896 764 223
897 975 180
898 963 762
899 888 719
900 364 975
901 801 237
902 818 899
903 896 832
904 784 445
905 66 147
906 797 805
907 961 977
908 776 865
909 833 398
910 845 852
911 783 782
912 906 809
913 528 179
914 936 778
915 850 711
916 968 849
917 343 963
918 26 377
919 305 869
920 999 797
921 824 742
922 794 779
923 34 17
924 884 859
925 58 297
926 3 78
927 867 798
928 825 537
929 875 801
930 750 924
931 859 772
932 928 885
933 805 790
934 728 309
935 47 96
936 846 891
937 665 274
938 42 148
939 867 826
940 76 950
941 912 823
942 836 730
943 722 262
944 876 816
945 36 129
946 812 315
947 835 705
948 126 210
949 986 649
950 100 21
951 582 337
952 64 163
953 903 926
954 833 725
955 714 839
956 842 793
957 763 751
958 778 664
959 881 774
960 874 366
961 801 210
962 736 780
963 883 819
DEMAND_SECTION
2 38
3 48
4 57
5 60
6 56
7 74
8 41
9 95
10 77
11 95
12 54
13 85
14 66
15 18
16 83
17 3
18 84
19 86
20 96
21 69
22 51
23 100
24 77
25 51
26 96
27 53
28 70
29 99
30 58
31 53
32 87
33 12
34 64
35 62
36 64
37 59
38 64
39 51
40 55
41 7
42 64
43 47
44 5
45 20
46 100
47 75
48 41
49 87
50 72
51 74
52 68
53 27
54 72
55 18
56 25
57 68
58 56
59 14
60 68
61 85
62 83
63 88
64 2
65 78
66 98
67 59
68 99
69 88
70 59
71 9
72 87
73 4
74 62
75 89
76 86
77 82
78 74
79 50
80 5
81 72
82 86
83 20
84 98
85 77
86 71
87 29
88 55
89 13
90 57
91 29
92 24
93 82
94 45
95 55
96 42
97 85
98 69
99 90
100 93
101 78
102 78
103 56
104 39
105 56
106 77
107 53
108 43
109 65
110 10
111 67
112 23
113 96
114 52
115 36
116 10
117 18
118 74
119 73
120 95
121 88
122 47
123 11
124 73
125 57
126 100
127 51
128 34
129 50
130 34
131 87
132 13
133 39
134 71
135 5
136 42
137 79
138 65
139 56
140 15
141 76
142 72
143 56
144 4
145 8
146 28
147 70
148 56
149 73
150 65
151 8
152 41
153 12
154 80
155 36
156 4
157 77
158 69
159 69
160 91
161 79
162 89
163 70
164 79
165 89
166 52
167 83
168 72
169 9
170 95
171 53
172 80
173 68
174 57
175 70
176 94
177 33
178 51
179 3
180 47
181 40
182 21
183 67
184 62
185 49
186 96
187 53
188 41
189 88
190 54
191 4
192 91
193 14
194 8
195 94
196 92
197 100
198 95
199 37
200 52
201 81
202 56
203 66
204 99
205 18
206 12
207 74
208 47
209 22
210 61
211 66
212 91
213 77
214 75
215 63
216 96
217 13
218 63
219 99
220 20
221 79
222 40
223 53
224 14
225 71
226 56
227 43
228 100
229 76
230 73
231 97
232 31
233 69
234 93
235 82
236 80
237 89
238 46
239 7
240 68
241 99
242 18
243 98
244 63
245 59
246 7
247 88
248 84
249 52
250 49
251 65
252 54
253 87
254 16
255 8
256 29
257 85
258 42
259 67
260 71
261 94
262 59
263 64
264 97
265 63
266 86
267 2
268 52
269 69
270 93
271 97
272 80
273 73
274 62
275 11
276 61
277 26
278 51
279 75
280 20
281 87
282 58
283 30
284 68
285 70
286 31
287 79
288 70
289 58
290 67
291 93
292 91
293 82
294 87
295 68
296 41
297 75
298 86
299 21
300 94
301 65
302 96
303 69
304 5
305 98
306 23
307 68
308 71
309 74
310 26
311 83
312 55
313 34
314 43
315 84
316 79
317 61
318 81
319 55
320 62
321 24
322 36
323 73
324 35
325 29
326 10
327 70
328 70
329 29
330 76
331 95
332 92
333 56
334 75
335 38
336 67
337 78
338 97
339 69
340 27
341 75
342 64
343 80
344 53
345 51
346 91
347 52
348 48
349 64
350 100
351 67
352 11
353 30
354 27
355 57
356 75
357 17
358 44
359 50
360 32
361 96
362 58
363 98
364 46
365 52
366 58
367 46
368 100
369 57
370 100
371 47
372 63
373 66
374 37
375 67
376 49
377 68
378 86
379 67
380 17
381 91
382 78
383 63
384 76
385 79
386 32
387 87
388 77
389 72
390 5
391 94
392 13
COVERAGE_SECTION
2 9 637 255 83 151 461 206 638 784 371 
3 9 859 53 129 765 696 364 934 544 787 
4 9 596 332 942 524 627 581 502 66 803 
5 9 630 218 498 895 522 790 237 20 287 
6 9 912 455 941 24 755 175 197 714 57 
7 9 176 872 375 262 485 127 905 847 451 
8 9 181 833 521 834 299 209 621 544 516 
9 9 119 27 746 580 183 458 930 77 718 
10 9 270 462 70 957 789 862 962 86 248 
11 9 558 798 837 783 236 509 618 886 20 
12 9 162 911 535 827 196 418 866 601 922 
13 9 893 318 51 300 139 640 427 368 791 
14 9 54 735 935 545 820 871 878 399 127 
15 9 606 850 587 896 961 901 313 710 759 
16 9 423 546 36 62 573 684 302 414 294 
17 9 662 887 565 425 516 299 687 8 833 
18 9 38 508 300 640 770 689 138 249 719 
19 9 923 772 366 793 543 226 818 160 926 
20 9 509 790 237 498 218 835 265 783 5 
21 9 936 777 186 350 562 497 164 771 106 
22 9 723 389 192 948 578 124 402 334 298 
23 9 482 207 378 752 764 252 891 330 657 
24 9 755 175 120 889 450 109 26 295 912 
25 9 377 495 323 661 805 599 646 171 346 
26 9 755 889 210 24 778 440 175 450 120 
27 9 930 458 9 746 119 328 77 183 580 
28 9 333 401 634 814 513 803 773 717 524 
29 9 384 274 604 594 804 921 198 346 416 
30 9 39 212 622 840 905 165 410 751 952 
31 9 305 342 635 650 541 90 58 341 846 
32 9 184 512 241 812 559 695 93 845 888 
33 9 191 256 602 721 593 242 321 445 553 
34 9 624 656 892 259 143 962 601 355 862 
35 9 636 852 404 362 292 60 561 449 698 
36 9 546 294 62 16 137 423 868 684 63 
37 9 876 213 597 932 126 547 748 52 303 
38 9 18 508 249 300 138 689 719 78 915 
39 9 212 30 952 883 751 905 747 190 776 
40 9 100 118 540 579 674 470 958 391 863 
41 9 779 177 614 860 858 523 724 59 326 
42 9 81 418 592 257 355 728 892 236 906 
43 9 785 560 123 193 848 909 960 153 733 
44 9 610 194 607 703 759 222 549 658 217 
45 9 185 828 456 442 585 348 643 177 819 
46 9 831 77 471 233 580 301 774 9 85 
47 9 281 268 72 285 926 496 615 211 935 
48 9 89 397 940 801 563 156 394 145 224 
49 9 50 956 167 411 550 121 336 701 750 
50 9 49 167 166 387 705 956 927 411 522 
51 9 318 893 13 368 640 369 861 134 300 
52 9 597 702 126 876 189 547 37 213 932 
53 9 3 364 129 859 765 943 56 566 696 
54 9 14 545 820 735 935 878 732 464 285 
55 9 180 238 733 153 438 296 376 856 848 
56 9 208 943 737 92 364 566 762 53 817 
57 9 714 963 944 706 221 433 778 929 455 
58 9 341 219 312 342 511 541 253 635 941 
59 9 860 567 724 326 523 41 697 227 802 
60 9 698 487 571 636 430 35 292 852 449 
61 9 383 666 629 556 910 742 665 131 457 
62 9 546 36 294 16 137 423 868 302 667 
63 9 536 478 278 716 228 678 868 137 789 
64 9 140 104 760 250 692 557 277 445 877 
65 9 467 842 486 668 678 187 111 228 372 
66 9 954 332 823 942 709 234 623 734 596 
67 9 396 163 492 693 745 738 813 924 407 
68 9 172 478 716 278 70 810 228 536 668 
69 9 718 183 85 119 260 276 746 955 580 
70 9 248 68 272 278 10 478 716 810 172 
71 9 254 452 739 473 884 453 360 633 664 
72 9 926 268 281 47 543 285 793 366 496 
73 9 224 875 394 806 520 563 205 708 459 
74 9 931 555 839 717 460 715 154 701 832 
75 9 853 419 317 773 812 845 168 513 412 
76 9 204 881 488 307 641 707 373 528 531 
77 9 831 471 9 580 27 930 46 119 458 
78 9 719 249 103 138 915 689 288 412 234 
79 9 136 756 286 353 133 792 775 642 500 
80 9 239 726 395 277 358 132 108 614 250 
81 9 592 42 418 906 236 257 728 355 654 
82 9 173 795 444 476 680 886 106 388 618 
83 9 461 637 2 206 255 151 638 784 371 
84 9 914 320 586 95 424 109 815 450 120 
85 9 955 69 183 718 580 119 429 260 259 
86 9 957 789 462 137 868 294 270 36 63 
87 9 647 108 858 132 614 638 191 395 726 
88 9 568 645 107 564 483 729 207 752 625 
89 9 397 48 563 156 940 145 801 435 394 
90 9 846 547 126 279 932 189 305 763 31 
91 8 768 904 296 909 193 441 826 733 
92 9 56 762 208 737 817 943 267 655 669 
93 9 241 888 32 184 695 512 559 159 832 
94 9 220 435 408 386 145 420 811 577 280 
95 9 586 753 320 84 114 382 203 914 815 
96 9 392 322 152 122 824 826 720 441 691 
97 9 195 821 271 269 315 201 247 953 240 
98 9 797 613 124 570 619 142 338 334 786 
99 9 437 292 852 35 362 404 261 60 102 
100 9 674 216 579 40 413 443 880 540 391 
101 9 538 542 235 351 223 436 451 591 938 
102 9 261 551 297 362 529 617 950 404 561 
103 9 78 234 719 915 288 823 249 138 412 
104 9 760 445 250 64 277 191 395 242 140 
105 9 449 410 782 622 685 794 636 561 840 
106 9 680 173 444 795 82 629 936 388 556 
107 9 729 88 949 564 568 625 657 752 645 
108 9 132 395 87 614 239 726 80 647 191 
109 9 450 120 889 175 295 24 755 815 424 
110 9 499 951 808 694 155 357 439 874 662 
111 9 486 372 590 421 684 678 65 467 668 
112 9 800 146 743 890 683 258 507 117 537 
113 9 851 219 312 266 744 253 673 681 686 
114 9 382 753 203 95 479 586 282 525 320 
115 9 506 787 325 179 609 400 359 632 765 
116 8 687 415 937 552 621 676 360 452 
117 8 258 489 319 588 800 493 229 507 
118 9 863 391 470 958 612 579 40 842 467 
119 9 746 183 718 9 69 276 260 580 85 
120 9 109 450 175 889 24 295 755 26 815 
121 9 336 411 956 750 49 550 171 373 528 
122 9 392 322 720 96 152 475 824 516 565 
123 9 960 848 153 785 733 909 43 238 55 
124 9 98 22 723 797 613 334 948 389 343 
125 9 921 502 627 414 604 573 942 332 594 
126 9 547 932 876 846 37 90 52 597 189 
127 9 872 176 7 262 165 574 735 485 809 
128 9 946 607 730 217 232 632 390 703 406 
129 9 544 3 53 859 934 762 364 611 765 
130 9 712 188 405 408 784 781 811 206 83 
131 9 284 157 742 639 407 924 939 383 432 
132 9 614 108 726 80 239 87 395 358 647 
133 9 792 136 286 756 79 633 500 664 884 
134 9 368 158 504 861 427 472 893 700 671 
135 9 505 537 557 683 890 743 140 64 692 
136 9 756 79 286 792 133 353 775 500 633 
137 9 868 294 36 86 789 546 957 62 63 
138 9 249 719 689 78 103 38 317 412 915 
139 9 791 300 427 689 899 339 13 893 138 
140 9 64 692 557 250 919 104 760 877 277 
141 9 534 143 862 962 231 34 10 624 259 
142 9 426 570 653 215 235 379 613 797 316 
143 9 141 862 534 962 34 231 624 259 10 
144 9 857 209 691 822 521 181 324 934 8 
145 9 435 94 220 386 397 352 408 677 89 
146 9 743 800 890 683 112 135 505 532 537 
147 9 243 402 422 454 124 22 343 434 723 
148 9 682 898 686 510 311 589 873 370 320 
149 9 291 225 770 640 409 18 369 508 252 
150 9 436 351 591 223 344 854 538 316 101 
151 9 2 255 637 83 461 638 784 206 371 
152 9 322 96 824 691 822 392 209 516 181 
153 9 733 848 55 296 909 238 785 180 123 
154 9 715 832 555 460 559 888 959 440 74 
155 9 499 357 694 110 720 951 122 887 808 
156 9 397 801 89 48 145 677 940 435 781 
157 9 131 742 924 284 432 67 407 396 457 
158 9 134 504 472 368 700 427 671 791 214 
159 9 815 93 888 440 450 889 241 109 525 
160 9 818 772 950 617 464 732 226 297 878 
161 9 289 439 345 808 874 499 110 951 155 
162 9 911 535 12 827 866 922 418 196 667 
163 9 492 693 738 67 396 600 745 903 763 
164 9 350 474 771 497 902 21 777 526 936 
165 9 574 809 871 872 127 399 30 244 905 
166 9 522 387 50 49 927 167 630 956 705 
167 9 705 50 200 49 701 927 550 387 839 
168 9 845 419 339 899 75 853 317 695 251 
169 9 830 775 737 313 208 566 500 943 56 
170 9 540 928 330 764 378 23 252 482 40 
171 9 646 198 121 336 25 377 411 323 750 
172 9 810 68 672 668 716 228 272 70 478 
173 9 82 680 795 444 106 476 388 886 902 
174 9 308 780 757 245 788 533 477 481 702 
175 9 24 120 755 889 109 295 450 912 6 
176 9 7 262 872 375 485 127 945 361 938 
177 9 643 442 585 779 41 456 828 858 380 
178 9 652 582 711 644 337 431 885 468 385 
179 9 609 400 115 787 406 232 506 632 608 
180 9 55 238 376 438 730 946 153 733 856 
181 9 8 521 209 144 691 822 833 516 834 
182 9 554 576 314 352 663 280 577 553 420 
183 9 718 69 119 85 276 746 260 9 580 
184 9 512 32 812 241 559 695 773 93 513 
185 9 828 45 456 348 585 442 643 177 722 
186 9 562 936 21 777 350 629 665 666 381 
187 9 842 467 448 65 958 486 470 111 548 
188 9 405 712 722 130 380 784 348 2 83 
189 9 846 52 547 126 293 90 702 31 670 
190 9 751 39 334 747 212 30 883 952 613 
191 9 33 395 108 87 132 239 277 80 445 
192 9 389 22 723 402 578 465 688 584 948 
193 9 785 909 91 43 904 296 848 733 153 
194 9 759 44 610 901 658 549 514 710 961 
195 9 821 97 269 271 315 247 953 201 829 
196 9 601 12 892 162 418 270 911 624 257 
197 9 903 600 693 407 492 941 163 455 738 
198 9 274 428 171 416 384 29 717 750 411 
199 9 754 205 532 708 459 403 663 242 679 
200 9 705 167 210 460 927 931 959 50 701 
201 9 271 907 788 315 533 821 195 477 97 
202 9 446 799 230 526 349 269 497 474 240 
203 9 382 114 753 855 484 838 214 479 572 
204 9 881 76 488 307 641 707 531 373 528 
205 9 754 199 459 708 663 806 532 403 554 
206 9 83 461 417 637 2 371 255 638 151 
207 9 752 23 482 564 891 657 378 252 625 
208 9 56 943 737 92 566 364 762 830 53 
209 9 144 521 691 822 857 181 8 324 934 
210 9 440 959 26 200 778 929 460 705 844 
211 9 945 262 659 361 496 735 935 176 485 
212 9 39 952 883 905 30 776 747 847 542 
213 9 37 597 876 748 932 126 52 547 303 
214 9 484 838 203 572 758 472 382 479 158 
215 9 379 426 530 142 570 338 316 619 653 
216 9 880 443 674 579 100 413 869 612 391 
217 9 632 703 607 222 359 232 128 406 179 
218 9 5 790 895 237 630 498 20 509 522 
219 9 312 851 58 113 650 253 341 342 744 
220 9 94 408 386 435 811 420 577 275 280 
221 9 796 944 939 639 963 706 57 433 714 
222 9 359 703 217 607 632 232 179 115 406 
223 9 591 436 351 938 854 101 538 150 451 
224 9 394 875 563 73 806 940 48 89 397 
225 9 409 149 273 770 291 548 448 508 18 
226 9 732 818 545 820 464 878 772 285 54 
227 9 697 466 567 802 727 819 503 917 724 
228 9 668 716 678 536 478 63 278 372 68 
229 9 869 319 309 443 216 880 413 660 493 
230 9 799 446 349 202 497 393 269 777 526 
231 9 141 143 534 259 862 34 962 605 656 
232 9 406 632 179 217 608 725 390 128 400 
233 9 301 774 46 595 471 831 77 580 836 
234 9 823 103 66 915 288 581 736 332 524 
235 9 653 316 538 101 351 344 426 436 591 
236 9 837 798 592 558 81 11 728 906 713 
237 9 790 20 218 835 265 509 895 5 498 
238 9 180 55 376 153 733 438 848 960 730 
239 9 80 395 726 277 358 132 108 614 250 
240 9 704 202 526 97 195 446 269 799 230 
241 9 93 32 184 888 512 559 695 832 715 
242 9 602 403 256 679 445 721 33 553 760 
243 9 147 454 422 402 434 343 925 124 22 
244 9 399 871 685 809 574 165 782 529 14 
245 9 481 780 702 293 757 308 174 52 670 
246 9 664 500 884 453 360 518 633 452 169 
247 9 953 829 269 349 821 446 690 315 616 
248 9 272 70 331 10 398 469 628 68 810 
249 9 138 719 78 689 103 38 915 317 412 
250 9 277 80 239 395 104 358 760 726 64 
251 9 569 282 700 472 479 525 791 899 168 
252 9 764 891 482 291 330 23 149 752 207 
253 9 744 295 312 58 851 219 175 341 6 
254 9 71 452 739 360 453 884 552 633 664 
255 9 2 637 151 461 638 83 206 371 784 
256 9 602 721 679 242 403 33 553 593 445 
257 9 355 892 42 418 601 624 81 592 728 
258 9 117 319 489 229 800 588 112 345 493 
259 9 656 34 955 231 624 143 429 141 892 
260 9 276 867 749 69 718 908 626 183 575 
261 9 102 297 551 950 617 362 529 404 561 
262 9 176 945 485 7 361 375 211 127 659 
263 9 605 849 398 493 515 231 588 836 534 
264 9 471 77 831 930 328 27 774 480 9 
265 9 835 388 237 20 476 783 790 556 910 
266 9 673 681 598 113 311 649 851 873 501 
267 9 655 518 669 817 92 762 415 937 56 
268 9 72 926 281 47 285 543 793 366 496 
269 9 953 247 349 446 829 821 195 230 202 
270 9 462 86 957 789 10 196 962 12 137 
271 9 201 315 788 821 195 907 477 97 247 
272 9 248 331 628 70 469 810 68 172 398 
273 9 409 448 225 187 548 958 470 149 842 
274 9 29 384 198 416 428 604 594 171 717 
275 9 811 417 321 651 206 371 593 461 83 
276 9 260 718 69 908 746 183 749 867 119 
277 9 250 80 239 395 726 358 108 132 191 
278 9 478 536 716 63 68 228 789 70 957 
279 9 290 363 932 90 303 126 547 763 745 
280 9 577 420 651 576 386 314 352 553 182 
281 9 72 47 926 268 285 543 496 615 793 
282 9 479 251 525 569 700 382 114 472 695 
283 9 583 306 376 730 946 238 128 180 610 
284 9 131 639 157 407 939 742 221 67 903 
285 9 47 268 935 545 72 281 735 54 926 
286 9 756 136 792 133 79 775 500 169 353 
287 9 531 498 707 373 488 641 881 956 76 
288 9 915 736 103 234 623 823 947 78 719 
289 9 161 345 439 808 874 499 110 951 155 
290 9 279 363 303 932 126 547 90 876 37 
291 9 149 225 252 409 770 330 640 764 369 
292 9 852 35 437 404 60 362 698 636 99 
293 9 670 481 702 189 52 245 916 494 846 
294 9 137 868 36 546 62 86 789 957 16 
295 9 120 109 175 744 450 24 424 253 755 
296 9 733 909 153 55 438 848 785 91 856 
297 9 617 551 950 102 529 160 261 464 818 
298 9 882 948 578 334 389 840 751 794 190 
299 9 425 833 687 17 8 621 662 516 565 
300 9 139 689 13 38 18 138 640 893 249 
301 9 774 233 595 46 471 831 77 580 264 
302 9 804 346 594 573 604 921 805 29 384 
303 9 290 690 616 279 37 363 932 829 876 
304 9 491 843 447 710 961 527 767 606 587 
305 9 31 635 342 541 650 90 341 58 347 
306 9 583 283 329 610 730 376 44 549 870 
307 9 76 204 933 488 881 641 654 707 528 
308 9 174 780 245 788 757 477 702 533 481 
309 9 869 413 443 229 216 319 674 100 880 
310 9 374 642 841 353 740 731 340 79 133 
311 9 873 681 673 148 686 920 266 598 682 
312 9 219 851 58 113 253 341 744 650 342 
313 9 896 587 606 775 15 169 830 850 566 
314 9 576 182 280 553 577 554 352 420 651 
315 9 271 477 821 788 195 201 247 748 953 
316 9 344 235 351 653 538 426 101 379 436 
317 9 853 419 412 75 168 773 339 845 513 
318 9 51 893 13 368 640 300 139 427 134 
319 9 229 869 309 258 443 493 117 216 413 
320 9 586 84 95 914 753 424 114 682 382 
321 9 371 593 417 275 206 638 461 83 651 
322 9 96 392 152 122 720 516 824 565 887 
323 9 377 25 661 495 599 646 805 171 307 
324 9 934 696 765 859 144 544 521 857 3 
325 9 506 115 787 609 179 400 359 364 566 
326 9 523 358 860 726 59 80 239 614 41 
327 9 356 533 907 201 788 271 174 308 315 
328 9 930 480 458 27 771 9 746 902 474 
329 9 870 306 583 283 865 620 549 658 610 
330 9 764 252 291 170 409 482 23 149 225 
331 9 469 628 272 248 398 515 672 810 660 
332 9 942 66 954 4 596 502 627 823 709 
333 9 28 401 513 634 814 773 812 717 803 
334 9 948 190 298 751 389 723 613 578 22 
335 9 960 123 560 620 43 848 870 329 583 
336 9 121 956 411 750 49 373 528 550 171 
337 9 711 582 572 758 671 468 838 178 484 
338 9 619 570 215 519 786 797 142 426 379 
339 9 899 168 419 845 317 139 75 689 853 
340 9 527 740 353 79 310 136 841 756 374 
341 9 58 511 541 342 347 941 635 219 312 
342 9 635 305 31 541 341 58 650 511 347 
343 9 434 925 786 619 124 98 797 519 147 
344 9 316 351 150 235 436 591 538 101 223 
345 9 289 161 439 499 808 110 155 874 258 
346 9 804 302 594 805 573 384 495 29 604 
347 9 511 600 541 738 763 341 492 941 163 
348 9 185 828 585 722 456 45 380 405 188 
349 9 446 230 269 953 393 247 799 829 690 
350 9 164 21 771 777 936 902 497 186 474 
351 9 436 591 150 223 538 101 344 235 316 
352 9 576 386 280 420 577 182 314 554 651 
353 9 79 136 756 133 286 642 792 340 310 
354 9 913 473 874 71 739 731 254 676 808 
355 9 257 892 624 42 418 601 728 81 592 
356 9 327 533 907 201 788 174 271 308 315 
357 9 694 155 720 887 499 662 110 17 565 
358 9 726 523 80 239 326 132 614 277 395 
359 9 222 217 703 632 607 115 179 232 325 
360 9 453 452 518 937 246 415 267 655 254 
361 9 945 659 485 375 854 262 938 176 211 
362 9 404 561 852 35 102 782 529 292 551 
363 9 279 290 745 813 763 303 90 396 932 
364 9 53 566 943 3 56 208 129 859 92 
365 9 769 381 864 457 432 539 665 924 742 
366 9 543 793 268 926 72 226 772 285 923 
367 9 940 801 48 89 156 394 875 397 563 
368 9 134 158 861 504 893 51 318 427 13 
369 9 51 318 640 13 893 861 368 149 291 
370 9 510 898 385 855 885 490 589 682 148 
371 9 417 206 638 321 461 83 255 637 2 
372 9 111 486 678 684 590 421 228 423 668 
373 9 528 531 641 707 488 336 956 121 76 
374 9 310 841 740 642 731 353 340 79 133 
375 9 485 938 361 451 7 176 262 847 945 
376 9 180 730 238 946 283 55 128 583 438 
377 9 25 323 661 495 805 599 646 171 307 
378 9 23 482 764 207 170 928 252 330 752 
379 9 530 215 426 316 142 235 344 653 570 
380 9 722 784 151 2 712 188 405 585 637 
381 9 769 365 864 457 539 665 432 924 666 
382 9 114 753 203 479 95 282 586 214 484 
383 9 61 666 556 629 742 910 665 131 457 
384 9 29 274 604 594 804 198 346 805 921 
385 9 490 885 766 431 370 644 510 589 758 
386 9 420 577 280 352 220 94 576 651 408 
387 9 166 927 844 50 522 433 706 796 929 
388 9 265 835 444 476 556 795 910 237 783 
389 9 578 723 22 948 192 298 334 465 688 
390 9 725 608 232 406 648 128 946 632 179 
391 9 612 863 118 579 672 880 810 172 470 
392 9 96 122 322 152 720 824 441 826 475 
393 9 616 690 539 349 381 769 303 365 829 
394 9 224 563 875 73 940 806 48 89 397 
395 9 239 80 108 277 726 132 191 358 614 
396 9 67 163 745 492 693 813 738 924 157 
397 9 89 48 145 156 435 563 801 940 94 
398 9 469 331 515 605 248 272 628 70 263 
399 9 871 244 809 574 14 165 54 685 878 
400 9 609 179 787 115 506 608 696 765 406 
401 9 28 634 814 803 333 717 524 416 428 
402 9 192 422 22 723 147 389 578 124 584 
403 9 242 679 602 256 721 663 445 459 553 
404 9 362 561 852 35 102 782 636 292 529 
405 9 188 712 722 380 130 784 348 2 151 
406 9 232 608 179 725 632 390 400 609 217 
407 9 903 284 197 693 963 67 492 131 157 
408 9 220 94 811 435 275 386 420 130 577 
409 9 273 225 448 149 291 548 770 187 330 
410 9 622 840 105 30 449 794 882 685 39 
411 9 750 550 121 701 336 49 839 956 171 
412 9 317 853 75 419 513 773 78 103 719 
413 9 443 216 674 100 869 309 880 579 40 
414 9 125 573 921 502 734 421 627 709 954 
415 8 937 669 116 621 655 267 817 687 
416 9 428 717 274 198 803 401 29 384 74 
417 9 206 371 461 83 275 321 637 2 255 
418 9 42 257 81 12 355 601 892 162 535 
419 9 75 317 853 168 845 339 412 899 773 
420 9 577 280 386 651 352 576 314 220 553 
421 9 590 111 684 372 414 486 734 423 463 
422 9 402 454 147 243 192 584 22 723 389 
423 9 16 546 684 36 62 573 414 294 302 
424 9 914 84 295 744 109 120 320 450 175 
425 9 299 17 662 565 687 887 516 833 8 
426 9 142 379 215 653 235 316 530 570 344 
427 9 791 139 700 472 569 893 134 158 368 
428 9 416 717 198 274 803 401 29 74 384 
429 9 955 85 259 231 656 849 69 580 836 
430 9 636 794 60 487 688 698 465 449 882 
431 9 644 885 385 766 490 178 711 337 370 
432 9 864 457 365 769 924 381 742 665 157 
433 9 706 929 844 927 778 796 944 387 714 
434 9 343 925 786 619 807 147 519 124 243 
435 9 94 145 220 408 677 386 781 420 811 
436 9 591 223 351 150 101 538 854 938 344 
437 9 99 292 852 35 60 698 404 362 571 
438 8 856 55 180 296 733 153 238 768 
439 9 808 161 874 110 499 289 951 155 345 
440 9 959 210 888 154 460 26 715 832 555 
441 8 826 824 904 768 91 96 392 475 
442 9 643 456 177 585 828 185 45 724 41 
443 9 413 216 869 674 100 880 309 579 229 
444 9 795 82 173 476 388 106 680 265 886 
445 9 760 104 242 602 191 33 256 403 679 
446 9 230 349 799 202 269 953 247 393 497 
447 9 304 767 761 843 491 514 710 527 961 
448 9 273 187 409 958 470 548 842 225 467 
449 9 105 636 410 794 622 782 685 561 840 
450 9 109 120 889 175 24 295 755 815 26 
451 9 938 847 542 375 485 776 7 101 223 
452 9 360 453 254 937 518 71 246 415 884 
453 9 360 452 518 246 937 664 267 655 884 
454 9 422 243 147 402 192 22 434 723 343 
455 9 912 6 714 941 57 755 24 197 175 
456 9 828 442 185 585 643 45 177 348 722 
457 9 864 432 665 769 365 381 742 666 924 
458 9 27 930 746 9 119 328 276 517 183 
459 9 663 554 182 205 403 679 754 314 806 
460 9 555 154 959 715 832 931 74 200 440 
461 9 83 637 2 206 255 151 638 371 417 
462 9 270 957 86 789 10 868 137 196 294 
463 9 894 947 623 736 709 734 288 66 823 
464 9 878 732 820 818 545 54 226 14 160 
465 9 688 578 192 584 389 816 298 430 882 
466 9 727 697 227 503 879 567 802 59 917 
467 9 65 842 486 187 668 678 111 372 228 
468 9 671 504 337 861 134 158 582 711 368 
469 9 331 628 515 272 398 660 672 248 810 
470 9 958 118 842 187 448 467 65 273 863 
471 9 77 831 46 9 580 27 930 264 119 
472 9 700 158 569 427 791 251 134 214 282 
473 9 71 254 739 913 354 676 452 552 884 
474 9 164 526 497 350 799 771 21 202 777 
475 9 392 441 122 96 904 322 631 824 720 
476 9 886 795 444 82 388 783 265 835 618 
477 9 748 315 780 788 213 597 271 308 702 
478 9 278 716 536 63 228 68 668 678 789 
479 9 282 382 525 114 251 203 753 569 700 
480 9 328 474 526 164 704 771 902 930 350 
481 9 293 245 670 702 757 52 189 780 916 
482 9 23 891 252 752 207 764 378 657 330 
483 9 645 568 88 564 207 378 23 560 752 
484 9 838 214 572 758 203 855 382 114 479 
485 9 375 361 945 262 938 176 7 451 659 
486 9 111 372 678 65 467 590 668 842 421 
487 9 571 698 60 430 816 636 688 35 465 
488 9 76 641 707 881 204 373 528 531 307 
489 5 117 588 258 493 507 
490 9 766 385 885 431 370 644 589 510 855 
491 9 304 843 587 606 710 961 15 756 896 
492 9 163 693 738 67 600 396 903 197 745 
493 9 588 263 515 398 660 605 469 331 849 
494 9 916 699 501 650 670 31 675 189 293 
495 9 25 661 805 377 323 599 346 646 667 
496 9 615 659 854 211 945 47 361 281 262 
497 9 799 164 777 474 350 230 21 526 936 
498 9 287 790 5 20 218 509 630 237 522 
499 9 110 155 357 694 439 808 951 874 720 
500 9 246 664 884 792 633 169 133 453 518 
501 9 699 494 916 650 670 675 31 266 305 
502 9 627 125 942 332 921 4 596 954 604 
503 8 697 466 879 727 227 567 59 860 
504 9 158 134 671 368 468 861 472 214 700 
505 9 135 557 537 683 890 743 140 64 692 
506 9 787 115 325 609 179 400 765 696 859 
507 8 537 135 557 743 683 505 890 692 
508 9 38 18 770 288 915 719 249 736 947 
509 9 20 790 498 237 783 835 11 218 265 
510 9 898 370 682 148 589 686 855 320 385 
511 9 347 341 541 600 941 58 738 635 197 
512 9 184 32 812 559 241 773 75 513 695 
513 9 773 812 333 28 75 853 634 412 512 
514 9 658 549 767 194 610 44 710 759 843 
515 9 469 331 398 660 628 272 672 248 605 
516 9 565 887 17 662 425 299 181 8 152 
517 9 908 276 82 749 260 618 173 713 867 
518 9 267 655 360 453 937 92 669 737 246 
519 9 807 786 338 619 570 925 215 797 343 
520 9 708 73 205 532 199 806 875 224 754 
521 9 209 181 144 8 857 691 822 934 324 
522 9 166 630 387 5 50 796 287 49 218 
523 9 326 358 726 80 614 860 239 132 41 
524 9 581 596 4 814 634 803 332 401 234 
525 9 282 479 695 251 93 114 382 159 241 
526 9 474 202 497 164 799 230 446 350 771 
527 9 340 304 491 353 79 756 136 740 447 
528 9 373 641 707 488 531 646 121 336 76 
529 9 551 617 782 297 561 685 244 399 102 
530 9 379 215 426 316 344 142 235 653 570 
531 9 373 707 641 287 488 528 956 881 76 
532 9 199 708 754 205 520 459 890 505 403 
533 9 356 788 907 174 201 327 308 271 780 
534 9 141 862 143 962 231 10 34 270 605 
535 9 162 911 866 12 827 922 418 933 667 
536 9 63 478 716 278 228 678 668 868 372 
537 9 135 505 557 683 890 507 743 140 692 
538 9 101 235 351 223 542 436 591 653 451 
539 9 381 365 769 393 616 864 457 690 432 
540 9 170 40 100 631 928 674 330 764 579 
541 9 635 347 511 342 341 305 600 31 58 
542 9 847 776 451 938 101 883 952 538 375 
543 9 793 366 926 72 268 281 47 285 226 
544 9 934 129 834 611 3 859 53 324 762 
545 9 820 54 732 14 878 935 226 285 464 
546 9 36 16 62 423 294 137 868 684 302 
547 9 126 932 846 876 90 37 52 189 597 
548 9 463 947 894 187 770 225 623 448 508 
549 9 658 514 610 194 44 767 759 901 306 
550 9 701 750 411 839 49 121 336 931 167 
551 9 297 617 529 102 950 160 261 464 561 
552 9 676 116 739 687 937 415 452 254 360 
553 9 721 314 651 256 593 280 679 576 577 
554 9 182 576 314 352 663 280 459 577 420 
555 9 460 154 715 832 74 931 959 559 839 
556 9 910 61 629 383 388 265 666 835 237 
557 9 135 505 537 140 692 64 683 919 760 
558 9 798 11 837 236 783 906 509 654 592 
559 9 832 184 512 715 154 241 32 888 812 
560 9 43 123 335 785 483 848 960 193 909 
561 9 782 404 362 685 529 105 449 35 244 
562 9 186 936 777 21 665 666 629 381 457 
563 9 394 224 89 48 397 806 940 875 145 
564 9 729 207 752 657 625 645 23 482 88 
565 9 887 516 17 662 425 299 8 181 720 
566 9 943 830 364 208 56 737 53 92 3 
567 9 59 724 860 227 697 802 503 466 819 
568 9 88 645 483 107 564 729 207 752 625 
569 9 251 700 472 791 282 427 899 479 339 
570 9 142 338 619 797 215 426 613 98 379 
571 9 487 698 60 430 816 636 35 292 688 
572 9 758 838 484 855 214 337 203 885 711 
573 9 302 594 804 921 125 414 346 604 16 
574 9 809 165 871 399 127 244 872 14 7 
575 9 626 867 749 728 713 260 908 236 276 
576 9 314 352 182 280 577 420 554 386 553 
577 9 280 420 651 386 576 352 314 553 220 
578 9 389 948 298 723 465 688 192 22 882 
579 9 391 612 880 863 118 216 674 100 40 
580 9 9 85 119 183 718 831 69 77 746 
581 9 524 596 4 814 634 234 803 332 942 
582 9 711 178 337 652 468 671 644 431 572 
583 9 283 306 376 730 329 238 610 946 44 
584 9 816 465 688 192 402 578 389 422 22 
585 9 456 828 643 442 177 185 348 722 380 
586 9 320 95 84 753 114 382 914 203 424 
587 9 606 15 896 313 850 961 710 775 901 
588 9 493 263 515 849 398 605 836 489 469 
589 9 510 148 370 898 490 873 766 311 682 
590 9 421 111 684 372 486 414 423 734 16 
591 9 436 223 351 150 854 101 538 938 361 
592 9 81 42 236 728 906 418 257 355 798 
593 9 321 651 553 275 721 371 33 417 256 
594 9 804 302 604 346 921 29 384 573 125 
595 9 774 301 233 46 471 264 831 77 580 
596 9 4 332 524 942 581 627 502 66 803 
597 9 213 876 37 52 748 126 932 547 702 
598 9 673 681 649 266 920 873 311 675 113 
599 9 661 323 377 495 25 667 933 805 307 
600 9 347 738 492 511 163 693 197 903 941 
601 9 892 196 624 257 355 418 12 42 34 
602 9 256 242 679 721 403 33 553 445 593 
603 9 918 807 434 343 925 519 786 243 338 
604 9 29 594 921 384 125 804 274 502 627 
605 9 398 263 534 231 141 248 849 862 143 
606 9 587 15 896 850 313 961 710 901 843 
607 9 703 217 222 632 128 359 232 406 946 
608 9 725 406 232 390 400 609 179 648 696 
609 9 400 179 787 115 506 765 696 406 608 
610 9 44 194 549 658 759 514 607 703 306 
611 8 834 817 669 762 621 544 833 129 
612 9 391 863 579 672 118 880 810 172 660 
613 9 98 797 570 142 190 334 124 747 619 
614 9 132 726 108 858 358 80 87 239 647 
615 9 496 854 659 945 211 361 47 150 591 
616 9 690 393 539 303 829 365 381 349 769 
617 9 297 551 950 529 160 464 818 878 102 
618 9 713 886 837 476 11 783 798 236 558 
619 9 338 570 797 786 98 215 519 142 613 
620 9 870 865 329 335 306 583 283 960 549 
621 8 833 611 834 669 415 687 817 299 
622 9 410 840 30 105 882 39 449 751 794 
623 9 736 894 947 463 709 66 288 734 823 
624 9 892 34 355 601 257 196 418 656 42 
625 9 657 729 752 891 564 207 369 482 861 
626 9 575 867 749 728 260 713 276 908 355 
627 9 502 4 125 942 332 596 921 954 604 
628 9 331 469 272 672 810 515 248 660 172 
629 9 61 556 666 383 910 106 562 186 665 
630 9 5 522 218 895 498 166 790 796 287 
631 9 928 540 170 904 475 100 674 40 378 
632 9 217 232 703 222 359 607 406 179 128 
633 9 884 664 500 246 133 792 453 71 254 
634 9 814 28 401 333 803 524 581 513 773 
635 9 342 305 541 31 341 347 511 58 763 
636 9 35 449 430 105 60 794 698 404 561 
637 9 2 83 255 461 151 206 638 784 371 
638 9 255 637 2 371 461 83 151 206 417 
639 9 939 284 221 131 796 944 407 895 963 
640 9 18 13 300 318 51 893 38 369 770 
641 9 707 488 373 528 531 76 881 204 307 
642 9 633 310 133 353 884 79 136 792 374 
643 9 442 177 585 456 828 41 185 779 724 
644 9 431 766 885 385 178 490 652 711 582 
645 9 483 564 88 568 207 752 378 23 729 
646 9 171 323 528 377 25 121 336 373 641 
647 9 87 858 108 132 614 638 255 151 779 
648 7 725 390 608 406 856 232 857 
649 9 598 675 673 681 920 266 501 873 699 
650 9 342 31 699 305 501 219 494 312 635 
651 9 280 577 420 553 275 593 314 386 576 
652 9 178 582 711 644 949 431 337 885 468 
653 9 235 538 101 426 316 142 351 542 747 
654 9 906 933 307 76 204 866 881 488 558 
655 9 267 669 518 817 92 762 415 937 56 
656 9 259 34 624 955 355 892 257 143 601 
657 9 625 752 891 729 207 482 564 369 23 
658 9 549 514 610 194 44 767 759 901 710 
659 9 945 361 854 485 211 262 375 496 615 
660 9 515 469 628 672 331 612 880 272 398 
661 9 495 377 25 323 599 805 667 646 346 
662 9 17 887 565 425 516 299 687 8 694 
663 9 459 182 554 679 314 403 576 553 256 
664 9 884 246 500 633 453 360 133 792 452 
665 9 457 381 769 864 666 365 432 742 383 
666 9 61 383 665 629 742 457 432 556 562 
667 9 922 599 661 495 827 805 62 323 377 
668 9 228 678 716 65 467 486 536 478 372 
669 8 817 655 267 611 762 92 415 621 
670 9 293 481 916 494 189 501 699 702 245 
671 9 468 504 337 158 134 861 711 368 582 
672 9 628 810 612 863 172 331 391 469 660 
673 9 681 266 598 311 873 920 649 113 686 
674 9 100 216 579 413 40 443 880 391 540 
675 9 649 494 501 916 699 598 670 266 673 
676 9 552 739 116 687 254 951 452 937 71 
677 9 781 435 94 145 408 220 130 397 156 
678 9 228 668 372 486 716 111 536 65 63 
679 9 256 602 403 721 242 553 663 314 33 
680 9 173 106 82 444 795 902 476 771 388 
681 9 673 598 266 311 873 920 649 113 686 
682 9 898 148 686 510 320 370 914 586 311 
683 9 890 743 135 505 537 557 507 140 64 
684 9 423 372 590 16 421 111 546 36 414 
685 9 782 244 399 561 105 529 871 809 410 
686 9 682 148 898 311 914 424 510 320 113 
687 8 116 299 425 621 833 415 937 17 
688 9 465 578 192 389 430 584 816 298 794 
689 9 138 249 300 719 78 139 38 339 899 
690 9 616 393 303 539 829 349 365 381 769 
691 8 822 857 144 209 521 181 152 324 
692 8 140 919 877 64 557 250 277 104 
693 9 492 163 67 738 396 903 600 197 407 
694 9 357 662 720 887 17 155 110 565 499 
695 9 32 845 184 241 512 93 168 525 812 
696 9 765 859 3 324 400 609 934 787 53 
697 9 227 466 503 567 727 59 802 879 724 
698 9 60 487 571 430 636 35 292 852 449 
699 9 501 494 916 650 31 670 305 342 675 
700 9 472 569 251 791 427 158 282 479 134 
701 9 550 750 839 411 931 49 167 705 121 
702 9 52 245 293 597 780 481 748 189 876 
703 9 607 217 222 632 359 128 232 406 179 
704 9 240 480 526 202 474 799 446 97 164 
705 9 167 200 50 927 49 701 387 550 839 
706 9 433 844 929 927 796 944 387 714 778 
707 9 641 488 531 373 528 76 881 204 287 
708 9 532 520 205 199 754 73 459 806 663 
709 9 734 954 66 894 623 332 463 823 942 
710 9 961 843 15 901 850 606 759 587 194 
711 9 582 337 178 468 671 652 572 758 431 
712 9 188 784 405 130 380 722 2 83 461 
713 9 618 837 886 236 749 11 575 798 728 
714 9 57 963 778 944 433 706 929 455 221 
715 9 832 154 555 559 460 888 959 74 184 
716 9 228 478 536 278 668 63 678 68 372 
717 9 428 416 401 74 803 28 333 198 634 
718 9 69 183 119 276 260 85 746 580 9 
719 9 78 249 138 103 915 689 288 38 412 
720 9 122 322 392 357 887 565 96 694 516 
721 9 256 602 553 679 33 242 593 403 314 
722 9 380 405 188 348 585 712 784 151 2 
723 9 22 389 948 578 192 334 124 402 298 
724 9 567 802 59 860 819 41 227 442 643 
725 9 608 390 406 232 648 400 179 609 632 
726 9 80 239 358 132 614 395 108 523 277 
727 7 466 697 503 227 879 567 917 
728 9 575 592 42 626 236 81 257 355 867 
729 9 625 564 657 752 107 207 891 949 88 
730 9 946 376 128 180 283 607 390 238 703 
731 9 913 642 374 310 473 71 633 354 841 
732 9 464 820 878 226 545 818 54 14 160 
733 9 153 296 55 909 848 238 438 785 180 
734 9 709 954 894 66 623 463 332 942 414 
735 9 935 14 54 211 127 545 285 262 820 
736 9 623 288 947 823 915 894 234 463 66 
737 9 208 56 943 92 566 830 364 267 762 
738 9 163 492 600 693 347 763 67 396 745 
739 9 676 552 254 71 452 116 360 937 453 
740 9 841 340 374 310 353 527 79 642 136 
741 8 900 917 819 227 727 802 466 697 
742 9 157 432 131 924 383 457 665 666 864 
743 9 683 890 135 537 505 557 507 146 800 
744 9 253 295 424 851 312 175 109 120 219 
745 9 396 813 67 163 763 738 363 492 693 
746 9 119 276 183 9 718 458 260 69 27 
747 9 883 952 776 212 542 39 190 653 847 
748 9 213 597 37 477 876 52 702 932 780 
749 9 867 575 626 260 908 713 276 728 618 
750 9 411 550 701 121 336 839 49 931 171 
751 9 190 39 30 212 840 334 747 298 622 
752 9 207 657 482 891 23 564 625 252 729 
753 9 114 382 203 95 586 320 479 855 282 
754 9 199 205 459 403 663 532 242 679 708 
755 9 24 175 889 120 26 450 109 912 6 
756 9 286 136 79 792 133 775 353 500 169 
757 9 245 174 481 308 780 293 702 670 52 
758 9 572 838 484 855 214 337 203 885 382 
759 9 901 194 850 44 961 15 710 222 359 
760 9 104 445 64 250 277 191 242 395 140 
761 9 897 447 767 865 514 549 658 870 304 
762 9 817 92 611 669 56 129 208 267 655 
763 9 738 745 347 163 363 541 600 492 396 
764 9 330 252 482 23 170 378 891 291 149 
765 9 696 859 3 400 609 787 324 53 506 
766 9 490 385 431 885 644 370 589 510 758 
767 9 514 658 549 843 194 710 961 610 447 
768 7 826 856 91 824 438 441 296 
769 9 381 365 864 457 432 665 539 924 742 
770 9 508 18 38 225 149 640 548 947 288 
771 9 902 350 164 21 680 474 936 106 777 
772 9 923 818 226 160 366 732 19 464 543 
773 9 513 812 75 853 333 512 28 184 317 
774 9 301 233 595 46 471 831 77 264 580 
775 9 169 313 286 896 587 792 756 606 830 
776 9 542 883 952 847 451 747 905 101 938 
777 9 21 936 186 562 350 497 164 799 771 
778 9 929 714 433 210 706 844 26 57 927 
779 9 41 858 614 177 132 647 87 643 726 
780 9 308 245 477 702 174 748 788 52 481 
781 9 677 435 130 408 94 220 145 811 712 
782 9 685 561 244 105 529 449 399 410 871 
783 9 11 886 476 835 509 20 265 558 837 
784 9 2 83 637 461 712 151 206 255 380 
785 9 909 848 193 153 733 296 43 123 55 
786 9 925 619 519 338 343 434 807 797 570 
787 9 506 115 609 400 179 325 765 696 859 
788 9 201 271 477 308 315 780 174 533 907 
789 9 957 86 462 868 137 294 270 63 278 
790 9 20 237 218 509 498 5 835 895 265 
791 9 427 139 569 700 899 472 251 339 893 
792 9 133 286 136 756 500 79 775 664 633 
793 9 543 366 926 72 268 281 47 285 226 
794 9 882 449 105 840 298 410 622 430 636 
795 9 82 444 173 476 680 886 388 106 265 
796 9 221 944 706 433 844 939 387 929 927 
797 9 98 613 570 619 338 142 124 786 215 
798 9 558 837 11 236 783 906 592 618 654 
799 9 230 446 497 202 349 526 474 777 164 
800 9 112 146 743 507 890 683 537 135 505 
801 9 940 48 156 367 89 397 563 145 394 
802 9 819 724 227 567 917 697 59 860 466 
803 9 401 814 634 416 524 28 428 717 4 
804 9 302 346 594 573 604 29 384 921 805 
805 9 495 25 661 377 346 323 804 599 302 
806 9 554 459 182 563 224 73 663 205 394 
807 9 519 786 338 925 619 343 434 215 570 
808 9 874 951 110 439 499 676 694 161 155 
809 9 574 165 871 399 244 127 872 14 30 
810 9 172 68 672 272 628 70 331 716 863 
811 9 275 408 417 220 651 206 321 420 371 
812 9 512 773 184 513 32 75 559 853 333 
813 9 745 396 924 67 363 432 163 864 365 
814 9 634 401 28 524 581 803 333 513 4 
815 9 159 450 889 109 120 84 93 26 95 
816 9 584 465 688 487 430 192 571 578 698 
817 8 669 762 611 92 655 267 834 56 
818 9 160 732 226 464 772 878 820 545 617 
819 9 802 917 227 724 567 697 741 59 442 
820 9 878 545 732 54 464 14 226 935 735 
821 9 195 97 315 269 271 247 953 201 829 
822 8 691 857 144 209 521 181 152 324 
823 9 234 66 736 288 332 623 915 954 103 
824 7 826 96 152 768 441 691 822 
825 9 520 708 73 532 875 205 199 224 146 
826 7 824 768 441 96 152 91 822 
827 9 911 162 535 922 12 667 866 196 62 
828 9 456 185 585 45 442 643 348 177 722 
829 9 247 953 690 349 616 269 303 393 37 
830 9 566 943 737 169 208 56 364 313 325 
831 9 77 471 580 9 46 27 119 930 183 
832 9 715 154 559 555 888 460 184 241 959 
833 8 621 8 834 299 611 425 687 181 
834 9 611 544 833 621 8 129 762 817 669 
835 9 265 388 237 20 783 790 509 476 910 
836 9 849 429 263 231 46 955 85 605 259 
837 9 798 11 558 236 618 713 783 592 886 
838 9 484 214 572 758 203 855 337 382 114 
839 9 931 701 550 74 750 411 167 460 555 
840 9 622 410 30 882 751 39 298 794 190 
841 9 374 740 310 340 353 642 731 79 136 
842 9 467 65 187 486 958 668 111 470 678 
843 9 710 961 15 606 491 587 901 850 759 
844 9 433 706 929 927 387 796 778 944 705 
845 9 168 75 419 695 853 339 32 317 812 
846 9 90 547 126 189 932 52 876 31 279 
847 9 451 542 938 776 375 7 485 883 905 
848 9 153 123 733 909 785 960 296 55 238 
849 9 263 231 836 605 429 141 534 143 259 
850 9 15 901 606 896 759 587 961 710 313 
851 9 113 312 219 744 253 58 266 424 341 
852 9 292 404 362 35 561 102 636 437 60 
853 9 75 317 419 412 773 513 168 812 845 
854 9 659 361 945 223 591 485 615 436 496 
855 9 203 758 572 838 484 753 114 370 382 
856 7 438 768 648 55 180 296 390 
857 8 144 691 822 209 521 324 181 934 
858 9 647 87 614 779 132 108 41 638 151 
859 9 3 765 696 53 129 934 364 787 324 
860 9 59 567 326 724 523 41 358 779 697 
861 9 368 134 504 468 51 671 158 318 893 
862 9 141 143 534 962 10 34 270 231 624 
863 9 391 612 118 672 579 172 810 470 958 
864 9 365 457 432 769 381 665 924 539 742 
865 9 870 620 329 897 514 306 549 658 761 
866 9 535 922 911 162 933 654 827 906 12 
867 9 626 749 575 260 728 276 713 908 618 
868 9 137 294 36 86 789 546 957 62 63 
869 9 443 229 216 413 309 880 674 100 579 
870 9 329 865 620 306 583 283 549 658 514 
871 9 399 809 574 244 165 14 54 127 735 
872 9 127 7 176 262 905 165 375 485 574 
873 9 311 920 681 673 598 148 589 266 686 
874 9 808 951 439 110 676 499 739 354 161 
875 9 224 394 73 563 940 806 48 89 367 
876 9 37 932 213 597 126 547 52 748 290 
877 8 919 692 250 326 523 358 277 140 
878 9 464 820 732 545 54 14 226 818 399 
879 5 503 727 466 697 227 
880 9 216 579 612 391 660 674 863 672 443 
881 9 204 76 488 641 707 307 531 373 528 
882 9 298 794 840 622 948 578 410 751 334 
883 9 952 776 212 747 542 905 847 39 451 
884 9 664 633 246 500 453 360 452 133 254 
885 9 385 431 490 766 644 370 758 572 855 
886 9 476 618 783 795 82 713 11 444 388 
887 9 662 565 17 516 425 299 720 8 694 
888 9 93 241 154 559 832 715 32 184 440 
889 9 450 120 24 755 109 175 26 815 295 
890 9 683 743 135 505 537 557 507 146 140 
891 9 482 252 752 657 23 207 764 625 291 
892 9 355 601 624 257 418 196 42 34 12 
893 9 13 318 51 368 427 139 300 134 791 
894 9 463 623 947 709 734 736 66 954 823 
895 9 218 5 237 630 790 639 939 498 910 
896 9 313 587 15 606 850 775 830 961 901 
897 9 761 865 870 767 620 447 514 329 549 
898 9 510 682 148 370 686 320 589 586 855 
899 9 339 168 419 139 791 845 251 317 569 
900 7 741 917 819 227 802 727 466 
901 9 759 850 194 15 961 710 606 44 222 
902 9 771 350 164 680 106 21 173 936 777 
903 9 197 407 693 492 600 163 67 738 941 
904 9 91 441 193 768 826 909 296 475 824 
905 9 212 7 883 952 847 872 776 176 451 
906 9 654 81 592 866 933 236 558 798 42 
907 9 201 271 533 788 356 327 315 97 195 
908 9 517 749 276 260 867 713 575 626 618 
909 9 296 785 733 153 848 55 193 91 123 
910 9 556 61 383 629 388 265 237 835 666 
911 9 162 535 827 12 866 922 418 667 196 
912 9 6 455 24 755 941 175 714 197 57 
913 9 354 473 731 71 254 642 739 633 884 
914 9 424 84 320 586 109 295 95 686 744 
915 9 288 103 736 234 78 823 719 623 249 
916 9 494 699 501 670 650 31 189 293 675 
917 9 819 741 802 900 227 466 697 724 727 
918 9 603 434 343 807 925 786 519 243 619 
919 8 877 692 140 250 64 326 277 523 
920 9 873 598 681 673 311 649 266 589 148 
921 9 125 604 502 594 573 627 804 29 302 
922 9 667 866 535 827 911 162 599 933 12 
923 9 772 19 366 160 818 226 793 543 732 
924 9 432 157 813 742 396 864 67 457 365 
925 9 343 434 786 619 519 338 797 807 98 
926 9 72 268 281 47 543 793 285 366 496 
927 9 844 387 433 929 706 705 167 200 50 
928 9 170 378 631 540 764 23 330 482 207 
929 9 433 706 844 927 778 387 714 796 944 
930 9 27 458 328 9 746 119 77 831 471 
931 9 839 74 701 460 550 555 750 167 200 
932 9 126 876 547 37 213 290 597 279 846 
933 9 307 654 599 866 76 922 204 906 323 
934 9 544 324 129 859 696 3 765 521 834 
935 9 735 14 54 285 545 211 820 127 262 
936 9 21 186 777 562 350 106 629 497 666 
937 8 415 116 360 267 655 518 453 669 
938 9 451 375 847 485 542 223 361 7 101 
939 9 639 221 796 944 284 963 895 131 630 
940 9 48 801 89 367 563 394 397 224 156 
941 9 511 6 197 600 912 341 347 455 903 
942 9 332 954 4 66 596 502 627 823 125 
943 9 56 208 566 737 364 92 830 53 762 
944 9 221 796 963 57 706 433 714 939 844 
945 9 361 659 262 485 854 211 375 176 7 
946 9 128 730 376 390 607 232 217 180 406 
947 9 463 623 894 736 288 709 734 915 823 
948 9 334 298 389 578 723 22 882 190 751 
949 9 652 178 582 711 107 644 729 337 468 
950 9 297 617 551 160 818 102 261 529 464 
951 9 110 808 676 874 694 552 499 357 739 
952 9 883 776 212 747 542 905 847 39 451 
953 9 247 269 829 349 446 690 821 616 393 
954 9 66 332 942 709 734 502 823 627 4 
955 9 85 429 259 656 69 718 183 34 231 
956 9 336 121 49 373 531 50 411 528 550 
957 9 789 86 462 137 868 270 294 63 278 
958 9 470 187 842 448 118 467 65 273 486 
959 9 440 460 154 210 555 715 832 888 200 
960 9 123 848 153 238 733 55 785 909 376 
961 9 710 843 15 606 850 901 587 759 896 
962 9 862 143 141 534 34 270 196 601 624 
963 9 57 944 714 221 407 796 433 706 939 
DEPOT_SECTION
   1
   -1
EOF
