NAME :  X-n979-kX-w195-c9.cctp
COMMENT : 	Adapted by Maziero, Usberti and Cavellucci from the Uchoa, Pecin, Pessoa, Poggi, Subramanian, and Vidal (2013)
TYPE :  CCTP
DIMENSION :    879
EDGE_WEIGHT_TYPE : 	EUC_2D	
CAPACITY : 	998
VERTICES_WITHIN_COVERAGE :  9
VERTICES_WITH_DEMAND : 	195
NODE_COORD_SECTION
1 0 0
2 236 951
3 735 289
4 841 735
5 846 821
6 907 810
7 55 136
8 699 326
9 731 899
10 739 753
11 807 828
12 775 783
13 891 689
14 62 93
15 780 220
16 799 739
17 661 348
18 865 688
19 12 4
20 829 827
21 845 896
22 136 243
23 878 584
24 908 794
25 820 771
26 895 788
27 747 915
28 860 746
29 829 754
30 94 149
31 940 847
32 884 747
33 226 904
34 738 802
35 194 98
36 789 744
37 929 895
38 864 696
39 84 161
40 764 615
41 283 937
42 776 807
43 877 427
44 828 266
45 297 994
46 665 900
47 15 93
48 100 956
49 850 790
50 854 794
51 898 679
52 948 888
53 731 282
54 60 87
55 826 362
56 716 264
57 885 814
58 932 825
59 308 926
60 225 130
61 853 861
62 794 753
63 771 729
64 264 853
65 780 693
66 837 723
67 895 849
68 746 715
69 736 862
70 734 730
71 616 228
72 7 80
73 93 860
74 860 765
75 877 734
76 819 798
77 706 922
78 861 714
79 710 149
80 268 903
81 783 808
82 811 865
83 231 950
84 929 771
85 717 857
86 767 755
87 250 924
88 972 543
89 114 955
90 931 866
91 796 414
92 708 270
93 893 755
94 175 956
95 928 757
96 712 401
97 911 968
98 73 240
99 273 9
100 729 595
101 35 166
102 144 36
103 855 718
104 246 872
105 145 125
106 828 875
107 991 591
108 256 913
109 916 785
110 572 373
111 794 708
112 293 607
113 954 807
114 929 743
115 766 280
116 649 291
117 467 677
118 754 655
119 739 882
120 914 788
121 840 785
122 688 415
123 872 383
124 100 253
125 825 737
126 934 881
127 61 122
128 805 306
129 723 293
130 210 984
131 871 845
132 263 916
133 689 176
134 916 696
135 267 798
136 709 162
137 778 748
138 868 711
139 888 705
140 275 849
141 721 780
142 39 209
143 725 784
144 732 339
145 153 957
146 228 685
147 133 309
148 968 772
149 856 654
150 9 152
151 241 951
152 713 376
153 838 377
154 876 764
155 597 423
156 114 992
157 877 851
158 919 703
159 904 766
160 72 31
161 466 393
162 781 784
163 901 846
164 832 916
165 82 123
166 854 803
167 860 788
168 886 728
169 721 227
170 821 575
171 833 775
172 740 699
173 815 870
174 987 925
175 912 794
176 52 131
177 278 957
178 978 690
179 771 292
180 823 346
181 707 335
182 169 906
183 735 870
184 881 748
185 286 992
186 852 889
187 795 680
188 234 986
189 950 871
190 93 187
191 242 902
192 166 240
193 831 436
194 826 244
195 913 959
196 762 783
197 899 829
198 838 765
199 869 785
200 953 964
201 936 737
202 819 800
203 226 948
204 900 582
205 716 261
206 724 340
207 882 786
208 37 115
209 76 158
210 932 900
211 933 720
212 16 220
213 697 613
214 794 288
215 843 826
216 944 819
217 182 953
218 871 819
219 795 277
220 27 151
221 90 898
222 837 658
223 48 57
224 768 713
225 703 796
226 784 302
227 626 928
228 847 721
229 27 180
230 791 822
231 836 834
232 840 350
233 267 903
234 865 981
235 887 753
236 213 883
237 132 331
238 99 100
239 976 899
240 678 226
241 716 733
242 866 711
243 268 882
244 904 726
245 867 615
246 929 807
247 625 238
248 237 947
249 209 895
250 766 806
251 464 628
252 723 817
253 756 859
254 149 12
255 46 127
256 709 1000
257 829 844
258 973 811
259 689 268
260 13 80
261 896 935
262 754 764
263 942 954
264 716 719
265 813 654
266 834 758
267 207 941
268 756 865
269 265 892
270 757 729
271 915 874
272 184 925
273 6 88
274 913 733
275 853 309
276 875 839
277 32 84
278 715 176
279 834 807
280 847 710
281 444 396
282 914 878
283 856 642
284 226 73
285 968 877
286 781 749
287 922 793
288 821 387
289 110 34
290 134 191
291 672 327
292 879 696
293 624 939
294 813 750
295 908 891
296 938 847
297 869 297
298 814 792
299 980 924
300 637 554
301 642 92
302 978 788
303 942 817
304 752 219
305 182 910
306 935 940
307 14 181
308 873 727
309 896 683
310 571 612
311 938 763
312 219 930
313 697 393
314 818 777
315 741 316
316 760 270
317 291 911
318 998 998
319 774 940
320 838 610
321 837 729
322 863 747
323 110 210
324 941 368
325 840 786
326 955 703
327 27 249
328 885 720
329 726 72
330 927 828
331 936 839
332 67 303
333 6 173
334 450 456
335 814 755
336 916 839
337 267 996
338 835 904
339 19 162
340 169 925
341 697 124
342 503 227
343 762 808
344 995 982
345 625 396
346 278 907
347 789 275
348 35 134
349 169 67
350 909 870
351 731 272
352 17 50
353 40 968
354 912 691
355 895 657
356 970 746
357 227 938
358 789 714
359 831 793
360 628 75
361 44 140
362 833 331
363 819 774
364 863 563
365 7 208
366 251 969
367 929 741
368 857 859
369 828 756
370 176 937
371 861 803
372 142 224
373 785 320
374 732 656
375 702 411
376 89 906
377 259 902
378 896 852
379 124 963
380 685 731
381 88 97
382 763 297
383 855 747
384 161 273
385 171 74
386 237 989
387 780 303
388 886 835
389 189 960
390 823 650
391 123 142
392 846 781
393 866 728
394 692 575
395 816 730
396 670 282
397 844 756
398 220 944
399 773 798
400 879 728
401 807 714
402 185 301
403 797 735
404 934 784
405 667 332
406 24 204
407 901 705
408 845 758
409 692 835
410 195 161
411 984 717
412 878 867
413 65 312
414 167 965
415 21 154
416 262 49
417 804 363
418 513 373
419 886 775
420 754 423
421 289 968
422 685 588
423 821 861
424 232 876
425 802 662
426 152 128
427 913 784
428 45 151
429 648 249
430 174 343
431 902 811
432 287 979
433 759 909
434 170 875
435 871 772
436 231 949
437 757 759
438 830 706
439 73 64
440 181 209
441 346 925
442 781 691
443 939 690
444 776 662
445 696 935
446 914 713
447 569 224
448 835 929
449 716 466
450 814 851
451 760 725
452 918 734
453 801 957
454 980 884
455 881 597
456 922 516
457 937 722
458 42 137
459 788 704
460 239 159
461 823 797
462 477 752
463 785 161
464 901 843
465 968 847
466 816 769
467 16 117
468 850 917
469 835 817
470 568 403
471 688 214
472 968 840
473 831 736
474 338 911
475 926 697
476 260 801
477 760 280
478 328 778
479 853 694
480 825 825
481 966 756
482 918 833
483 880 747
484 869 741
485 861 227
486 682 353
487 783 872
488 684 255
489 95 811
490 719 331
491 852 809
492 287 911
493 849 735
494 908 743
495 842 941
496 773 87
497 829 790
498 116 68
499 0 210
500 832 798
501 990 962
502 720 777
503 785 786
504 769 726
505 286 795
506 33 167
507 783 578
508 925 840
509 48 159
510 8 59
511 719 304
512 53 77
513 792 744
514 934 879
515 823 685
516 857 240
517 850 780
518 116 45
519 624 288
520 164 904
521 870 767
522 844 854
523 277 820
524 805 821
525 878 755
526 916 435
527 146 86
528 856 887
529 110 922
530 931 578
531 672 355
532 732 259
533 317 931
534 973 525
535 39 229
536 257 153
537 814 742
538 82 116
539 176 916
540 150 211
541 726 634
542 710 884
543 850 733
544 964 690
545 863 307
546 212 235
547 275 975
548 935 759
549 770 210
550 988 760
551 804 712
552 23 152
553 783 812
554 212 922
555 820 750
556 608 976
557 842 734
558 939 896
559 987 811
560 810 778
561 909 838
562 759 793
563 211 892
564 827 748
565 685 761
566 774 211
567 804 287
568 770 312
569 763 294
570 839 263
571 700 294
572 723 658
573 72 220
574 268 921
575 12 122
576 101 42
577 797 844
578 39 252
579 120 148
580 836 712
581 750 802
582 833 737
583 706 702
584 846 867
585 850 818
586 774 522
587 789 290
588 658 197
589 857 742
590 932 844
591 183 127
592 235 950
593 237 941
594 868 831
595 878 677
596 826 794
597 643 146
598 284 964
599 990 710
600 923 535
601 828 780
602 251 928
603 951 836
604 985 682
605 35 186
606 803 801
607 689 269
608 734 819
609 917 615
610 856 239
611 814 773
612 660 351
613 178 887
614 672 213
615 859 867
616 800 771
617 769 706
618 692 282
619 976 867
620 938 693
621 716 682
622 980 804
623 726 598
624 609 290
625 168 990
626 777 711
627 200 890
628 818 877
629 981 802
630 959 768
631 258 768
632 796 724
633 119 103
634 958 780
635 659 309
636 181 203
637 874 708
638 732 350
639 295 849
640 898 842
641 624 381
642 892 741
643 746 300
644 335 926
645 231 136
646 966 841
647 910 716
648 853 779
649 959 893
650 800 283
651 839 993
652 863 788
653 827 797
654 136 807
655 830 719
656 806 209
657 963 696
658 229 974
659 789 841
660 886 810
661 875 762
662 763 718
663 852 757
664 737 866
665 862 712
666 667 399
667 207 902
668 252 978
669 135 237
670 308 943
671 776 317
672 271 910
673 773 824
674 947 602
675 823 315
676 570 131
677 61 62
678 833 379
679 827 719
680 52 101
681 841 711
682 713 255
683 907 845
684 608 269
685 684 35
686 871 858
687 264 753
688 932 800
689 903 857
690 751 885
691 64 178
692 941 908
693 847 779
694 98 179
695 904 597
696 931 746
697 905 794
698 720 166
699 1000 903
700 805 243
701 244 869
702 707 281
703 915 854
704 851 601
705 746 297
706 864 201
707 775 388
708 851 678
709 820 904
710 44 30
711 871 740
712 622 948
713 732 204
714 55 163
715 850 899
716 885 799
717 274 938
718 967 914
719 178 992
720 129 97
721 814 836
722 233 962
723 847 409
724 760 285
725 963 944
726 764 749
727 835 828
728 899 710
729 700 183
730 2 53
731 156 160
732 815 861
733 61 239
734 802 823
735 863 924
736 312 683
737 80 983
738 322 951
739 848 746
740 817 752
741 816 765
742 132 885
743 544 344
744 84 115
745 732 699
746 876 743
747 895 863
748 855 741
749 909 770
750 225 216
751 698 282
752 62 45
753 326 960
754 63 74
755 916 952
756 733 350
757 843 720
758 741 389
759 15 700
760 755 393
761 784 775
762 284 984
763 906 914
764 735 247
765 699 915
766 876 761
767 687 312
768 703 304
769 828 841
770 640 831
771 799 827
772 940 721
773 856 774
774 119 158
775 641 38
776 783 686
777 811 194
778 886 733
779 938 870
780 50 152
781 852 386
782 663 797
783 784 231
784 947 808
785 199 66
786 874 731
787 950 736
788 792 362
789 738 343
790 260 934
791 739 293
792 302 925
793 920 680
794 727 777
795 737 663
796 792 789
797 777 747
798 656 600
799 84 103
800 63 130
801 988 787
802 531 320
803 67 892
804 932 891
805 299 878
806 70 70
807 820 800
808 63 163
809 660 210
810 806 848
811 664 357
812 887 761
813 907 786
814 254 765
815 888 615
816 758 801
817 897 690
818 831 711
819 850 832
820 764 223
821 963 762
822 888 719
823 801 237
824 818 899
825 896 832
826 784 445
827 66 147
828 797 805
829 961 977
830 833 398
831 845 852
832 783 782
833 906 809
834 528 179
835 936 778
836 850 711
837 968 849
838 305 869
839 999 797
840 824 742
841 794 779
842 34 17
843 884 859
844 58 297
845 3 78
846 867 798
847 825 537
848 750 924
849 859 772
850 928 885
851 805 790
852 728 309
853 47 96
854 846 891
855 665 274
856 42 148
857 867 826
858 76 950
859 912 823
860 836 730
861 722 262
862 876 816
863 36 129
864 812 315
865 126 210
866 986 649
867 100 21
868 582 337
869 64 163
870 833 725
871 714 839
872 842 793
873 763 751
874 778 664
875 881 774
876 874 366
877 801 210
878 736 780
879 883 819
DEMAND_SECTION
2 38
3 48
4 57
5 60
6 56
7 74
8 41
9 95
10 77
11 95
12 54
13 85
14 66
15 18
16 83
17 3
18 84
19 86
20 96
21 69
22 51
23 100
24 77
25 51
26 96
27 53
28 70
29 99
30 58
31 53
32 87
33 12
34 64
35 62
36 64
37 59
38 64
39 51
40 55
41 7
42 64
43 47
44 5
45 20
46 100
47 75
48 41
49 87
50 72
51 74
52 68
53 27
54 72
55 18
56 25
57 68
58 56
59 14
60 68
61 85
62 83
63 88
64 2
65 78
66 98
67 59
68 99
69 88
70 59
71 9
72 87
73 4
74 62
75 89
76 86
77 82
78 74
79 50
80 5
81 72
82 86
83 20
84 98
85 77
86 71
87 29
88 55
89 13
90 57
91 29
92 24
93 82
94 45
95 55
96 42
97 85
98 69
99 90
100 93
101 78
102 78
103 56
104 39
105 56
106 77
107 53
108 43
109 65
110 10
111 67
112 23
113 96
114 52
115 36
116 10
117 18
118 74
119 73
120 95
121 88
122 47
123 11
124 73
125 57
126 100
127 51
128 34
129 50
130 34
131 87
132 13
133 39
134 71
135 5
136 42
137 79
138 65
139 56
140 15
141 76
142 72
143 56
144 4
145 8
146 28
147 70
148 56
149 73
150 65
151 8
152 41
153 12
154 80
155 36
156 4
157 77
158 69
159 69
160 91
161 79
162 89
163 70
164 79
165 89
166 52
167 83
168 72
169 9
170 95
171 53
172 80
173 68
174 57
175 70
176 94
177 33
178 51
179 3
180 47
181 40
182 21
183 67
184 62
185 49
186 96
187 53
188 41
189 88
190 54
191 4
192 91
193 14
194 8
195 94
196 92
COVERAGE_SECTION
2 9 592 248 83 151 436 203 593 722 357 
3 9 791 53 129 705 643 351 852 511 724 
4 9 557 321 860 493 582 543 473 66 739 
5 9 585 215 469 819 491 727 231 20 279 
6 9 833 431 859 24 697 175 197 660 57 
7 9 176 800 361 255 458 127 827 780 428 
8 8 181 767 490 768 291 206 511 486 
9 9 119 27 690 542 183 433 848 77 664 
10 9 262 437 70 873 726 794 878 86 241 
11 9 524 734 771 721 230 480 577 810 20 
12 9 162 832 503 761 196 399 796 562 841 
13 9 817 309 51 292 139 595 407 354 728 
14 9 54 680 853 512 754 799 806 381 127 
15 9 566 783 549 820 877 823 304 656 700 
16 9 403 513 36 62 537 632 294 395 286 
17 9 612 811 531 405 486 291 635 8 767 
18 9 38 479 292 595 708 637 138 242 665 
19 9 842 710 352 730 510 223 752 160 845 
20 9 480 727 231 469 215 769 257 721 5 
21 9 854 715 186 338 528 468 164 709 106 
22 9 669 372 192 865 540 124 384 323 290 
23 9 455 204 364 695 704 245 815 320 609 
24 9 697 175 120 813 427 109 26 287 833 
25 9 363 466 314 611 741 560 601 171 335 
26 9 697 813 207 24 716 419 175 427 120 
27 9 848 433 9 690 119 319 77 183 542 
28 9 322 383 589 748 484 739 711 663 493 
29 9 369 266 564 555 740 840 198 335 397 
30 9 39 209 579 774 827 165 391 694 869 
31 9 296 331 590 603 508 90 58 330 779 
32 9 184 483 235 746 525 642 93 778 812 
33 8 191 249 563 667 554 236 312 424 
34 9 581 608 816 252 143 878 562 343 794 
35 9 591 785 385 349 284 60 527 426 645 
36 9 513 286 62 16 137 403 797 632 63 
37 9 804 210 558 850 126 514 692 52 295 
38 9 18 479 242 292 138 637 665 78 836 
39 9 209 30 869 808 694 827 691 190 714 
40 9 100 118 507 541 623 444 874 374 795 
41 9 717 177 574 792 790 492 670 59 317 
42 9 81 399 553 250 343 673 816 230 828 
43 9 723 526 123 193 781 830 876 153 678 
44 9 570 194 567 650 700 219 516 610 214 
45 9 185 762 432 421 547 337 598 177 753 
46 9 765 77 445 227 542 293 712 9 85 
47 9 273 260 72 277 845 467 575 208 853 
48 9 89 379 858 737 529 156 376 145 221 
49 9 50 872 167 392 517 121 325 648 693 
50 9 49 167 166 371 652 872 846 392 491 
51 9 309 817 13 354 595 355 793 134 292 
52 9 558 649 126 804 189 514 37 210 850 
53 9 3 351 129 791 705 861 56 532 643 
54 9 14 512 754 680 853 806 677 439 277 
55 9 180 232 678 153 417 288 362 788 781 
56 9 205 861 682 92 351 532 702 53 751 
57 6 660 879 862 218 716 431 
58 9 330 216 303 331 482 508 246 590 859 
59 8 792 533 670 317 492 41 644 738 
60 9 645 460 536 591 410 35 284 785 426 
61 7 368 615 584 522 831 686 131 
62 9 513 36 286 16 137 403 797 294 616 
63 9 504 451 270 662 224 626 797 137 726 
64 9 140 104 701 243 639 523 269 424 805 
65 9 442 776 459 617 626 187 111 224 358 
66 9 870 321 757 860 655 228 580 679 557 
67 9 378 163 464 640 689 683 747 843 388 
68 9 172 451 662 270 70 745 224 504 617 
69 9 664 183 85 119 253 268 690 871 542 
70 9 241 68 264 270 10 451 662 745 172 
71 7 247 429 684 447 809 588 614 
72 9 845 260 273 47 510 277 730 352 467 
73 8 221 803 376 742 489 529 654 434 
74 9 849 521 773 663 435 661 154 648 766 
75 9 786 400 308 711 746 778 168 484 393 
76 9 202 807 461 298 596 653 359 497 500 
77 9 765 445 9 542 27 848 46 119 433 
78 9 665 242 103 138 836 637 280 393 228 
79 9 136 698 278 341 133 729 713 597 471 
80 9 233 672 377 269 346 132 108 574 243 
81 9 553 42 399 828 230 250 673 343 606 
82 8 173 732 423 450 628 810 106 577 
83 9 436 592 2 203 248 151 593 722 357 
84 9 835 311 548 95 404 109 749 427 120 
85 9 871 69 183 664 542 119 409 253 252 
86 9 873 726 437 137 797 286 262 36 63 
87 9 602 108 790 132 574 593 191 377 672 
88 8 534 600 107 530 456 674 204 695 
89 9 379 48 529 156 858 145 737 414 376 
90 9 779 514 126 271 850 189 296 703 31 
91 8 707 826 288 830 193 420 760 678 
92 9 56 702 205 682 751 861 259 607 618 
93 9 235 812 32 184 642 483 525 159 766 
94 6 217 414 389 370 145 272 
95 9 548 696 311 84 114 367 201 835 749 
96 9 375 313 152 122 758 760 666 420 638 
97 7 195 755 263 261 306 200 234 
98 8 733 573 124 535 578 142 327 323 
99 9 416 284 785 35 349 385 254 60 102 
100 8 623 213 541 40 394 422 507 374 
101 9 506 509 229 339 220 415 428 552 856 
102 9 254 518 289 349 498 576 867 385 527 
103 9 78 228 665 836 280 757 242 138 393 
104 9 701 424 243 64 269 191 377 236 140 
105 9 426 391 720 579 633 731 591 527 774 
106 8 628 173 423 732 82 584 854 522 
107 8 674 88 866 530 534 609 695 600 
108 9 132 377 87 574 233 672 80 602 191 
109 9 427 120 813 175 287 24 697 749 404 
110 9 470 868 743 641 155 345 418 802 612 
111 9 459 358 551 401 632 626 65 442 617 
112 9 736 146 687 814 631 251 478 117 505 
113 9 784 216 303 258 688 246 622 629 634 
114 9 367 696 201 95 452 548 274 494 311 
115 9 477 724 316 179 569 382 347 587 705 
116 6 635 396 855 519 624 429 
117 5 251 462 310 736 478 
118 9 795 374 444 874 572 541 40 776 442 
119 9 690 183 664 9 69 268 253 542 85 
120 9 109 427 175 813 24 287 697 26 749 
121 9 325 392 872 693 49 517 171 359 497 
122 9 375 313 666 96 152 449 758 486 531 
123 9 876 781 153 723 678 830 43 232 55 
124 9 98 22 669 733 573 323 865 372 332 
125 9 840 473 582 395 564 537 860 321 555 
126 9 514 850 804 779 37 90 52 558 189 
127 9 800 176 7 255 165 538 680 458 744 
128 9 864 567 675 214 226 587 373 650 387 
129 9 511 3 53 791 852 702 351 571 705 
130 8 658 188 386 389 722 719 203 83 
131 9 276 157 686 594 388 843 857 368 412 
132 9 574 108 672 80 233 87 377 346 602 
133 9 729 136 278 698 79 588 471 614 809 
134 9 354 158 475 793 407 446 817 647 620 
135 9 476 505 523 631 814 687 140 64 639 
136 9 698 79 278 729 133 341 713 471 588 
137 9 797 286 36 86 726 513 873 62 63 
138 9 242 665 637 78 103 38 308 393 836 
139 9 728 292 407 637 822 328 13 817 138 
140 9 64 639 523 243 838 104 701 805 269 
141 9 502 143 794 878 225 34 10 581 252 
142 9 406 535 605 212 229 365 573 733 307 
143 9 141 794 502 878 34 225 581 252 10 
144 9 789 206 638 756 490 181 315 852 8 
145 9 414 94 217 370 379 340 389 625 89 
146 8 687 736 814 631 112 135 476 505 
147 9 237 384 402 430 124 22 332 413 669 
148 9 630 821 634 481 302 550 801 356 311 
149 9 283 222 708 595 390 18 355 479 245 
150 8 415 339 552 220 333 506 307 101 
151 9 2 248 592 83 436 593 722 203 357 
152 9 313 96 758 638 756 375 206 486 181 
153 9 678 781 55 288 830 232 723 180 123 
154 9 661 766 521 435 525 812 875 419 74 
155 9 470 345 641 110 666 868 122 811 743 
156 9 379 737 89 48 145 625 858 414 719 
157 8 131 686 843 276 412 67 388 378 
158 9 134 475 446 354 647 407 620 728 211 
159 9 749 93 812 419 427 813 235 109 494 
160 9 752 710 867 576 439 677 223 289 806 
161 9 281 418 334 743 802 470 110 868 155 
162 9 832 503 12 761 796 841 399 196 616 
163 9 464 640 683 67 378 561 689 825 703 
164 9 338 448 709 468 824 21 715 495 854 
165 9 538 744 799 800 127 381 30 238 827 
166 9 491 371 50 49 846 167 585 872 652 
167 9 652 50 199 49 648 846 517 371 773 
168 9 778 400 328 822 75 786 308 642 244 
169 9 764 713 682 304 205 532 471 861 56 
170 9 507 847 320 704 364 23 245 455 40 
171 9 601 198 121 325 25 363 392 314 693 
172 9 745 68 621 617 662 224 264 70 451 
173 8 82 628 732 423 106 450 810 824 
174 8 299 718 699 239 725 501 454 649 
175 9 24 120 697 813 109 287 427 833 6 
176 9 7 255 800 361 458 127 863 348 856 
177 9 598 421 547 717 41 432 762 790 366 
178 7 604 544 657 599 326 411 443 
179 9 569 382 115 724 387 226 477 587 568 
180 9 55 232 362 417 675 864 153 678 788 
181 9 8 490 206 144 638 756 767 486 768 
182 6 520 539 305 340 613 272 
183 9 664 69 119 85 268 690 253 9 542 
184 9 483 32 746 235 525 642 711 93 484 
185 9 762 45 432 337 547 421 598 177 668 
186 7 528 854 21 715 338 584 615 
187 9 776 442 425 65 874 459 444 111 515 
188 9 386 658 668 130 366 722 337 2 83 
189 9 779 52 514 126 285 90 649 31 619 
190 9 694 39 323 691 209 30 808 869 573 
191 9 33 377 108 87 132 233 269 80 424 
192 9 372 22 669 384 540 440 636 546 865 
193 9 723 830 91 43 826 288 781 678 153 
194 9 700 44 570 823 610 516 485 656 877 
195 7 755 97 261 263 306 200 763 
196 9 562 12 816 162 399 262 832 581 250 
197 9 825 561 640 388 464 859 163 431 683 
198 9 266 408 171 397 369 29 663 693 392 
199 9 652 167 207 435 846 849 875 50 648 
200 8 263 829 725 306 501 755 195 97 
201 8 367 114 696 787 457 772 211 452 
202 9 807 76 461 298 596 653 500 359 497 
203 9 83 436 398 592 2 357 248 593 151 
204 8 695 23 455 530 815 609 364 245 
205 9 56 861 682 92 532 351 702 764 53 
206 9 144 490 638 756 789 181 8 315 852 
207 7 419 875 26 199 716 435 652 
208 8 863 255 348 467 680 853 176 458 
209 9 39 869 808 827 30 714 691 780 509 
210 9 37 558 804 692 850 126 52 514 295 
211 7 457 772 201 446 367 452 158 
212 9 365 406 499 142 535 327 307 578 605 
213 8 422 623 541 100 394 798 572 374 
214 9 587 650 567 219 347 226 128 387 179 
215 9 5 727 819 231 585 469 20 480 491 
216 9 303 784 58 113 603 246 330 331 688 
217 6 94 389 370 414 267 272 
218 6 862 857 594 879 57 660 
219 9 347 650 214 567 587 226 179 115 387 
220 8 552 415 339 856 101 506 150 428 
221 9 376 803 529 73 742 858 48 89 379 
222 9 390 149 265 708 283 515 425 479 18 
223 9 677 752 512 754 439 806 710 277 54 
224 9 617 662 626 504 451 63 270 358 68 
225 9 141 143 502 252 794 34 878 565 608 
226 9 387 587 179 214 568 671 373 128 382 
227 9 293 712 46 556 445 765 77 542 770 
228 9 757 103 66 836 280 543 681 321 493 
229 9 605 307 506 101 339 333 406 415 552 
230 9 771 734 553 524 81 11 673 828 659 
231 9 727 20 215 769 257 480 819 5 469 
232 9 180 55 362 153 678 417 781 876 675 
233 9 80 377 672 269 346 132 108 574 243 
234 6 651 495 97 195 261 735 
235 9 93 32 184 812 483 525 642 766 661 
236 7 563 249 627 424 667 33 701 
237 9 147 430 402 384 413 332 844 124 22 
238 9 381 799 633 744 538 165 720 498 14 
239 9 454 718 649 285 699 299 174 52 619 
240 7 614 471 809 488 588 429 169 
241 7 264 70 10 380 583 68 745 
242 9 138 665 78 637 103 38 836 308 393 
243 9 269 80 233 377 104 346 701 672 64 
244 8 274 647 446 452 494 728 822 168 
245 9 704 815 455 283 320 23 149 695 204 
246 9 688 287 303 58 784 216 175 330 6 
247 7 71 429 684 809 519 588 614 
248 9 2 592 151 436 593 83 203 357 722 
249 7 563 667 627 236 33 554 424 
250 9 343 816 42 399 562 581 81 553 673 
251 6 117 310 462 736 112 334 
252 9 608 34 871 225 581 143 409 141 816 
253 4 268 69 664 183 
254 9 102 289 518 867 576 349 498 385 527 
255 8 176 863 458 7 348 361 208 127 
256 9 445 77 765 848 319 27 712 453 9 
257 8 769 231 20 450 721 727 522 831 
258 8 622 629 559 113 302 784 801 472 
259 9 607 488 618 751 92 702 396 855 56 
260 9 72 845 273 47 277 510 730 352 467 
261 3 763 755 195 
262 9 437 86 873 726 10 196 878 12 137 
263 7 200 306 725 755 195 829 97 
264 7 241 583 70 745 68 172 380 
265 9 390 425 222 187 515 874 444 149 776 
266 9 29 369 198 397 408 564 555 171 663 
267 7 398 312 203 357 554 436 83 
268 6 253 664 69 690 183 119 
269 9 243 80 233 377 672 346 108 132 191 
270 9 451 504 662 63 68 224 726 70 873 
271 9 282 350 850 90 295 126 514 703 689 
272 5 539 370 305 340 182 
273 9 72 47 845 260 277 510 467 575 730 
274 8 452 244 494 647 367 114 446 642 
275 9 545 297 362 675 864 232 128 180 570 
276 9 131 594 157 388 857 686 218 67 825 
277 9 47 260 853 512 72 273 680 54 845 
278 9 698 136 729 133 79 713 471 169 341 
279 9 500 469 653 359 461 596 807 872 76 
280 8 836 681 103 228 580 757 78 665 
281 9 161 334 418 743 802 470 110 868 155 
282 9 271 350 295 850 126 514 90 804 37 
283 9 149 222 245 390 708 320 595 704 355 
284 9 785 35 416 385 60 349 645 591 99 
285 9 619 454 649 189 52 239 837 465 779 
286 9 137 797 36 513 62 86 726 873 16 
287 9 120 109 175 688 427 24 404 246 697 
288 9 678 830 153 55 417 781 723 91 788 
289 9 576 518 867 102 498 160 254 439 752 
290 8 865 540 323 372 774 694 731 190 
291 8 405 767 635 17 8 612 486 531 
292 9 139 637 13 38 18 138 595 817 242 
293 9 712 227 556 46 445 765 77 542 256 
294 9 740 335 555 537 564 840 741 29 369 
295 7 282 271 37 350 850 763 804 
296 9 31 590 331 508 603 90 330 58 336 
297 7 545 275 570 675 362 44 516 
298 9 76 202 851 461 807 596 606 653 497 
299 8 174 718 239 725 699 649 501 454 
300 7 798 394 422 213 310 623 100 
301 9 360 597 775 341 685 676 329 79 133 
302 9 801 629 622 148 634 839 258 559 630 
303 9 216 784 58 113 246 330 688 603 331 
304 9 820 549 566 713 15 169 764 783 532 
305 5 539 182 272 520 340 
306 6 263 755 725 195 200 692 
307 9 333 229 339 605 506 406 101 365 415 
308 9 786 400 393 75 168 711 328 778 484 
309 9 51 817 13 354 595 292 139 407 134 
310 7 798 300 251 422 117 213 394 
311 9 548 84 95 835 696 404 114 630 367 
312 8 357 554 398 267 203 593 436 83 
313 9 96 375 152 122 666 486 758 531 811 
314 9 363 25 611 466 560 601 741 171 298 
315 9 852 643 705 791 144 511 490 789 3 
316 9 477 115 724 569 179 382 347 351 532 
317 9 492 346 792 672 59 80 233 574 41 
318 9 344 501 829 200 725 263 174 299 306 
319 9 848 453 433 27 709 9 690 824 448 
320 9 704 245 283 170 390 455 23 149 222 
321 9 860 66 870 4 557 473 582 757 655 
322 9 28 383 484 589 748 711 746 663 739 
323 9 865 190 290 694 372 669 573 540 22 
324 6 876 123 526 43 781 545 
325 9 121 872 392 693 49 359 497 517 171 
326 7 657 544 620 443 772 178 457 
327 7 578 535 212 733 142 406 365 
328 9 822 168 400 778 308 139 75 637 786 
329 9 496 685 341 79 301 136 775 698 360 
330 9 58 482 508 331 336 859 590 216 303 
331 9 590 296 31 508 330 58 603 482 336 
332 7 413 844 578 124 98 733 147 
333 9 307 339 150 229 415 552 506 101 220 
334 9 281 161 418 470 743 110 155 802 251 
335 9 740 294 555 741 537 369 466 29 564 
336 9 482 561 508 683 703 330 464 859 163 
337 9 185 762 547 668 432 45 366 386 188 
338 9 164 21 709 715 854 824 468 186 448 
339 9 415 552 150 220 506 101 333 229 307 
340 6 539 370 272 182 305 520 
341 9 79 136 698 133 278 597 729 329 301 
342 9 834 447 802 71 684 676 247 624 743 
343 9 250 816 581 42 399 562 673 81 553 
344 9 318 501 829 200 725 174 263 299 306 
345 9 641 155 666 811 470 612 110 17 531 
346 9 672 492 80 233 317 132 574 269 377 
347 9 219 214 650 587 567 115 179 226 316 
348 7 863 458 361 255 856 176 208 
349 9 385 527 785 35 102 720 498 284 518 
350 9 271 282 689 747 703 295 90 378 850 
351 9 53 532 861 3 56 205 129 791 92 
352 9 510 730 260 845 72 223 710 277 842 
353 9 858 737 48 89 156 376 803 379 529 
354 9 134 158 793 475 817 51 309 407 13 
355 9 51 309 595 13 817 793 354 149 283 
356 6 481 821 787 550 630 148 
357 9 398 203 593 312 436 83 248 592 2 
358 9 111 459 626 632 551 401 224 403 617 
359 9 497 500 596 653 461 325 872 121 76 
360 9 301 775 685 597 676 341 329 79 133 
361 9 458 856 348 428 7 176 255 780 863 
362 9 180 675 232 864 275 55 128 545 417 
363 9 25 314 611 466 741 560 601 171 298 
364 9 23 455 704 204 170 847 245 320 695 
365 9 499 212 406 307 142 229 333 605 535 
366 9 668 722 151 2 658 188 386 547 592 
367 9 114 696 201 452 95 274 548 211 457 
368 7 61 615 522 584 686 831 131 
369 9 29 266 564 555 740 198 335 741 840 
370 6 272 340 217 94 539 389 
371 4 166 846 50 491 
372 9 540 669 22 865 192 290 323 440 636 
373 8 671 568 226 387 128 864 587 179 
374 8 572 795 118 541 621 745 172 444 
375 9 96 122 313 152 666 758 420 760 449 
376 9 221 529 803 73 858 742 48 89 379 
377 9 233 80 108 269 672 132 191 346 574 
378 9 67 163 689 464 640 747 683 843 157 
379 9 89 48 145 156 414 529 737 858 94 
380 5 565 241 264 583 70 
381 9 799 238 744 538 14 165 54 633 806 
382 9 569 179 724 115 477 568 643 705 387 
383 9 28 589 748 739 322 663 493 397 408 
384 9 192 402 22 669 147 372 540 124 546 
385 9 349 527 785 35 102 720 591 284 498 
386 9 188 658 668 366 130 722 337 2 151 
387 9 226 568 179 671 587 373 382 569 214 
388 9 825 276 197 640 879 67 464 131 157 
389 6 217 94 414 267 370 130 
390 9 265 222 425 149 283 515 708 187 320 
391 8 579 774 105 30 426 731 633 39 
392 9 693 517 121 648 325 49 773 872 171 
393 9 308 786 75 400 484 711 78 103 665 
394 8 422 213 623 100 798 300 541 40 
395 9 125 537 840 473 679 401 582 655 870 
396 7 855 618 116 607 259 751 635 
397 9 408 663 266 198 739 383 29 369 74 
398 9 203 357 436 83 267 312 592 2 248 
399 9 42 250 81 12 343 562 816 162 503 
400 9 75 308 786 168 778 328 393 822 711 
401 9 551 111 632 358 395 459 679 403 438 
402 9 384 430 147 237 192 546 22 669 372 
403 9 16 513 632 36 62 537 395 286 294 
404 9 835 84 287 688 109 120 311 427 175 
405 9 291 17 612 531 635 811 486 767 8 
406 9 142 365 212 605 229 307 499 535 333 
407 8 728 139 647 446 817 134 158 354 
408 9 397 663 198 266 739 383 29 74 369 
409 9 871 85 252 225 608 782 69 542 770 
410 8 591 731 60 460 636 645 440 426 
411 5 599 178 657 326 356 
412 3 843 686 157 
413 6 332 844 578 147 124 237 
414 7 94 145 217 389 625 370 719 
415 8 552 220 339 150 101 506 856 333 
416 9 99 284 785 35 60 645 385 349 536 
417 8 788 55 180 288 678 153 232 707 
418 9 743 161 802 110 470 281 868 155 334 
419 9 875 207 812 154 435 26 661 766 521 
420 8 760 758 826 707 91 96 375 449 
421 9 598 432 177 547 762 185 45 670 41 
422 7 394 213 798 623 100 300 541 
423 8 732 82 173 450 106 628 257 810 
424 8 701 104 236 563 191 33 249 627 
425 9 265 187 390 874 444 515 776 222 442 
426 9 105 591 391 731 579 720 633 527 774 
427 9 109 120 813 175 24 287 697 749 26 
428 9 856 780 509 361 458 714 7 101 220 
429 7 247 855 488 71 240 396 809 
430 9 402 237 147 384 192 22 413 669 332 
431 9 833 6 660 859 57 697 24 197 175 
432 9 762 421 185 547 598 45 177 337 668 
433 9 27 848 690 9 119 319 268 487 183 
434 6 613 520 182 627 305 742 
435 9 521 154 875 661 766 849 74 199 419 
436 9 83 592 2 203 248 151 593 357 398 
437 9 262 873 86 726 10 797 137 196 286 
438 8 818 580 681 655 679 280 66 757 
439 9 806 677 754 752 512 54 223 14 160 
440 8 636 540 192 546 372 750 290 410 
441 5 644 474 533 738 59 
442 9 65 776 459 187 617 626 111 358 224 
443 9 620 475 326 793 134 158 544 657 354 
444 9 874 118 776 187 425 442 65 265 795 
445 9 77 765 46 9 542 27 848 256 119 
446 8 647 158 407 728 244 134 211 274 
447 9 71 247 684 834 342 624 429 519 809 
448 8 164 495 468 338 735 709 21 715 
449 9 375 420 122 96 826 313 586 758 666 
450 8 810 732 423 82 721 257 769 577 
451 9 270 662 504 63 224 68 617 626 726 
452 8 274 367 494 114 244 201 696 647 
453 9 319 448 495 164 651 709 824 848 338 
454 9 285 239 619 649 699 52 189 718 837 
455 9 23 815 245 695 204 704 364 609 320 
456 9 600 534 88 530 204 364 23 526 695 
457 7 772 211 201 787 367 114 452 
458 8 361 348 863 255 856 176 7 428 
459 9 111 358 626 65 442 551 617 776 401 
460 9 536 645 60 410 750 591 636 35 440 
461 9 76 596 653 807 202 359 497 500 298 
462 3 117 251 478 
463 8 777 549 566 656 877 15 698 820 
464 9 163 640 683 67 561 378 825 197 689 
465 8 837 646 472 603 619 31 189 285 
466 9 25 611 741 363 314 560 335 601 616 
467 7 575 208 863 47 348 273 255 
468 8 735 164 715 448 338 21 495 854 
469 9 279 727 5 20 215 480 585 231 491 
470 9 110 155 345 641 418 743 868 802 666 
471 8 240 614 809 729 588 169 133 488 
472 8 646 465 837 603 619 31 258 296 
473 9 582 125 860 321 840 4 557 870 564 
474 5 644 441 533 59 792 
475 9 158 134 620 354 443 793 446 211 647 
476 9 135 523 505 631 814 687 140 64 639 
477 9 724 115 316 569 179 382 705 643 791 
478 8 505 135 523 687 631 476 814 639 
479 8 38 18 708 280 836 665 242 681 
480 9 20 727 469 231 721 769 11 215 257 
481 8 821 356 630 148 550 634 787 311 
482 9 336 330 508 561 859 58 683 590 197 
483 9 184 32 746 525 235 711 75 484 642 
484 9 711 746 322 28 75 786 589 393 483 
485 9 610 516 706 194 570 44 656 700 777 
486 9 531 811 17 612 405 291 181 8 152 
487 6 268 82 253 577 173 659 
488 7 259 607 855 92 618 682 240 
489 5 654 73 742 803 221 
490 9 206 181 144 8 789 638 756 852 315 
491 8 166 585 371 5 50 279 49 215 
492 9 317 346 672 80 574 792 233 132 41 
493 9 543 557 4 748 589 739 321 383 228 
494 9 274 452 642 244 93 114 367 159 235 
495 6 448 468 164 735 338 709 
496 7 329 463 341 79 698 136 685 
497 9 359 596 653 461 500 601 121 325 76 
498 9 518 576 720 289 527 633 238 381 102 
499 9 365 212 406 307 333 142 229 605 535 
500 9 359 653 596 279 461 497 872 807 76 
501 9 344 725 829 174 200 318 299 263 718 
502 9 141 794 143 878 225 10 34 262 565 
503 9 162 832 796 12 761 841 399 851 616 
504 9 63 451 662 270 224 626 617 797 358 
505 9 135 476 523 631 814 478 687 140 639 
506 9 101 229 339 220 509 415 552 605 428 
507 9 170 40 100 586 847 623 320 704 541 
508 9 590 336 482 331 330 296 561 31 58 
509 9 780 714 428 856 101 808 869 506 361 
510 9 730 352 845 72 260 273 47 277 223 
511 9 852 129 768 571 3 791 53 315 702 
512 9 754 54 677 14 806 853 223 277 439 
513 9 36 16 62 403 286 137 797 632 294 
514 9 126 850 779 804 90 37 52 189 558 
515 8 438 818 187 708 222 580 425 479 
516 9 610 485 570 194 44 706 700 823 297 
517 9 648 693 392 773 49 121 325 849 167 
518 9 289 576 498 102 867 160 254 439 527 
519 8 624 116 684 635 855 396 429 247 
520 7 182 539 305 340 613 272 434 
521 9 435 154 661 766 74 849 875 525 773 
522 8 831 61 584 368 257 615 769 231 
523 9 135 476 505 140 639 64 631 838 701 
524 9 734 11 771 230 721 828 480 606 553 
525 9 766 184 483 661 154 235 32 812 746 
526 9 43 123 324 723 456 781 876 193 830 
527 9 720 385 349 633 498 105 426 35 238 
528 6 186 854 715 21 615 584 
529 9 376 221 89 48 379 742 858 803 145 
530 8 674 204 695 609 600 23 455 88 
531 9 811 486 17 612 405 291 8 181 666 
532 9 861 764 351 205 56 682 53 92 3 
533 8 59 670 792 644 738 474 441 753 
534 8 88 600 456 107 530 674 204 695 
535 9 142 327 578 733 212 406 573 98 365 
536 9 460 645 60 410 750 591 35 284 636 
537 9 294 555 740 840 125 395 335 564 16 
538 9 744 165 799 381 127 238 800 14 7 
539 6 305 340 182 272 520 370 
540 8 372 865 290 669 440 636 192 22 
541 8 374 572 795 118 213 623 100 40 
542 9 9 85 119 183 664 765 69 77 690 
543 9 493 557 4 748 589 228 739 321 860 
544 8 657 178 326 604 443 620 599 411 
545 8 275 297 362 675 232 570 864 44 
546 9 750 440 636 192 384 540 372 402 22 
547 9 432 762 598 421 177 185 337 668 366 
548 9 311 95 84 696 114 367 835 201 404 
549 9 566 15 820 304 783 877 656 713 823 
550 7 481 148 356 821 801 302 630 
551 9 401 111 632 358 459 395 403 679 16 
552 8 415 220 339 150 101 506 856 348 
553 9 81 42 230 673 828 399 250 343 734 
554 7 312 267 667 357 33 398 249 
555 9 740 294 564 335 840 29 369 537 125 
556 9 712 293 227 46 445 256 765 77 542 
557 9 4 321 493 860 543 582 473 66 739 
558 9 210 804 37 52 692 126 850 514 649 
559 7 622 629 258 839 801 302 113 
560 9 611 314 363 466 25 616 851 741 298 
561 9 336 683 464 482 163 640 197 825 859 
562 9 816 196 581 250 343 399 12 42 34 
563 7 249 236 627 667 33 424 554 
564 9 29 555 840 369 125 740 266 473 582 
565 8 380 502 225 141 241 782 794 143 
566 9 549 15 820 783 304 877 656 823 777 
567 9 650 214 219 587 128 347 226 387 864 
568 8 671 387 226 373 382 569 179 643 
569 9 382 179 724 115 477 705 643 387 568 
570 9 44 194 516 610 700 485 567 650 297 
571 7 768 751 618 702 511 767 129 
572 7 374 795 541 621 118 745 172 
573 9 98 733 535 142 190 323 124 691 578 
574 9 132 672 108 790 346 80 87 233 602 
575 7 467 863 208 348 47 150 552 
576 9 289 518 867 498 160 439 752 806 102 
577 9 659 810 771 450 11 721 734 230 524 
578 7 327 535 733 98 212 142 573 
579 8 391 774 30 105 39 426 694 731 
580 8 681 818 438 655 66 280 679 757 
581 9 816 34 343 562 250 196 399 608 42 
582 9 473 4 125 860 321 557 840 870 564 
583 5 264 621 745 241 172 
584 8 61 522 615 368 831 106 528 186 
585 8 5 491 215 819 469 166 727 279 
586 9 847 507 170 826 449 100 623 40 364 
587 9 214 226 650 219 347 567 387 179 128 
588 8 809 614 471 240 133 729 71 247 
589 9 748 28 383 322 739 493 543 484 711 
590 9 331 296 508 31 330 336 482 58 703 
591 9 35 426 410 105 60 731 645 385 527 
592 9 2 83 248 436 151 203 593 722 357 
593 9 248 592 2 357 436 83 151 203 398 
594 8 857 276 218 131 862 388 819 879 
595 9 18 13 292 309 51 817 38 355 708 
596 9 653 461 359 497 500 76 807 202 298 
597 9 588 301 133 341 809 79 136 729 360 
598 9 421 177 547 432 762 41 185 717 670 
599 5 411 178 604 657 544 
600 9 456 530 88 534 204 695 364 23 674 
601 9 171 314 497 363 25 121 325 359 596 
602 9 87 790 108 132 574 593 248 151 717 
603 9 331 31 646 296 472 216 465 303 590 
604 8 178 544 657 599 866 411 326 443 
605 9 229 506 101 406 307 142 339 509 691 
606 9 828 851 298 76 202 796 807 461 524 
607 9 259 618 488 751 92 702 396 855 56 
608 9 252 34 581 871 343 816 250 143 562 
609 8 695 815 674 204 455 530 355 23 
610 9 516 485 570 194 44 706 700 823 656 
611 9 466 363 25 314 560 741 616 601 335 
612 9 17 811 531 405 486 291 635 8 641 
613 7 434 182 520 627 305 539 249 
614 7 809 240 471 588 133 729 429 
615 7 61 368 584 686 412 522 528 
616 9 841 560 611 466 761 741 62 314 363 
617 9 224 626 662 65 442 459 504 451 358 
618 7 751 607 259 571 702 92 396 
619 9 285 454 837 465 189 472 646 649 239 
620 9 443 475 326 158 134 793 657 354 544 
621 6 583 745 572 795 172 374 
622 8 629 258 559 302 801 839 113 634 
623 8 100 213 541 394 40 422 374 507 
624 9 519 684 116 635 247 868 429 855 71 
625 9 719 414 94 145 389 217 130 379 156 
626 9 224 617 358 459 662 111 504 65 63 
627 7 249 563 667 236 613 305 33 
628 8 173 106 82 423 732 824 450 709 
629 8 622 559 258 302 801 839 113 634 
630 9 821 148 634 481 311 356 835 548 302 
631 9 814 687 135 476 505 523 478 140 64 
632 9 403 358 551 16 401 111 513 36 395 
633 9 720 238 381 527 105 498 799 744 391 
634 9 630 148 821 302 835 404 481 311 113 
635 7 116 291 405 767 396 855 17 
636 9 440 540 192 372 410 546 750 290 731 
637 9 138 242 292 665 78 139 38 328 822 
638 8 756 789 144 206 490 181 152 315 
639 8 140 838 805 64 523 243 269 104 
640 9 464 163 67 683 378 825 561 197 388 
641 9 345 612 666 811 17 155 110 531 470 
642 9 32 778 184 235 483 93 168 494 746 
643 9 705 791 3 315 382 569 852 724 53 
644 6 441 474 533 59 738 670 
645 9 60 460 536 410 591 35 284 785 426 
646 8 472 465 837 603 31 619 296 331 
647 8 446 244 728 407 158 274 452 134 
648 9 517 693 773 392 849 49 167 652 121 
649 9 52 239 285 558 718 454 692 189 804 
650 9 567 214 219 587 347 128 226 387 179 
651 7 234 453 495 448 735 97 164 
652 9 167 199 50 846 49 648 371 517 773 
653 9 596 461 500 359 497 76 807 202 279 
654 5 489 73 434 742 613 
655 9 679 870 66 818 580 321 438 757 860 
656 9 877 777 15 823 783 566 700 549 194 
657 7 544 326 178 443 620 604 411 
658 9 188 722 386 130 366 668 2 83 436 
659 7 577 771 810 230 11 734 673 
660 6 57 879 716 862 431 218 
661 9 766 154 521 525 435 812 875 74 184 
662 9 224 451 504 270 617 63 626 68 358 
663 9 408 397 383 74 739 28 322 198 589 
664 9 69 183 119 268 253 85 690 542 9 
665 9 78 242 138 103 836 637 280 38 393 
666 9 122 313 375 345 811 531 96 641 486 
667 7 249 563 627 33 236 554 305 
668 9 366 386 188 337 547 658 722 151 2 
669 9 22 372 865 540 192 323 124 384 290 
670 8 533 738 59 792 753 41 421 598 
671 8 568 373 387 226 382 179 569 587 
672 9 80 233 346 132 574 377 108 492 269 
673 6 553 42 230 81 250 343 
674 8 530 609 695 107 204 815 866 88 
675 9 864 362 128 180 275 567 373 232 650 
676 9 834 597 360 301 447 71 588 342 775 
677 9 439 754 806 223 512 752 54 14 160 
678 9 153 288 55 830 781 232 417 723 180 
679 9 655 870 818 66 580 438 321 860 395 
680 9 853 14 54 208 127 512 277 255 754 
681 8 580 280 757 836 818 228 438 66 
682 9 205 56 861 92 532 764 351 259 702 
683 9 163 464 561 640 336 703 67 378 689 
684 7 624 519 247 71 429 116 855 
685 9 775 329 360 301 341 496 79 597 136 
686 6 157 412 131 843 368 615 
687 9 631 814 135 505 476 523 478 146 736 
688 9 246 287 404 784 303 175 109 120 216 
689 9 378 747 67 163 703 683 350 464 640 
690 9 119 268 183 9 664 433 253 69 27 
691 9 808 869 714 209 509 39 190 605 780 
692 8 210 558 37 804 52 649 850 718 
693 9 392 517 648 121 325 773 49 849 171 
694 9 190 39 30 209 774 323 691 290 579 
695 8 204 609 455 815 23 530 245 674 
696 9 114 367 201 95 548 311 452 787 274 
697 9 24 175 813 120 26 427 109 833 6 
698 9 278 136 79 729 133 713 341 471 169 
699 9 239 174 454 299 718 285 649 619 52 
700 9 823 194 783 44 877 15 656 219 347 
701 9 104 424 64 243 269 191 236 377 140 
702 9 751 92 571 618 56 129 205 259 607 
703 9 683 689 336 163 350 508 561 464 378 
704 9 320 245 455 23 170 364 815 283 149 
705 9 643 791 3 382 569 724 315 53 477 
706 8 485 610 516 777 194 656 877 570 
707 7 760 788 91 758 417 420 288 
708 8 479 18 38 222 149 595 515 280 
709 9 824 338 164 21 628 448 854 106 715 
710 9 842 752 223 160 352 677 19 439 510 
711 9 484 746 75 786 322 483 28 184 308 
712 9 293 227 556 46 445 765 77 256 542 
713 9 169 304 278 820 549 729 698 566 764 
714 9 509 808 869 780 428 691 827 101 856 
715 9 21 854 186 528 338 468 164 735 709 
716 5 660 207 26 57 846 
717 9 41 790 574 177 132 602 87 598 672 
718 8 299 239 649 174 692 725 52 454 
719 8 625 414 130 389 94 217 145 658 
720 9 633 527 238 105 498 426 381 391 799 
721 9 11 810 450 769 480 20 257 524 771 
722 9 2 83 592 436 658 151 203 248 366 
723 9 830 781 193 153 678 288 43 123 55 
724 9 477 115 569 382 179 316 705 643 791 
725 8 200 263 299 306 718 174 501 829 
726 9 873 86 437 797 137 286 262 63 270 
727 9 20 231 215 480 469 5 769 819 257 
728 8 407 139 647 822 446 244 328 817 
729 9 133 278 136 698 471 79 713 614 588 
730 9 510 352 845 72 260 273 47 277 223 
731 8 426 105 774 290 391 579 410 591 
732 8 82 423 173 450 628 810 106 257 
733 8 98 573 535 578 327 142 124 212 
734 9 524 771 11 230 721 828 553 577 606 
735 5 468 495 448 715 164 
736 9 112 146 687 478 814 631 505 135 476 
737 9 858 48 156 353 89 379 529 145 376 
738 7 753 670 533 644 59 792 441 
739 9 383 748 589 397 493 28 408 663 4 
740 9 294 335 555 537 564 29 369 840 741 
741 9 466 25 611 363 335 314 740 560 294 
742 8 520 434 182 529 221 73 613 376 
743 9 802 868 110 418 470 624 641 161 155 
744 9 538 165 799 381 238 127 800 14 30 
745 8 172 68 621 264 583 70 662 795 
746 9 483 711 184 484 32 75 525 786 322 
747 7 689 378 843 67 350 412 163 
748 9 589 383 28 493 543 739 322 484 4 
749 9 159 427 813 109 120 84 93 26 95 
750 9 546 440 636 460 410 192 536 540 645 
751 8 618 702 571 92 607 259 768 56 
752 9 160 677 223 439 710 806 754 512 576 
753 6 738 670 533 644 59 421 
754 9 806 512 677 54 439 14 223 853 680 
755 7 195 97 306 261 263 200 763 
756 8 638 789 144 206 490 181 152 315 
757 9 228 66 681 280 321 580 836 870 103 
758 7 760 96 152 707 420 638 756 
759 6 489 654 73 803 221 146 
760 7 758 707 420 96 152 91 756 
761 9 832 162 503 841 12 616 796 196 62 
762 9 432 185 547 45 421 598 337 177 668 
763 3 261 295 37 
764 9 532 861 682 169 205 56 351 304 316 
765 9 77 445 542 9 46 27 119 848 183 
766 9 661 154 525 521 812 435 184 235 875 
767 7 8 768 291 571 405 635 181 
768 8 571 511 767 8 129 702 751 618 
769 8 257 231 20 721 727 480 450 831 
770 8 782 409 225 46 871 85 565 252 
771 9 734 11 524 230 577 659 721 553 810 
772 7 457 211 201 787 326 367 114 
773 9 849 648 517 74 693 392 167 435 521 
774 8 579 391 30 694 39 290 731 190 
775 9 360 685 301 329 341 597 676 79 136 
776 9 442 65 187 459 874 617 111 444 626 
777 9 656 877 15 566 463 549 823 783 700 
778 9 168 75 400 642 786 328 32 308 746 
779 9 90 514 126 189 850 52 804 31 271 
780 9 428 509 856 714 361 7 458 808 827 
781 9 153 123 678 830 723 876 288 55 232 
782 8 225 770 565 409 141 502 143 252 
783 9 15 823 566 820 700 549 877 656 304 
784 9 113 303 216 688 246 58 258 404 330 
785 9 284 385 349 35 527 102 591 416 60 
786 9 75 308 400 393 711 484 168 746 778 
787 7 201 772 457 696 114 356 367 
788 6 417 707 55 180 288 373 
789 8 144 638 756 206 490 315 181 852 
790 9 602 87 574 717 132 108 41 593 151 
791 9 3 705 643 53 129 852 351 724 315 
792 9 59 533 317 670 492 41 346 717 644 
793 9 354 134 475 443 51 620 158 309 817 
794 9 141 143 502 878 10 34 262 225 581 
795 9 374 572 118 621 541 172 745 444 874 
796 9 503 841 832 162 851 606 761 828 12 
797 9 137 286 36 86 726 513 873 62 63 
798 7 422 213 394 300 623 100 541 
799 9 381 744 538 238 165 14 54 127 680 
800 9 127 7 176 255 827 165 361 458 538 
801 9 302 839 629 622 559 148 550 258 634 
802 9 743 868 418 110 624 470 684 342 161 
803 9 221 376 73 529 858 742 48 89 353 
804 9 37 850 210 558 126 514 52 692 282 
805 8 838 639 243 317 492 346 269 140 
806 9 439 754 677 512 54 14 223 752 381 
807 9 202 76 461 596 653 298 500 359 497 
808 9 869 714 209 691 509 827 780 39 428 
809 7 614 588 240 471 429 133 247 
810 8 450 577 721 732 82 659 11 423 
811 9 612 531 17 486 405 291 666 8 641 
812 9 93 235 154 525 766 661 32 184 419 
813 9 427 120 24 697 109 175 26 749 287 
814 9 631 687 135 476 505 523 478 146 140 
815 8 455 245 695 609 23 204 704 283 
816 9 343 562 581 250 399 196 42 34 12 
817 9 13 309 51 354 407 139 292 134 728 
818 8 438 580 655 679 681 66 870 757 
819 9 215 5 231 585 727 594 857 469 831 
820 9 304 549 15 566 783 713 764 877 823 
821 9 481 630 148 356 634 311 550 548 787 
822 8 328 168 400 139 728 778 244 308 
823 9 700 783 194 15 877 656 566 44 219 
824 9 709 338 164 628 106 21 173 854 715 
825 9 197 388 640 464 561 163 67 683 859 
826 9 91 420 193 707 760 830 288 449 758 
827 9 209 7 808 869 780 800 714 176 428 
828 9 606 81 553 796 851 230 524 734 42 
829 9 200 263 501 725 344 318 306 97 195 
830 9 288 723 678 153 781 55 193 91 123 
831 8 522 61 368 584 257 231 769 615 
832 9 162 503 761 12 796 841 399 616 196 
833 9 6 431 24 697 859 175 660 197 57 
834 9 342 447 676 71 247 597 684 588 809 
835 9 404 84 311 548 109 287 95 634 688 
836 9 280 103 681 228 78 757 665 580 242 
837 8 465 646 472 619 603 31 189 285 
838 8 805 639 140 243 64 317 269 492 
839 8 801 559 629 622 302 258 550 148 
840 9 125 564 473 555 537 582 740 29 294 
841 9 616 796 503 761 832 162 560 851 12 
842 9 710 19 352 160 752 223 730 510 677 
843 6 412 157 747 686 378 67 
844 6 332 413 578 327 733 98 
845 9 72 260 273 47 510 730 277 352 467 
846 5 371 652 167 199 50 
847 9 170 364 586 507 704 23 320 455 204 
848 9 27 433 319 9 690 119 77 765 445 
849 9 773 74 648 435 517 521 693 167 199 
850 9 126 804 514 37 210 282 558 271 779 
851 9 298 606 560 796 76 841 202 828 314 
852 9 511 315 129 791 643 3 705 490 768 
853 9 680 14 54 277 512 208 754 127 255 
854 9 21 186 715 528 338 106 584 468 615 
855 6 396 116 259 607 488 618 
856 9 428 361 780 458 509 220 348 7 101 
857 8 594 218 862 276 879 819 131 585 
858 9 48 737 89 353 529 376 379 221 156 
859 9 482 6 197 561 833 330 336 431 825 
860 9 321 870 4 66 557 473 582 757 125 
861 9 56 205 532 682 351 92 764 53 702 
862 5 218 879 57 660 857 
863 7 348 255 458 208 361 176 7 
864 9 128 675 362 373 567 226 214 180 387 
865 8 323 290 372 540 669 22 190 694 
866 9 604 178 544 657 107 599 674 326 443 
867 9 289 576 518 160 752 102 254 498 439 
868 9 110 743 624 802 641 519 470 345 684 
869 9 808 714 209 691 509 827 780 39 428 
870 9 66 321 860 655 679 473 757 582 4 
871 9 85 409 252 608 69 664 183 34 225 
872 9 325 121 49 359 500 50 392 497 517 
873 9 726 86 437 137 797 262 286 63 270 
874 9 444 187 776 425 118 442 65 265 459 
875 9 419 435 154 207 521 661 766 812 199 
876 9 123 781 153 232 678 55 723 830 362 
877 9 656 777 15 566 783 823 549 700 820 
878 9 794 143 141 502 34 262 196 562 581 
879 6 57 862 660 218 388 857 
DEPOT_SECTION
   1
   -1
EOF
