NAME :  X-n957-kX-w382-c9.cctp
COMMENT : 	Adapted by Maziero, Usberti and Cavellucci from the Uchoa, Pecin, Pessoa, Poggi, Subramanian, and Vidal (2013)
TYPE :  CCTP
DIMENSION :    837
EDGE_WEIGHT_TYPE : 	EUC_2D	
CAPACITY : 	11
VERTICES_WITHIN_COVERAGE :  9
VERTICES_WITH_DEMAND : 	382
NODE_COORD_SECTION
1 737 450
2 235 789
3 340 234
4 346 320
5 406 309
6 556 636
7 872 923
8 937 83
9 9 321
10 558 18
11 63 833
12 250 509
13 143 192
14 624 286
15 364 117
16 332 953
17 235 142
18 590 430
19 303 692
20 936 665
21 39 410
22 247 581
23 986 739
24 11 283
25 138 747
26 837 511
27 596 206
28 218 339
29 443 922
30 555 133
31 896 306
32 415 752
33 691 216
34 51 0
35 726 19
36 166 333
37 951 932
38 928 807
39 505 590
40 236 284
41 115 882
42 238 887
43 729 26
44 94 697
45 409 899
46 993 715
47 473 607
48 414 55
49 884 327
50 651 407
51 891 372
52 570 733
53 919 529
54 629 220
55 711 630
56 141 492
57 720 382
58 794 51
59 745 451
60 409 990
61 825 781
62 966 938
63 378 175
64 859 269
65 596 131
66 419 557
67 77 908
68 679 268
69 726 860
70 382 728
71 885 15
72 258 313
73 734 905
74 533 912
75 924 636
76 694 621
77 469 223
78 507 707
79 892 168
80 281 800
81 607 285
82 388 354
83 568 781
84 22 348
85 153 579
86 218 236
87 308 904
88 119 154
89 939 105
90 489 374
91 547 736
92 480 1000
93 124 883
94 647 930
95 295 741
96 213 53
97 701 446
98 589 708
99 644 147
100 133 377
101 983 343
102 169 651
103 262 450
104 255 422
105 115 640
106 693 344
107 896 910
108 298 531
109 573 416
110 416 512
111 870 50
112 185 436
113 656 268
114 53 522
115 587 165
116 542 762
117 995 809
118 266 878
119 27 812
120 196 522
121 45 164
122 174 729
123 252 311
124 681 621
125 594 478
126 848 361
127 897 253
128 729 354
129 255 410
130 811 703
131 677 991
132 781 909
133 971 632
134 540 824
135 887 144
136 475 860
137 509 336
138 967 433
139 897 98
140 157 676
141 971 727
142 972 381
143 658 504
144 375 214
145 280 526
146 895 158
147 196 779
148 379 223
149 692 470
150 22 395
151 119 604
152 622 843
153 289 811
154 98 365
155 111 426
156 261 101
157 483 818
158 820 480
159 433 961
160 656 421
161 511 273
162 334 794
163 426 686
164 870 112
165 941 978
166 744 498
167 7 346
168 168 877
169 166 244
170 604 430
171 176 452
172 522 306
173 912 406
174 423 564
175 505 779
176 101 383
177 729 307
178 162 515
179 647 869
180 784 983
181 496 811
182 736 39
183 833 529
184 646 367
185 922 294
186 513 535
187 373 331
188 471 694
189 39 149
190 813 538
191 153 115
192 244 505
193 716 286
194 409 228
195 140 484
196 652 239
197 141 628
198 30 924
199 877 307
200 586 723
201 336 615
202 856 584
203 984 221
204 641 671
205 648 704
206 19 309
207 661 125
208 614 194
209 253 864
210 106 841
211 187 687
212 5 289
213 657 83
214 658 58
215 419 839
216 519 347
217 191 864
218 666 486
219 288 276
220 562 646
221 516 725
222 75 785
223 309 966
224 743 856
225 121 698
226 286 258
227 70 635
228 376 539
229 824 834
230 650 350
231 742 277
232 977 647
233 268 698
234 973 145
235 569 655
236 765 22
237 427 869
238 11 869
239 377 793
240 162 897
241 102 444
242 979 386
243 69 483
244 294 395
245 424 536
246 37 705
247 126 782
248 490 30
249 348 771
250 808 469
251 107 512
252 782 207
253 161 793
254 859 469
255 148 763
256 403 723
257 978 760
258 214 132
259 467 387
260 292 262
261 238 846
262 853 27
263 855 506
264 591 902
265 213 742
266 203 364
267 183 3
268 143 608
269 501 152
270 649 492
271 904 31
272 997 741
273 527 299
274 26 402
275 543 506
276 902 548
277 47 419
278 125 226
279 206 608
280 811 668
281 643 265
282 189 736
283 79 287
284 382 630
285 225 604
286 412 843
287 924 756
288 474 356
289 533 721
290 445 101
291 579 994
292 652 658
293 633 914
294 889 206
295 464 243
296 680 735
297 420 998
298 798 490
299 75 518
300 27 680
301 118 804
302 181 428
303 489 91
304 367 977
305 777 679
306 501 137
307 856 6
308 75 999
309 777 984
310 171 874
311 909 569
312 730 509
313 326 596
314 59 533
315 455 853
316 612 163
317 959 409
318 987 154
319 883 195
320 207 6
321 39 831
322 227 416
323 657 701
324 703 976
325 260 286
326 6 135
327 821 740
328 491 397
329 140 716
330 6 773
331 497 447
332 666 487
333 529 74
334 860 929
335 384 223
336 524 854
337 102 833
338 653 843
339 260 234
340 66 997
341 864 478
342 425 897
343 482 914
344 497 805
345 646 13
346 670 113
347 483 458
348 722 56
349 611 456
350 832 655
351 275 331
352 851 924
353 746 341
354 811 324
355 950 762
356 697 467
357 368 215
358 458 65
359 174 245
360 277 138
361 624 145
362 80 463
363 696 41
364 309 279
365 985 212
366 934 241
367 839 676
368 717 623
369 752 11
370 732 768
371 5 440
372 125 793
373 556 154
374 137 547
375 178 892
376 363 804
377 855 769
378 269 726
379 415 353
380 961 560
381 432 998
382 197 594
383 354 413
384 655 357
385 903 500
386 446 77
387 710 425
388 883 381
389 493 246
390 776 9
391 286 208
392 119 538
393 267 810
394 924 550
395 207 306
396 734 468
397 654 618
398 102 700
399 196 533
400 978 464
401 987 161
402 342 874
403 501 638
404 105 260
405 557 72
406 246 754
407 577 758
408 200 110
409 107 621
410 501 789
411 581 925
412 672 281
413 333 221
414 366 691
415 871 557
416 759 559
417 384 926
418 512 969
419 29 740
420 361 929
421 874 282
422 769 858
423 878 141
424 820 64
425 429 224
426 611 820
427 26 93
428 268 308
429 426 545
430 211 836
431 28 441
432 669 276
433 519 784
434 445 780
435 762 46
436 935 724
437 937 750
438 390 916
439 934 288
440 435 47
441 990 14
442 830 399
443 581 559
444 490 787
445 564 416
446 748 774
447 566 767
448 873 118
449 626 559
450 833 478
451 82 836
452 311 362
453 718 313
454 975 337
455 148 207
456 986 476
457 769 67
458 114 335
459 28 562
460 59 461
461 12 780
462 154 192
463 27 360
464 787 422
465 206 469
466 774 765
467 521 751
468 499 129
469 52 528
470 304 554
471 502 257
472 131 279
473 960 233
474 408 79
475 917 541
476 195 837
477 163 907
478 282 530
479 506 298
480 577 549
481 295 775
482 179 898
483 626 568
484 196 516
485 754 367
486 53 627
487 263 962
488 252 558
489 122 892
490 657 277
491 267 505
492 234 594
493 197 863
494 512 375
495 239 454
496 505 354
497 500 422
498 707 336
499 273 546
500 527 276
501 322 525
502 91 411
503 85 871
504 688 231
505 526 472
506 196 877
507 172 870
508 584 428
509 476 354
510 180 863
511 473 213
512 422 21
513 192 866
514 218 531
515 533 262
516 330 99
517 608 516
518 435 353
519 209 560
520 408 228
521 241 919
522 80 811
523 513 278
524 429 712
525 330 226
526 247 375
527 619 32
528 671 277
529 382 441
530 403 542
531 521 294
532 522 435
533 473 216
534 224 863
535 183 428
536 293 641
537 568 173
538 529 560
539 532 163
540 760 446
541 240 624
542 431 401
543 719 272
544 493 338
545 513 305
546 58 940
547 569 412
548 357 402
549 495 188
550 618 412
551 194 844
552 416 250
553 788 91
554 658 479
555 231 504
556 93 683
557 648 191
558 155 877
559 692 379
560 291 501
561 65 935
562 308 1000
563 655 499
564 750 582
565 488 236
566 505 403
567 566 428
568 68 979
569 199 868
570 177 583
571 246 760
572 233 820
573 450 497
574 369 620
575 98 932
576 164 880
577 378 219
578 183 868
579 528 489
580 228 852
581 381 89
582 355 930
583 458 212
584 228 583
585 481 409
586 550 450
587 516 526
588 250 804
589 209 808
590 275 671
591 170 388
592 514 280
593 692 415
594 405 186
595 494 319
596 527 341
597 514 583
598 208 584
599 625 472
600 280 735
601 368 535
602 3 597
603 74 556
604 492 190
605 644 366
606 125 280
607 512 487
608 491 334
609 306 641
610 516 417
611 728 321
612 163 510
613 325 804
614 634 395
615 497 506
616 277 608
617 354 927
618 582 278
619 264 442
620 292 250
621 102 989
622 113 287
623 93 921
624 501 576
625 252 987
626 670 319
627 500 304
628 479 583
629 74 907
630 88 945
631 139 808
632 540 167
633 619 292
634 678 278
635 410 380
636 447 579
637 214 521
638 596 421
639 711 456
640 333 359
641 668 356
642 225 531
643 320 932
644 566 207
645 238 331
646 344 596
647 544 305
648 316 530
649 666 352
650 671 214
651 508 266
652 389 596
653 408 282
654 198 849
655 439 346
656 186 797
657 407 355
658 184 615
659 642 467
660 226 880
661 252 556
662 192 502
663 637 316
664 494 209
665 362 596
666 123 748
667 405 524
668 604 519
669 578 394
670 290 691
671 16 824
672 664 191
673 482 371
674 508 82
675 478 725
676 521 464
677 115 585
678 461 356
679 630 209
680 499 288
681 503 407
682 643 278
683 670 494
684 215 911
685 270 798
686 554 399
687 212 485
688 481 272
689 84 435
690 608 283
691 474 478
692 613 272
693 275 474
694 549 526
695 229 882
696 253 521
697 63 939
698 622 245
699 656 232
700 277 581
701 253 812
702 171 909
703 454 558
704 176 526
705 397 522
706 660 200
707 574 213
708 319 535
709 688 407
710 470 141
711 475 401
712 131 896
713 606 292
714 623 382
715 509 413
716 168 834
717 626 343
718 300 624
719 178 795
720 321 965
721 437 899
722 470 151
723 343 576
724 265 545
725 643 266
726 242 679
727 592 292
728 553 284
729 398 315
730 356 814
731 333 236
732 508 179
733 460 532
734 267 520
735 618 473
736 237 292
737 564 407
738 477 269
739 480 478
740 0 879
741 568 415
742 520 320
743 644 280
744 299 943
745 282 495
746 642 304
747 410 533
748 699 373
749 320 373
750 266 512
751 451 452
752 661 386
753 155 908
754 504 387
755 329 539
756 583 527
757 198 544
758 387 439
759 599 274
760 554 410
761 649 140
762 715 73
763 664 345
764 214 857
765 270 955
766 182 583
767 70 547
768 751 545
769 325 263
770 587 472
771 331 307
772 159 909
773 386 644
774 621 387
775 656 400
776 120 907
777 260 910
778 467 416
779 632 287
780 292 527
781 473 358
782 44 941
783 323 246
784 683 364
785 289 536
786 156 911
787 183 553
788 514 281
789 293 971
790 171 190
791 146 893
792 244 521
793 340 856
794 516 521
795 596 289
796 366 504
797 391 390
798 602 631
799 453 376
800 448 189
801 530 131
802 509 482
803 340 432
804 242 924
805 186 848
806 658 496
807 452 224
808 401 652
809 145 832
810 254 592
811 477 236
812 150 541
813 224 670
814 125 870
815 649 282
816 204 917
817 280 550
818 594 407
819 501 372
820 634 289
821 608 220
822 618 428
823 532 276
824 47 856
825 300 609
826 348 569
827 351 637
828 708 471
829 448 523
830 320 640
831 451 379
832 294 497
833 616 295
834 249 810
835 299 505
836 550 289
837 347 720
DEMAND_SECTION
2 1
3 1
4 1
5 1
6 1
7 1
8 1
9 1
10 1
11 1
12 1
13 1
14 1
15 1
16 1
17 1
18 1
19 1
20 1
21 1
22 1
23 1
24 1
25 1
26 1
27 1
28 1
29 1
30 1
31 1
32 1
33 1
34 1
35 1
36 1
37 1
38 1
39 1
40 1
41 1
42 1
43 1
44 1
45 1
46 1
47 1
48 1
49 1
50 1
51 1
52 1
53 1
54 1
55 1
56 1
57 1
58 1
59 1
60 1
61 1
62 1
63 1
64 1
65 1
66 1
67 1
68 1
69 1
70 1
71 1
72 1
73 1
74 1
75 1
76 1
77 1
78 1
79 1
80 1
81 1
82 1
83 1
84 1
85 1
86 1
87 1
88 1
89 1
90 1
91 1
92 1
93 1
94 1
95 1
96 1
97 1
98 1
99 1
100 1
101 1
102 1
103 1
104 1
105 1
106 1
107 1
108 1
109 1
110 1
111 1
112 1
113 1
114 1
115 1
116 1
117 1
118 1
119 1
120 1
121 1
122 1
123 1
124 1
125 1
126 1
127 1
128 1
129 1
130 1
131 1
132 1
133 1
134 1
135 1
136 1
137 1
138 1
139 1
140 1
141 1
142 1
143 1
144 1
145 1
146 1
147 1
148 1
149 1
150 1
151 1
152 1
153 1
154 1
155 1
156 1
157 1
158 1
159 1
160 1
161 1
162 1
163 1
164 1
165 1
166 1
167 1
168 1
169 1
170 1
171 1
172 1
173 1
174 1
175 1
176 1
177 1
178 1
179 1
180 1
181 1
182 1
183 1
184 1
185 1
186 1
187 1
188 1
189 1
190 1
191 1
192 1
193 1
194 1
195 1
196 1
197 1
198 1
199 1
200 1
201 1
202 1
203 1
204 1
205 1
206 1
207 1
208 1
209 1
210 1
211 1
212 1
213 1
214 1
215 1
216 1
217 1
218 1
219 1
220 1
221 1
222 1
223 1
224 1
225 1
226 1
227 1
228 1
229 1
230 1
231 1
232 1
233 1
234 1
235 1
236 1
237 1
238 1
239 1
240 1
241 1
242 1
243 1
244 1
245 1
246 1
247 1
248 1
249 1
250 1
251 1
252 1
253 1
254 1
255 1
256 1
257 1
258 1
259 1
260 1
261 1
262 1
263 1
264 1
265 1
266 1
267 1
268 1
269 1
270 1
271 1
272 1
273 1
274 1
275 1
276 1
277 1
278 1
279 1
280 1
281 1
282 1
283 1
284 1
285 1
286 1
287 1
288 1
289 1
290 1
291 1
292 1
293 1
294 1
295 1
296 1
297 1
298 1
299 1
300 1
301 1
302 1
303 1
304 1
305 1
306 1
307 1
308 1
309 1
310 1
311 1
312 1
313 1
314 1
315 1
316 1
317 1
318 1
319 1
320 1
321 1
322 1
323 1
324 1
325 1
326 1
327 1
328 1
329 1
330 1
331 1
332 1
333 1
334 1
335 1
336 1
337 1
338 1
339 1
340 1
341 1
342 1
343 1
344 1
345 1
346 1
347 1
348 1
349 1
350 1
351 1
352 1
353 1
354 1
355 1
356 1
357 1
358 1
359 1
360 1
361 1
362 1
363 1
364 1
365 1
366 1
367 1
368 1
369 1
370 1
371 1
372 1
373 1
374 1
375 1
376 1
377 1
378 1
379 1
380 1
381 1
382 1
383 1
COVERAGE_SECTION
2 9 588 834 701 571 572 589 685 406 393 
3 9 731 525 413 783 769 357 144 148 577 
4 9 771 187 640 729 82 364 452 749 5 
5 8 729 653 187 379 657 82 655 518 
6 9 220 235 798 403 597 39 98 443 538 
7 9 334 352 107 37 165 132 62 229 180 
8 9 89 139 271 234 164 448 111 135 423 
9 9 206 167 84 212 24 463 150 283 274 
10 9 405 333 527 248 674 345 303 214 358 
11 9 451 321 522 824 337 119 210 503 671 
12 9 192 696 792 750 491 555 734 642 145 
13 9 462 455 790 278 88 169 359 191 404 
14 9 633 779 820 833 690 81 692 713 682 
15 9 581 516 474 63 48 594 290 360 386 
16 9 720 643 223 582 617 744 420 304 789 
17 9 258 360 408 156 790 391 191 96 339 
18 9 508 638 170 109 818 567 741 547 822 
19 9 670 590 233 378 600 95 609 536 837 
20 9 75 232 133 436 141 46 437 23 287 
21 9 277 274 150 431 371 463 689 502 460 
22 7 810 492 584 488 661 700 285 
23 9 272 141 257 46 355 437 436 287 117 
24 9 212 206 9 167 84 283 463 404 622 
25 9 666 255 329 247 122 372 253 225 282 
26 9 183 263 450 158 190 341 298 254 250 
27 6 821 208 707 644 679 54 
28 9 645 266 395 123 526 72 736 36 40 
29 9 721 342 159 343 45 438 237 417 136 
30 9 373 801 632 539 65 537 115 306 468 
31 9 199 49 185 421 439 64 127 51 126 
32 9 256 70 434 524 239 163 675 249 376 
33 9 504 650 706 672 699 196 557 68 679 
34 9 427 267 326 189 191 320 121 88 96 
35 9 43 182 369 348 363 236 435 390 762 
36 9 266 395 28 458 100 591 472 606 622 
37 9 62 165 107 7 334 352 38 117 229 
38 9 355 287 437 117 257 377 436 23 141 
39 9 597 624 628 47 538 403 186 636 703 
40 9 736 325 123 72 395 428 645 86 219 
41 7 93 489 814 712 776 503 791 
42 9 695 660 209 534 118 521 777 684 580 
43 9 35 182 369 348 236 363 435 762 390 
44 9 398 556 225 329 246 666 105 140 227 
45 9 342 438 721 237 417 29 286 420 215 
46 9 23 141 272 257 436 355 437 232 20 
47 9 628 39 636 403 624 597 703 174 538 
48 9 440 474 512 386 358 581 290 15 248 
49 9 199 31 51 421 126 185 388 64 439 
50 9 775 160 614 752 550 774 709 714 822 
51 9 388 173 126 49 31 199 442 317 142 
52 9 200 91 407 98 447 289 116 83 467 
53 9 475 394 276 385 311 380 415 263 341 
54 9 679 821 698 196 208 699 557 27 706 
55 9 368 76 124 397 564 292 204 305 416 
56 9 195 612 178 251 704 812 392 662 171 
57 9 748 559 128 485 709 784 593 387 106 
58 9 424 457 435 553 236 390 369 182 262 
59 9 540 396 639 828 97 387 166 356 464 
60 9 297 381 159 304 417 92 29 438 420 
61 9 377 327 229 466 446 130 370 422 287 
62 9 37 165 107 7 334 352 117 38 229 
63 9 594 144 357 577 148 335 15 194 520 
64 9 421 127 199 31 49 185 294 354 439 
65 9 361 115 316 30 373 537 99 761 207 
66 9 174 429 245 530 747 703 636 667 705 
67 9 629 623 561 575 697 546 503 630 776 
68 9 634 528 432 412 113 490 815 281 725 
69 9 224 422 73 132 338 179 446 370 229 
70 9 256 837 414 32 524 249 163 239 376 
71 9 271 307 262 111 424 139 8 58 164 
72 9 123 428 351 325 645 736 40 28 219 
73 9 69 132 224 422 324 309 94 180 179 
74 9 411 343 264 336 418 136 134 29 291 
75 9 20 133 232 311 380 202 394 436 276 
76 9 124 55 368 397 292 564 204 483 323 
77 9 533 511 811 583 807 295 565 664 389 
78 9 221 289 675 188 467 91 116 52 403 
79 9 146 135 319 423 294 448 164 139 89 
80 9 685 153 393 481 701 588 834 613 2 
81 9 690 713 795 833 633 692 759 14 727 
82 9 657 187 379 635 797 729 518 5 655 
83 9 447 407 116 52 433 91 134 467 426 
84 9 463 167 9 206 150 274 212 21 24 
85 9 570 766 268 374 677 812 787 151 382 
86 9 339 359 40 169 736 325 790 226 395 
87 9 643 744 402 777 118 617 582 16 793 
88 9 13 191 462 455 790 278 121 189 408 
89 9 8 139 234 135 448 146 164 318 423 
90 9 673 819 754 288 328 494 781 509 259 
91 9 289 52 116 467 221 447 407 200 78 
92 9 418 381 297 159 60 29 343 291 74 
93 7 41 489 814 712 776 791 558 
94 9 293 179 264 411 131 324 338 73 152 
95 9 600 378 481 19 670 233 406 571 837 
96 9 320 267 408 156 258 191 17 360 516 
97 9 639 356 387 149 828 593 396 709 59 
98 9 200 52 91 407 235 289 205 447 204 
99 9 761 361 207 316 346 557 672 65 706 
100 9 176 154 591 458 155 502 36 302 266 
101 9 454 142 242 317 439 185 138 31 173 
102 9 140 197 658 211 268 105 279 813 382 
103 8 619 495 693 104 129 322 745 491 
104 9 129 619 103 322 495 244 526 693 465 
105 9 409 197 151 268 227 556 102 140 677 
106 9 498 784 641 649 763 748 626 559 128 
107 9 7 334 352 37 62 165 229 38 132 
108 9 780 785 478 648 145 708 470 501 817 
109 9 741 547 445 737 567 508 760 18 669 
110 9 667 705 747 245 530 429 829 573 66 
111 9 262 71 271 307 424 139 164 448 8 
112 9 535 302 171 465 322 591 687 495 195 
113 9 490 281 725 432 682 815 528 743 412 
114 9 469 314 299 767 603 243 459 251 460 
115 9 537 316 373 65 208 27 361 30 632 
116 9 467 447 91 83 433 407 52 175 289 
117 9 257 355 38 272 23 437 141 287 46 
118 9 209 42 777 695 660 261 534 580 521 
119 9 671 321 461 11 330 824 522 222 238 
120 9 484 399 637 662 704 757 514 642 787 
121 9 189 326 427 88 278 13 455 404 462 
122 9 282 329 25 265 255 211 666 147 140 
123 9 72 428 645 736 325 351 40 28 395 
124 9 76 397 55 368 292 204 483 564 798 
125 9 770 735 349 599 517 668 18 170 659 
126 9 388 442 51 49 354 199 31 173 421 
127 9 421 366 64 185 294 439 31 199 319 
128 9 353 485 498 57 611 748 106 453 559 
129 9 104 322 619 526 103 244 495 693 266 
130 9 280 327 367 305 350 466 61 377 446 
131 9 324 94 293 291 309 73 180 411 264 
132 9 73 422 224 352 69 180 309 334 229 
133 9 232 75 20 380 46 311 141 394 436 
134 9 336 433 181 344 83 410 157 175 116 
135 9 423 146 79 448 164 139 319 294 89 
136 9 315 157 237 336 181 343 721 344 215 
137 7 216 544 496 608 596 742 595 
138 9 317 400 456 242 142 173 101 385 454 
139 9 164 448 8 89 135 423 111 146 271 
140 9 102 211 225 329 197 105 122 398 556 
141 9 23 46 272 257 436 355 437 287 20 
142 9 242 317 101 454 138 173 51 400 388 
143 9 563 806 270 683 332 218 554 659 599 
144 9 577 357 148 335 520 194 63 3 594 
145 9 478 780 785 734 108 750 499 724 817 
146 9 79 135 423 319 448 294 164 139 89 
147 9 656 719 589 253 2 265 282 255 571 
148 9 577 335 144 357 520 194 3 594 413 
149 9 356 828 639 97 218 332 683 554 396 
150 9 274 21 277 463 431 84 371 167 502 
151 9 677 409 268 197 105 85 227 374 570 
152 9 426 338 179 264 293 83 134 94 411 
153 9 80 393 685 481 701 613 588 834 162 
154 9 176 458 100 502 155 463 689 21 277 
155 9 241 502 689 176 362 100 154 460 277 
156 9 360 17 258 408 96 516 15 191 320 
157 9 181 344 444 410 136 175 315 433 434 
158 9 450 250 298 26 254 263 341 183 190 
159 9 381 60 297 29 417 92 438 721 342 
160 9 50 775 614 709 752 593 550 822 659 
161 9 523 592 651 788 500 471 680 823 531 
162 9 613 249 730 376 239 481 153 80 793 
163 9 524 808 256 188 773 414 70 675 32 
164 9 448 139 423 135 146 79 111 89 424 
165 9 37 62 107 7 334 352 180 309 38 
166 9 312 396 828 59 768 639 540 298 356 
167 9 84 463 9 206 150 212 274 24 21 
168 9 310 576 507 558 578 375 510 240 482 
169 9 359 455 278 472 86 462 790 606 13 
170 9 638 18 822 508 550 818 349 109 567 
171 9 112 302 535 465 195 687 662 56 612 
172 8 273 545 531 742 479 627 647 788 
173 9 388 51 317 138 142 242 126 254 442 
174 9 66 429 245 636 530 703 747 667 652 
175 9 410 433 444 344 467 181 116 157 221 
176 9 154 502 100 155 458 689 241 277 21 
177 9 453 611 193 231 498 543 353 128 106 
178 9 612 704 812 56 662 484 120 195 399 
179 9 338 152 293 94 426 264 69 411 73 
180 9 309 132 324 352 73 334 7 131 422 
181 9 344 157 410 444 175 433 134 336 136 
182 9 43 35 348 435 369 236 363 762 457 
183 9 26 190 263 415 158 450 298 202 341 
184 9 605 384 230 752 641 649 714 763 614 
185 9 439 31 199 127 421 49 366 64 454 
186 9 587 794 538 615 694 275 624 579 597 
187 9 82 4 729 5 657 379 771 640 653 
188 9 675 78 163 524 221 403 289 256 467 
189 9 121 326 427 88 13 278 191 455 462 
190 9 183 26 298 263 158 416 415 768 202 
191 9 408 88 258 462 790 13 17 96 455 
192 9 12 555 792 696 491 750 734 642 637 
193 9 543 177 453 231 611 634 68 412 528 
194 9 520 425 552 335 148 577 144 594 357 
195 9 56 612 178 251 171 241 662 704 392 
196 9 699 281 725 113 54 650 698 504 679 
197 9 268 105 151 409 102 658 85 677 140 
198 9 782 546 697 561 629 67 740 238 630 
199 9 31 49 421 64 185 127 439 126 51 
200 9 98 52 407 91 447 289 116 83 205 
201 9 313 646 827 830 665 574 825 718 609 
202 9 415 311 276 183 190 26 350 475 394 
203 9 365 473 366 401 318 234 439 127 185 
204 9 292 205 323 397 798 98 124 76 235 
205 9 323 204 296 292 98 200 52 397 798 
206 9 9 212 24 84 167 463 283 150 274 
207 9 346 761 99 213 361 316 65 672 214 
208 9 27 679 821 54 316 557 115 707 706 
209 9 118 261 42 580 534 695 660 764 777 
210 9 337 451 814 503 301 522 809 41 11 
211 9 140 102 813 122 282 329 726 265 225 
212 9 24 206 9 167 84 283 463 404 150 
213 9 214 346 207 363 761 762 527 99 348 
214 9 213 363 345 527 346 762 348 207 35 
215 9 286 237 315 342 136 45 239 721 434 
216 8 596 137 496 742 544 494 608 819 
217 9 513 493 569 578 510 506 654 805 507 
218 9 332 683 554 806 563 270 143 149 659 
219 9 260 226 364 620 325 428 769 783 72 
220 9 235 6 798 403 98 597 39 289 200 
221 9 289 78 467 91 675 116 52 175 188 
222 9 522 301 11 247 372 451 119 337 321 
223 9 720 789 744 16 562 643 765 487 582 
224 9 69 422 73 132 446 229 370 338 466 
225 9 398 329 44 556 140 666 25 105 122 
226 9 260 620 219 364 339 325 769 783 391 
227 9 486 409 105 556 151 300 44 677 197 
228 8 601 530 705 667 747 796 826 66 
229 9 61 422 377 224 466 132 327 352 446 
230 9 384 763 649 184 605 641 717 663 784 
231 9 543 193 177 453 611 68 353 634 498 
232 9 133 20 75 46 141 380 436 23 272 
233 9 670 378 590 726 19 600 95 813 406 
234 9 318 401 89 365 8 203 146 79 135 
235 9 220 6 798 98 200 403 204 289 52 
236 9 369 390 435 182 43 35 58 457 348 
237 9 342 286 215 315 721 45 136 29 438 
238 9 740 824 671 321 198 119 11 503 629 
239 9 376 730 249 162 613 32 286 215 70 
240 9 477 772 753 702 786 791 375 482 576 
241 9 155 689 362 502 460 243 195 277 176 
242 9 142 317 101 138 454 173 400 51 456 
243 9 362 460 299 114 251 469 689 241 314 
244 9 749 452 129 104 526 640 619 803 383 
245 9 429 747 66 530 667 110 829 174 705 
246 9 300 419 44 556 398 330 227 461 486 
247 9 372 301 255 631 666 25 253 222 809 
248 9 358 674 440 333 303 386 10 512 405 
249 9 162 239 376 613 730 837 481 70 95 
250 9 158 298 450 26 254 464 540 341 263 
251 9 392 299 56 195 374 243 767 314 812 
252 9 231 33 543 504 64 319 193 294 650 
253 9 719 656 631 255 372 247 147 716 809 
254 9 341 450 263 158 26 250 385 183 298 
255 9 25 247 666 253 372 122 719 631 329 
256 9 70 524 32 163 414 837 434 808 249 
257 9 23 272 355 141 437 46 117 287 436 
258 9 17 408 156 191 360 790 96 462 13 
259 9 711 799 831 673 90 328 585 778 781 
260 9 226 620 219 364 769 783 325 339 731 
261 9 580 534 209 572 764 430 660 695 701 
262 9 307 111 71 424 271 58 390 139 164 
263 9 26 341 183 450 254 158 385 190 415 
264 9 411 293 74 94 179 152 336 426 338 
265 9 282 406 571 122 147 2 378 211 656 
266 9 28 591 526 36 645 322 395 535 302 
267 9 320 96 408 191 156 34 258 17 88 
268 9 197 151 85 677 409 570 658 105 766 
269 9 306 468 732 722 539 710 549 801 604 
270 9 563 806 143 554 218 332 683 659 599 
271 9 71 111 262 307 8 139 89 164 441 
272 9 23 46 257 141 355 437 436 117 287 
273 9 531 172 545 647 479 742 788 500 592 
274 9 150 21 277 431 463 371 84 167 502 
275 9 694 579 794 587 607 505 186 802 756 
276 9 475 311 394 53 415 385 202 380 263 
277 9 21 274 431 150 689 460 502 371 362 
278 9 455 13 404 169 462 359 472 606 790 
279 9 382 285 658 598 492 584 766 541 570 
280 9 350 367 130 305 327 202 368 466 564 
281 9 725 113 682 743 490 815 779 820 14 
282 9 122 265 147 211 255 25 329 406 719 
283 9 622 404 606 472 458 206 24 212 278 
284 9 773 574 808 827 652 665 201 646 414 
285 9 492 279 584 541 598 382 810 22 658 
286 9 215 237 315 45 342 239 721 376 730 
287 9 437 355 436 38 257 141 23 377 272 
288 9 781 509 678 673 90 544 608 799 496 
289 9 221 91 78 467 52 116 200 675 98 
290 9 386 358 474 303 710 48 440 722 468 
291 9 411 418 94 264 74 293 131 92 324 
292 9 204 397 323 205 124 76 798 55 368 
293 9 94 264 179 411 152 338 131 324 291 
294 9 319 79 127 146 366 135 423 64 473 
295 9 811 77 807 565 533 389 738 511 583 
296 9 323 205 370 204 446 292 98 200 466 
297 9 381 60 159 304 92 29 417 438 420 
298 9 250 158 450 26 190 183 166 540 263 
299 9 114 314 469 767 251 243 603 392 362 
300 9 246 486 419 227 556 44 398 602 330 
301 9 372 631 247 337 210 522 809 253 222 
302 9 535 112 171 591 322 465 495 687 266 
303 9 674 468 358 333 290 386 306 710 801 
304 9 16 60 420 720 582 617 417 297 223 
305 9 280 130 350 367 327 55 368 466 446 
306 9 468 269 801 710 722 539 732 303 632 
307 9 262 71 111 271 424 58 390 236 139 
308 8 340 568 621 630 546 697 561 782 
309 9 180 324 132 73 352 131 334 7 422 
310 9 168 507 576 578 510 558 375 217 513 
311 9 276 394 475 415 53 380 202 75 385 
312 9 166 396 768 828 356 149 639 416 59 
313 8 646 201 723 825 826 665 718 830 
314 9 469 114 767 299 603 459 243 251 392 
315 9 136 237 215 286 157 721 342 181 344 
316 9 361 115 208 65 99 761 537 27 557 
317 9 138 242 142 173 400 101 456 454 51 
318 9 401 234 365 203 89 473 8 146 79 
319 9 294 79 146 135 423 127 366 64 448 
320 9 267 96 408 156 191 258 17 360 516 
321 9 119 11 671 824 451 522 238 222 461 
322 9 104 129 495 619 526 535 112 302 103 
323 9 205 204 296 292 98 200 397 124 76 
324 9 131 94 309 73 180 293 132 69 179 
325 9 428 40 736 123 72 219 226 260 351 
326 9 189 427 121 88 34 13 24 191 278 
327 9 130 61 377 466 367 280 305 446 350 
328 9 566 585 681 711 754 90 715 259 497 
329 9 225 25 122 666 398 140 255 44 282 
330 9 461 419 119 671 321 222 246 11 522 
331 9 347 497 532 676 739 610 715 802 505 
332 9 218 683 554 806 563 270 143 149 659 
333 9 674 405 303 801 248 10 468 30 306 
334 9 352 7 107 132 37 180 165 309 229 
335 9 148 577 144 357 194 520 552 594 3 
336 9 134 136 181 157 344 74 315 410 433 
337 9 210 451 522 301 11 503 809 814 631 
338 9 179 152 426 293 69 264 94 224 73 
339 9 226 620 391 86 260 219 325 40 736 
340 9 308 568 621 630 546 697 782 561 575 
341 9 254 263 450 26 158 385 250 183 298 
342 9 721 45 237 29 438 417 315 286 215 
343 9 29 721 74 136 342 418 315 159 237 
344 9 181 410 157 444 175 433 134 336 434 
345 9 527 214 363 213 35 43 348 10 762 
346 9 207 213 761 99 214 361 762 65 316 
347 9 331 739 691 751 802 676 497 607 505 
348 9 762 182 363 43 35 435 457 369 236 
349 9 735 599 170 125 770 822 18 659 638 
350 9 367 280 130 305 202 327 75 20 415 
351 9 428 72 123 645 325 452 526 736 219 
352 9 334 7 107 132 180 229 309 37 165 
353 9 128 485 611 177 498 453 57 106 748 
354 9 126 353 199 485 49 64 421 442 231 
355 9 437 287 257 141 436 23 38 272 46 
356 9 149 828 639 97 218 332 396 683 554 
357 9 144 577 148 335 3 413 525 63 731 
358 9 386 440 290 303 48 248 474 674 512 
359 9 169 86 455 278 472 790 462 606 13 
360 9 156 17 258 516 391 408 15 339 413 
361 9 99 316 761 65 115 207 208 557 346 
362 9 460 243 689 241 155 502 277 299 251 
363 9 348 43 35 762 182 214 213 345 369 
364 9 219 769 260 226 620 771 783 325 731 
365 9 203 473 401 318 366 234 439 294 127 
366 9 473 127 439 185 203 294 365 319 421 
367 9 350 280 130 305 327 75 202 377 20 
368 9 55 76 124 564 397 292 416 305 768 
369 9 236 390 35 43 182 435 348 58 457 
370 9 446 466 296 224 69 327 61 422 305 
371 9 431 274 21 277 150 460 243 362 689 
372 9 247 301 631 253 255 809 666 337 25 
373 9 30 632 537 539 115 801 65 644 732 
374 9 812 392 85 178 677 704 612 251 787 
375 9 482 240 168 576 702 310 477 506 507 
376 9 730 239 162 249 613 793 286 215 402 
377 9 61 327 287 229 130 466 38 437 436 
378 9 600 233 95 406 571 670 19 726 481 
379 9 657 518 655 82 635 729 797 799 831 
380 9 394 475 53 311 276 133 385 75 232 
381 9 297 60 159 92 304 29 418 417 438 
382 9 598 279 766 570 658 285 584 519 492 
383 7 548 803 529 758 797 749 640 
384 9 230 649 184 641 605 763 784 752 717 
385 9 53 475 341 263 276 254 394 415 26 
386 9 358 290 440 474 48 303 512 674 248 
387 9 593 97 709 639 57 59 356 828 149 
388 9 51 173 126 49 442 199 31 317 142 
389 7 565 471 811 651 738 295 688 
390 9 236 369 435 58 43 182 35 457 424 
391 9 339 620 525 413 226 783 260 731 3 
392 9 374 251 812 677 299 603 178 767 56 
393 9 685 701 80 588 834 153 572 2 481 
394 9 475 53 276 311 380 415 385 202 263 
395 9 736 28 40 645 123 36 72 325 266 
396 9 59 639 828 166 540 356 97 312 149 
397 9 124 76 292 798 204 483 55 368 449 
398 9 44 225 556 329 666 25 140 105 246 
399 9 120 757 484 704 514 637 787 642 519 
400 9 456 138 317 242 142 385 53 173 380 
401 9 318 234 365 203 89 473 146 8 79 
402 9 793 87 617 582 420 643 730 438 417 
403 9 47 39 6 597 628 220 624 188 78 
404 9 606 622 472 283 278 169 455 359 458 
405 9 333 674 10 30 801 65 303 527 248 
406 9 571 265 378 2 600 588 685 95 481 
407 9 447 83 52 116 200 91 98 467 289 
408 9 258 17 191 96 156 360 790 88 462 
409 9 105 151 197 677 268 227 486 85 556 
410 9 175 444 344 433 181 157 467 116 134 
411 9 264 74 293 94 291 418 179 336 152 
412 9 528 432 634 68 490 113 815 743 682 
413 9 525 3 731 783 357 144 769 577 148 
414 9 837 70 256 773 808 827 163 19 284 
415 9 202 276 311 183 475 263 394 53 26 
416 9 768 564 190 312 166 368 298 183 55 
417 9 438 420 582 617 45 342 304 16 29 
418 9 92 74 343 291 159 411 29 381 297 
419 9 246 330 461 300 222 119 44 398 671 
420 9 582 617 417 438 16 643 304 720 45 
421 9 64 199 31 127 49 185 439 366 354 
422 9 224 69 132 73 229 446 466 61 370 
423 9 135 146 448 79 164 139 319 294 89 
424 9 58 553 262 457 111 435 307 164 236 
425 9 194 520 807 552 583 77 295 800 335 
426 9 152 338 83 179 447 134 407 264 116 
427 9 326 189 121 34 88 191 13 462 278 
428 9 72 123 325 351 736 219 645 40 364 
429 9 245 66 174 747 530 667 703 829 110 
430 9 476 654 551 764 580 572 589 805 261 
431 9 371 277 21 460 274 150 362 689 243 
432 9 528 412 634 490 68 113 815 743 682 
433 9 175 410 444 344 116 467 181 134 83 
434 9 32 444 157 410 344 175 181 215 675 
435 9 457 236 182 58 369 43 390 348 35 
436 9 437 287 141 355 23 257 20 46 272 
437 9 287 355 436 141 257 23 38 272 46 
438 9 417 45 420 582 617 342 721 29 237 
439 9 185 31 366 127 199 421 473 49 454 
440 9 48 358 512 386 474 290 248 581 303 
441 9 8 271 89 71 111 139 234 307 262 
442 9 126 464 388 51 250 254 354 450 158 
443 9 480 756 449 483 668 694 517 538 275 
444 9 410 175 344 181 433 157 434 467 116 
445 9 741 547 109 737 567 760 686 508 669 
446 9 370 466 61 296 327 224 422 69 130 
447 9 83 407 116 52 91 200 467 433 289 
448 9 164 423 135 139 146 79 89 111 8 
449 9 483 443 668 517 480 756 143 397 563 
450 9 158 250 254 341 26 263 298 183 190 
451 9 11 337 210 522 503 824 321 301 222 
452 9 749 640 244 351 4 771 548 526 383 
453 9 177 611 498 193 106 353 543 128 231 
454 9 101 142 242 439 185 317 31 51 49 
455 9 13 462 790 278 169 359 88 404 472 
456 9 400 138 317 53 385 380 242 475 142 
457 9 435 58 553 182 236 348 424 762 43 
458 9 154 100 622 176 36 606 283 472 404 
459 9 314 469 602 767 603 114 299 486 227 
460 9 362 243 689 431 277 241 21 371 299 
461 9 330 119 419 671 321 222 11 522 246 
462 9 13 455 790 278 88 169 359 191 86 
463 9 84 167 150 274 9 21 206 277 154 
464 9 540 442 59 250 485 158 298 396 450 
465 9 687 171 495 662 112 555 535 302 484 
466 9 446 370 61 327 130 377 229 305 422 
467 9 116 221 91 175 289 433 410 78 444 
468 9 306 269 710 801 722 303 539 674 732 
469 9 114 314 299 767 603 459 243 251 460 
470 5 785 108 708 817 648 
471 7 651 389 161 523 565 592 688 
472 9 606 622 404 169 278 283 359 458 36 
473 9 203 366 365 439 127 185 294 401 318 
474 9 48 581 386 440 290 358 15 512 516 
475 9 394 53 276 311 385 380 415 263 202 
476 9 551 654 805 430 493 217 716 764 513 
477 8 772 702 753 786 240 482 375 791 
478 9 145 785 780 108 499 734 817 724 750 
479 7 627 545 680 531 172 788 592 
480 9 443 756 694 668 517 538 449 483 275 
481 9 80 95 685 153 613 162 600 393 571 
482 9 375 702 240 477 576 772 168 310 753 
483 9 449 443 480 668 517 397 756 798 143 
484 9 120 662 399 637 704 514 757 642 178 
485 9 353 128 57 611 748 498 559 464 106 
486 9 227 409 602 300 105 556 151 459 603 
487 6 765 625 789 744 804 223 
488 6 661 724 22 499 817 700 
489 6 93 712 41 776 814 791 
490 9 113 815 432 743 528 682 412 281 725 
491 9 750 734 12 745 696 192 560 145 792 
492 9 285 584 22 810 598 279 541 382 488 
493 9 569 217 513 506 654 578 510 764 551 
494 8 819 754 496 90 216 566 328 673 
495 9 103 619 104 465 322 687 693 129 192 
496 9 216 137 819 544 494 608 90 596 509 
497 9 715 681 610 566 585 331 532 328 711 
498 9 106 453 611 128 177 784 748 353 626 
499 6 724 817 478 785 145 661 
500 8 823 523 592 788 515 161 531 651 
501 6 648 708 755 108 780 835 
502 9 155 689 176 241 277 154 21 362 100 
503 9 41 451 210 67 629 814 93 824 337 
504 9 33 650 699 196 68 706 672 634 113 
505 9 676 579 802 607 586 532 275 331 347 
506 9 569 513 217 493 578 510 375 310 507 
507 9 310 168 510 578 576 558 217 513 375 
508 9 18 638 109 567 170 741 547 445 818 
509 9 288 781 678 673 544 90 608 496 819 
510 9 578 217 507 513 310 805 493 168 569 
511 9 533 77 583 664 811 807 565 604 295 
512 9 440 48 358 474 386 248 581 290 303 
513 9 217 493 569 578 506 510 654 805 507 
514 9 642 637 399 120 757 484 792 519 555 
515 3 823 500 161 
516 9 15 581 360 156 474 63 48 17 290 
517 9 668 756 125 735 480 449 599 270 770 
518 9 655 379 678 657 799 831 635 781 288 
519 9 757 598 787 399 514 584 642 766 382 
520 9 194 425 552 335 148 577 144 357 594 
521 6 804 777 684 42 816 695 
522 9 451 222 11 337 301 210 321 372 119 
523 9 592 788 161 651 500 680 531 823 479 
524 9 163 256 32 188 70 675 414 808 434 
525 9 413 731 3 783 769 357 620 144 391 
526 9 129 266 645 28 322 104 244 351 72 
527 9 345 214 10 213 405 363 346 333 65 
528 9 432 412 634 68 490 113 815 743 682 
529 4 758 383 803 548 
530 9 747 667 705 66 245 429 228 174 110 
531 9 273 172 545 788 479 592 523 500 823 
532 9 610 497 715 331 676 586 681 566 505 
533 9 511 77 583 811 664 807 565 295 604 
534 9 580 764 660 695 261 569 493 42 209 
535 9 302 112 171 591 322 465 495 687 266 
536 9 609 718 830 825 590 616 201 670 19 
537 7 115 373 632 644 539 707 30 
538 9 597 186 624 587 39 694 794 480 443 
539 9 632 373 732 801 269 537 30 306 549 
540 9 59 396 464 639 250 166 387 298 828 
541 9 285 492 810 279 616 584 22 813 598 
542 7 635 831 799 259 778 797 711 
543 9 193 231 177 68 453 634 412 528 432 
544 6 608 137 595 496 509 288 
545 7 172 479 627 531 273 742 680 
546 9 697 561 782 630 198 67 629 568 623 
547 9 741 109 445 737 760 567 669 686 508 
548 9 383 803 797 529 749 758 640 82 635 
549 6 604 732 664 511 269 533 
550 8 822 170 614 638 774 818 714 18 
551 9 654 476 805 430 493 217 513 510 764 
552 9 194 520 425 653 335 807 148 295 577 
553 9 457 58 424 435 236 182 348 762 390 
554 9 218 332 270 806 683 563 659 143 599 
555 9 192 12 792 637 687 642 696 514 491 
556 9 44 398 225 105 227 329 246 140 409 
557 9 706 672 679 650 208 54 699 99 316 
558 8 576 168 310 507 791 240 375 510 
559 9 748 784 57 709 752 641 106 593 649 
560 8 832 835 745 491 780 145 750 478 
561 9 697 546 782 630 629 67 623 575 198 
562 9 789 223 720 16 625 744 487 765 304 
563 9 806 143 270 332 683 218 554 659 599 
564 9 416 768 368 55 76 312 190 124 166 
565 8 389 811 77 295 471 533 511 664 
566 8 681 715 328 754 610 497 585 494 
567 9 445 741 109 547 508 737 760 18 586 
568 9 340 308 621 630 546 697 561 782 575 
569 9 493 513 217 506 578 654 764 510 805 
570 9 766 382 85 598 787 658 279 519 268 
571 9 406 2 265 378 600 588 685 834 481 
572 9 834 701 588 261 430 589 2 580 393 
573 9 829 691 733 739 110 751 245 615 347 
574 9 284 665 827 773 652 201 646 808 313 
575 6 623 630 67 561 776 629 
576 9 168 310 558 507 240 375 578 791 482 
577 9 148 144 335 357 520 194 3 594 63 
578 9 510 217 513 507 310 493 506 569 168 
579 9 607 505 802 275 676 794 615 587 694 
580 9 261 534 764 430 209 660 654 695 572 
581 9 474 15 48 516 290 386 440 512 358 
582 9 617 420 417 16 643 438 304 720 87 
583 9 807 511 77 533 800 425 811 295 664 
584 9 492 22 598 285 810 519 279 382 488 
585 9 711 328 778 681 497 566 259 715 754 
586 9 567 532 676 505 445 741 508 760 109 
587 9 794 186 615 694 275 538 579 607 802 
588 9 834 701 393 2 685 572 80 153 589 
589 9 656 572 430 2 147 476 719 551 834 
590 9 670 233 726 19 536 609 813 718 378 
591 9 100 266 302 535 112 36 171 322 28 
592 9 788 523 161 500 651 531 680 823 479 
593 9 709 387 97 160 559 775 50 752 57 
594 9 63 144 194 520 335 577 800 148 425 
595 6 608 627 544 137 479 545 
596 5 216 137 742 496 544 
597 9 39 624 538 628 47 186 403 587 794 
598 9 382 584 279 519 285 766 492 570 22 
599 9 735 659 349 270 125 554 770 563 806 
600 9 378 95 233 406 571 481 670 19 590 
601 8 228 796 705 530 667 755 826 747 
602 9 459 486 227 603 767 314 469 300 114 
603 9 767 314 469 299 114 459 392 677 251 
604 7 549 664 732 511 533 269 77 
605 9 184 384 230 641 649 714 752 717 763 
606 9 472 622 404 283 278 169 458 359 36 
607 9 802 579 505 615 676 739 794 275 587 
608 6 544 595 137 496 509 288 
609 9 536 830 718 825 201 590 616 827 313 
610 8 715 681 497 566 532 328 754 331 
611 9 453 177 498 353 128 193 106 231 543 
612 9 178 704 56 662 484 812 120 195 399 
613 9 162 730 153 376 249 481 80 239 793 
614 8 774 714 50 550 775 752 184 605 
615 9 607 794 802 587 186 739 579 691 505 
616 6 825 700 718 810 536 22 
617 9 582 420 417 16 643 438 720 87 304 
618 5 727 759 795 81 690 
619 8 103 104 495 129 693 322 244 745 
620 9 226 260 219 783 364 769 339 391 731 
621 4 308 568 340 630 
622 9 606 472 404 283 458 278 169 36 359 
623 7 575 67 629 630 776 561 697 
624 9 39 597 628 538 47 186 703 587 636 
625 5 487 765 789 562 223 
626 8 763 746 649 663 106 230 641 412 
627 7 479 545 595 680 172 531 742 
628 9 624 47 39 636 597 703 733 538 174 
629 9 67 623 561 697 575 546 503 630 782 
630 8 575 561 623 697 546 67 568 629 
631 9 301 372 809 253 247 716 719 337 255 
632 9 539 373 537 732 30 801 269 115 644 
633 9 833 14 713 81 690 779 820 692 795 
634 9 412 528 432 68 490 113 815 743 682 
635 7 797 657 379 542 82 518 831 
636 9 703 174 628 66 47 429 245 733 624 
637 9 514 642 120 484 399 555 757 662 792 
638 9 18 170 508 818 822 109 550 547 741 
639 9 97 828 356 149 396 387 59 593 540 
640 9 749 452 4 187 548 771 244 82 383 
641 9 649 763 384 784 230 184 605 106 752 
642 9 514 637 792 555 399 120 696 757 192 
643 9 16 744 87 720 617 582 223 420 789 
644 3 707 27 537 
645 9 28 123 72 351 428 736 395 526 40 
646 9 313 665 723 201 826 574 827 652 825 
647 5 836 273 172 728 531 
648 6 708 501 755 108 780 470 
649 9 641 763 384 230 784 184 605 106 626 
650 9 706 33 699 504 672 196 557 679 54 
651 8 161 471 523 592 788 500 680 389 
652 9 665 574 284 646 174 773 66 826 723 
653 6 5 552 729 194 520 187 
654 9 551 476 805 493 217 430 513 764 569 
655 9 518 678 379 657 799 831 288 781 509 
656 9 719 147 253 589 476 716 430 551 631 
657 9 379 82 635 518 655 797 729 187 5 
658 9 279 382 766 570 102 598 268 285 197 
659 9 599 554 735 270 218 332 349 806 563 
660 9 695 42 534 764 580 506 569 209 684 
661 6 488 724 499 22 817 696 
662 9 484 120 687 637 704 612 399 178 465 
663 8 746 820 717 779 633 833 14 626 
664 6 604 511 549 533 565 77 
665 9 646 574 652 723 826 201 313 284 827 
666 9 25 255 247 329 372 225 398 122 301 
667 9 705 747 110 530 245 429 228 66 601 
668 9 517 756 480 125 443 449 735 770 599 
669 7 737 547 818 109 741 686 445 
670 9 19 233 590 378 600 726 95 536 609 
671 9 119 321 461 238 824 11 330 740 522 
672 9 706 557 650 33 679 699 54 504 99 
673 9 90 781 288 509 819 259 678 754 328 
674 9 303 333 468 405 358 801 248 306 386 
675 9 188 78 221 467 524 289 175 444 434 
676 9 505 802 607 579 331 532 586 347 739 
677 9 151 268 409 85 374 392 197 603 105 
678 9 781 288 509 799 655 831 518 673 259 
679 9 54 208 557 821 706 27 699 196 698 
680 9 479 627 523 592 788 161 545 531 651 
681 9 566 715 497 328 610 754 585 711 494 
682 9 743 815 725 281 490 779 820 113 14 
683 9 332 218 806 143 563 554 270 149 356 
684 6 816 521 804 695 42 660 
685 9 80 393 588 701 153 834 481 2 572 
686 7 760 737 445 547 741 109 669 
687 9 465 662 555 484 637 192 120 495 12 
688 7 738 680 471 651 389 161 523 
689 9 241 502 155 362 460 277 243 21 176 
690 9 81 713 692 759 795 633 833 14 727 
691 9 739 347 573 751 802 615 331 607 676 
692 8 690 81 759 14 633 713 833 779 
693 8 745 103 832 560 491 619 750 835 
694 9 275 587 794 756 480 186 538 579 443 
695 9 660 42 534 764 209 580 684 506 569 
696 9 792 12 734 750 192 491 145 724 555 
697 9 561 546 782 630 67 629 623 198 575 
698 6 54 692 281 821 725 196 
699 9 196 650 54 504 706 281 679 113 698 
700 3 810 616 22 
701 9 834 588 393 572 685 2 80 153 261 
702 8 477 772 482 240 786 753 375 576 
703 9 636 733 429 174 66 628 829 245 624 
704 9 178 120 399 612 484 757 787 662 812 
705 9 667 747 110 530 228 245 601 796 429 
706 9 672 557 650 679 699 33 54 196 504 
707 2 644 27 
708 6 648 501 755 108 470 780 
709 9 593 387 559 775 752 160 748 50 57 
710 9 722 306 468 269 290 303 549 800 604 
711 9 585 259 328 778 681 90 566 673 754 
712 5 489 93 791 776 41 
713 9 81 690 795 833 633 727 14 759 692 
714 5 774 614 605 184 550 
715 8 610 681 566 497 328 532 754 585 
716 9 805 809 476 551 510 654 507 578 217 
717 3 230 605 663 
718 9 825 536 609 830 616 201 313 700 646 
719 9 656 253 147 589 716 631 255 476 809 
720 9 223 16 789 744 643 562 304 582 617 
721 9 342 29 45 237 343 315 438 136 417 
722 8 710 269 306 468 800 549 604 732 
723 8 826 646 313 665 201 755 470 601 
724 7 499 817 661 488 478 145 734 
725 9 281 682 113 743 815 490 779 820 14 
726 9 813 233 590 670 378 541 211 19 536 
727 8 795 713 81 618 690 759 833 633 
728 6 836 823 647 500 273 515 
729 9 5 187 653 82 657 379 655 4 518 
730 9 376 162 239 613 249 793 402 286 153 
731 9 3 525 783 413 769 357 620 144 148 
732 6 549 604 269 539 664 632 
733 9 829 703 245 429 573 615 66 110 174 
734 9 750 145 696 491 478 12 792 724 780 
735 9 599 349 125 659 770 270 554 517 170 
736 9 40 123 325 72 395 428 645 28 219 
737 9 547 445 741 760 109 686 669 567 508 
738 7 688 389 471 295 680 651 811 
739 9 691 347 802 607 615 331 573 751 676 
740 9 238 824 198 671 321 119 782 11 629 
741 9 547 445 109 737 567 760 508 686 669 
742 6 172 545 137 273 596 479 
743 9 682 815 490 820 725 779 281 113 14 
744 8 643 223 789 720 765 16 87 487 
745 8 560 832 491 835 693 750 734 145 
746 8 663 820 779 815 743 14 633 682 
747 9 667 530 245 705 429 110 66 174 228 
748 9 559 784 57 106 641 128 709 498 649 
749 9 452 640 244 548 383 4 351 803 771 
750 9 491 734 12 696 145 192 745 478 792 
751 6 347 691 739 778 573 331 
752 9 775 50 184 605 614 384 641 784 559 
753 6 786 772 477 240 702 791 
754 8 494 819 328 566 90 681 715 673 
755 6 708 501 648 470 108 826 
756 9 668 480 517 443 694 275 125 449 770 
757 9 399 787 519 120 514 484 637 704 642 
758 3 529 383 548 
759 7 690 81 692 795 618 713 727 
760 8 737 686 445 547 741 109 567 669 
761 9 99 207 361 346 316 557 672 65 213 
762 9 348 363 182 43 435 457 35 213 214 
763 9 649 641 230 384 626 784 184 106 605 
764 9 534 580 493 654 569 430 217 513 551 
765 7 487 789 744 625 223 804 521 
766 9 570 382 598 85 787 658 279 519 757 
767 9 603 314 469 299 114 459 392 251 677 
768 9 416 564 312 166 190 298 396 183 368 
769 9 783 364 731 3 260 620 525 219 226 
770 9 125 349 735 599 18 586 508 170 517 
771 9 4 364 769 187 640 219 452 260 351 
772 7 477 753 786 240 702 791 482 
773 9 284 808 574 827 652 414 665 163 201 
774 5 714 614 550 605 184 
775 9 50 752 160 614 709 184 605 774 714 
776 4 489 712 93 41 
777 7 521 804 42 118 695 660 684 
778 9 585 711 259 328 497 681 542 751 566 
779 9 820 14 633 682 743 815 833 746 690 
780 9 108 785 478 145 835 648 560 734 817 
781 9 288 509 678 673 90 799 544 259 608 
782 9 546 697 198 561 630 568 629 67 623 
783 9 731 769 3 525 413 620 260 364 226 
784 9 559 641 748 649 106 763 384 752 230 
785 8 478 780 108 145 817 499 470 724 
786 6 753 772 477 240 702 791 
787 9 757 399 519 704 766 570 120 812 484 
788 9 592 523 161 500 531 651 680 479 823 
789 8 223 765 720 744 487 562 16 625 
790 9 462 13 455 169 359 278 88 86 258 
791 8 712 240 753 558 772 786 477 576 
792 9 696 12 192 555 642 734 750 491 514 
793 9 402 730 613 376 87 162 153 617 239 
794 9 587 186 615 275 694 579 607 802 538 
795 9 727 713 81 690 759 618 833 633 692 
796 3 601 228 705 
797 7 635 82 548 657 542 379 383 
798 9 235 220 6 397 204 292 483 443 449 
799 9 831 259 678 781 288 518 673 509 542 
800 9 583 511 807 533 77 425 594 604 722 
801 9 30 306 468 539 373 269 632 732 674 
802 9 607 505 579 676 615 739 347 691 331 
803 4 383 548 529 758 
804 5 521 777 684 42 816 
805 9 551 654 476 510 217 493 513 578 716 
806 9 563 143 270 332 683 218 554 659 599 
807 9 583 77 295 533 425 511 811 800 565 
808 9 773 284 163 574 414 827 652 524 665 
809 9 716 631 301 210 253 337 814 372 805 
810 7 22 492 700 584 616 285 488 
811 9 565 77 295 389 533 511 807 583 664 
812 9 374 178 704 392 612 787 85 399 757 
813 9 726 211 541 590 233 102 279 285 140 
814 8 93 41 489 712 558 791 210 776 
815 9 743 682 490 113 725 820 281 779 432 
816 4 684 482 702 375 
817 5 499 724 785 478 145 
818 9 638 669 18 109 508 170 547 550 741 
819 9 494 90 754 496 673 328 216 288 509 
820 9 779 14 743 682 633 746 815 833 725 
821 6 27 54 679 208 698 707 
822 9 170 550 638 18 349 818 508 614 50 
823 7 500 515 592 523 788 161 531 
824 9 321 11 238 451 503 671 119 740 522 
825 8 718 616 313 536 609 201 700 830 
826 8 723 646 665 313 755 601 228 708 
827 9 574 201 830 284 773 646 665 609 313 
828 9 356 639 149 97 396 59 312 683 166 
829 9 733 573 245 429 110 703 747 667 66 
830 9 609 718 536 201 827 825 313 646 574 
831 9 799 259 678 542 781 518 673 288 711 
832 7 560 835 745 491 693 780 145 
833 9 633 713 14 81 690 779 820 795 692 
834 9 701 588 393 572 685 2 80 261 153 
835 7 560 832 745 780 108 145 478 
836 6 728 647 823 273 500 531 
837 9 414 70 249 19 95 256 670 600 32 
DEPOT_SECTION
   1
   -1
EOF
