NAME :  X-n936-kX-w93-c9.cctp
COMMENT : 	Adapted by Maziero, Usberti and Cavellucci from the Uchoa, Pecin, Pessoa, Poggi, Subramanian, and Vidal (2013)
TYPE :  CCTP
DIMENSION :    615
EDGE_WEIGHT_TYPE : 	EUC_2D	
CAPACITY : 	138
VERTICES_WITHIN_COVERAGE :  9
VERTICES_WITH_DEMAND : 	93
NODE_COORD_SECTION
1 500 500
2 971 544
3 564 976
4 266 4
5 395 95
6 316 877
7 963 89
8 496 96
9 274 493
10 516 598
11 338 849
12 58 395
13 923 411
14 670 912
15 576 101
16 902 552
17 888 709
18 703 539
19 10 341
20 55 984
21 420 132
22 870 218
23 933 196
24 123 372
25 973 824
26 253 201
27 84 941
28 792 164
29 702 811
30 263 756
31 161 986
32 322 75
33 969 514
34 140 665
35 313 386
36 53 583
37 836 244
38 450 730
39 642 334
40 907 431
41 570 705
42 587 264
43 703 666
44 877 132
45 138 487
46 275 598
47 2 354
48 538 460
49 716 573
50 65 579
51 505 17
52 544 958
53 175 838
54 838 67
55 122 410
56 126 430
57 598 544
58 299 442
59 224 930
60 593 453
61 764 848
62 485 95
63 130 114
64 832 863
65 659 293
66 259 936
67 615 141
68 808 263
69 970 317
70 815 888
71 405 330
72 64 525
73 588 746
74 170 392
75 681 640
76 223 283
77 109 297
78 675 904
79 576 171
80 484 439
81 329 79
82 504 393
83 676 664
84 124 658
85 749 89
86 162 848
87 521 0
88 1 873
89 72 718
90 983 770
91 104 702
92 47 781
93 706 244
94 626 678
95 259 339
96 45 562
97 502 327
98 524 21
99 348 100
100 84 93
101 118 76
102 990 739
103 980 477
104 267 231
105 45 336
106 390 140
107 93 808
108 554 435
109 973 506
110 778 252
111 935 755
112 20 901
113 874 686
114 212 933
115 313 230
116 620 990
117 876 34
118 481 60
119 158 494
120 304 611
121 606 344
122 557 242
123 881 199
124 942 308
125 567 429
126 80 592
127 917 557
128 661 630
129 969 401
130 820 144
131 24 571
132 693 323
133 487 344
134 497 48
135 803 6
136 933 729
137 50 642
138 679 303
139 775 271
140 358 1
141 87 466
142 678 210
143 310 98
144 60 386
145 211 11
146 27 576
147 239 512
148 480 11
149 590 578
150 288 823
151 164 489
152 900 201
153 632 524
154 738 109
155 893 40
156 212 305
157 323 70
158 363 67
159 9 393
160 128 947
161 216 578
162 221 479
163 94 951
164 14 611
165 271 437
166 33 583
167 899 242
168 773 188
169 860 280
170 149 839
171 773 271
172 863 14
173 216 323
174 808 127
175 529 712
176 538 620
177 332 451
178 607 153
179 434 192
180 138 825
181 627 320
182 883 457
183 383 339
184 924 152
185 340 43
186 679 316
187 11 913
188 867 257
189 728 74
190 698 23
191 898 404
192 786 605
193 745 715
194 69 902
195 660 810
196 521 591
197 713 540
198 354 109
199 596 71
200 280 435
201 494 590
202 834 195
203 997 212
204 702 13
205 175 81
206 125 900
207 852 555
208 84 429
209 982 249
210 611 223
211 731 863
212 40 563
213 661 662
214 678 775
215 415 366
216 134 657
217 542 714
218 154 654
219 960 5
220 935 115
221 621 926
222 554 225
223 976 124
224 892 594
225 605 401
226 963 118
227 499 330
228 296 46
229 623 94
230 14 439
231 195 838
232 718 784
233 409 746
234 762 832
235 753 35
236 202 846
237 916 395
238 830 95
239 24 750
240 976 279
241 343 344
242 409 702
243 301 254
244 578 746
245 259 335
246 571 676
247 744 582
248 64 936
249 248 717
250 531 123
251 176 708
252 479 758
253 82 818
254 922 369
255 684 955
256 942 265
257 536 97
258 491 117
259 949 12
260 80 279
261 715 860
262 463 711
263 196 283
264 728 198
265 577 759
266 251 30
267 746 628
268 334 850
269 308 324
270 969 149
271 610 463
272 922 681
273 439 747
274 13 834
275 946 578
276 491 438
277 893 830
278 558 441
279 517 36
280 643 965
281 120 476
282 787 273
283 849 702
284 340 19
285 607 304
286 603 139
287 55 419
288 928 789
289 108 249
290 971 558
291 983 839
292 726 276
293 0 885
294 132 804
295 680 566
296 90 614
297 69 317
298 666 531
299 638 898
300 319 639
301 358 855
302 345 118
303 501 939
304 809 837
305 184 431
306 577 166
307 249 631
308 37 855
309 225 839
310 257 910
311 163 960
312 336 595
313 591 477
314 638 385
315 801 917
316 980 748
317 629 565
318 518 59
319 171 816
320 386 852
321 527 405
322 520 113
323 959 231
324 927 484
325 638 118
326 535 683
327 30 800
328 496 80
329 243 194
330 630 363
331 845 547
332 162 843
333 50 364
334 555 775
335 171 505
336 869 873
337 15 809
338 597 797
339 795 196
340 682 724
341 569 427
342 651 692
343 560 666
344 157 438
345 824 134
346 850 450
347 769 561
348 229 200
349 806 122
350 711 514
351 173 688
352 548 987
353 961 861
354 634 81
355 876 764
356 536 102
357 133 535
358 784 861
359 602 148
360 134 487
361 821 842
362 512 487
363 38 639
364 8 577
365 278 643
366 79 371
367 126 655
368 74 924
369 350 839
370 9 780
371 66 944
372 74 990
373 707 856
374 447 745
375 254 702
376 820 679
377 873 665
378 101 533
379 456 728
380 806 226
381 771 559
382 24 828
383 761 118
384 263 505
385 3 602
386 480 109
387 269 982
388 134 993
389 905 394
390 234 264
391 620 156
392 44 855
393 718 798
394 64 437
395 760 816
396 87 637
397 834 898
398 599 142
399 76 267
400 648 838
401 170 474
402 847 75
403 991 131
404 987 776
405 638 775
406 684 597
407 329 406
408 293 468
409 875 548
410 549 509
411 357 841
412 191 919
413 292 100
414 381 271
415 133 135
416 467 749
417 549 358
418 228 411
419 412 751
420 982 733
421 860 42
422 78 903
423 122 157
424 527 51
425 966 7
426 648 970
427 669 263
428 334 63
429 665 637
430 632 101
431 772 217
432 807 906
433 251 470
434 484 123
435 98 682
436 959 30
437 262 911
438 871 459
439 334 535
440 348 353
441 946 531
442 291 752
443 938 361
444 85 112
445 874 752
446 566 966
447 558 532
448 228 473
449 177 434
450 937 557
451 170 92
452 689 524
453 617 651
454 609 240
455 773 84
456 857 102
457 13 695
458 905 706
459 555 993
460 112 144
461 826 813
462 277 759
463 286 363
464 189 724
465 517 641
466 39 562
467 722 245
468 100 949
469 98 751
470 508 959
471 247 144
472 101 476
473 46 938
474 693 941
475 220 235
476 868 188
477 631 311
478 773 569
479 572 581
480 938 403
481 317 863
482 967 345
483 923 234
484 609 241
485 13 883
486 155 385
487 463 764
488 698 572
489 694 529
490 893 883
491 608 537
492 876 170
493 293 93
494 620 941
495 217 857
496 971 225
497 607 215
498 566 671
499 68 960
500 569 563
501 819 29
502 91 351
503 486 578
504 637 370
505 743 89
506 93 635
507 738 183
508 78 389
509 404 706
510 537 567
511 81 414
512 721 77
513 512 627
514 448 179
515 334 10
516 725 542
517 663 226
518 867 142
519 485 465
520 913 100
521 880 698
522 485 582
523 336 126
524 205 23
525 77 83
526 498 141
527 990 797
528 261 397
529 706 222
530 136 687
531 92 894
532 878 112
533 744 525
534 10 324
535 781 904
536 995 534
537 915 464
538 679 632
539 338 854
540 400 176
541 536 577
542 535 103
543 94 338
544 711 300
545 367 345
546 215 838
547 538 736
548 546 974
549 639 364
550 888 908
551 12 388
552 624 519
553 965 418
554 130 464
555 985 43
556 445 191
557 36 437
558 449 675
559 980 804
560 901 710
561 582 253
562 813 96
563 295 739
564 888 766
565 699 715
566 990 890
567 274 884
568 677 618
569 270 576
570 812 834
571 13 418
572 309 509
573 788 858
574 580 301
575 712 540
576 48 732
577 490 483
578 636 970
579 30 346
580 841 214
581 962 807
582 990 333
583 149 678
584 373 62
585 543 908
586 988 913
587 575 465
588 600 467
589 989 243
590 40 530
591 643 379
592 884 415
593 466 117
594 547 294
595 380 304
596 299 858
597 730 158
598 674 908
599 309 487
600 739 812
601 546 173
602 293 376
603 670 846
604 87 244
605 559 950
606 716 790
607 842 77
608 277 644
609 450 327
610 179 362
611 824 185
612 683 106
613 661 205
614 888 583
615 208 385
DEMAND_SECTION
2 88
3 98
4 94
5 89
6 83
7 65
8 85
9 66
10 89
11 80
12 58
13 54
14 75
15 60
16 77
17 69
18 79
19 99
20 86
21 63
22 84
23 92
24 87
25 54
26 93
27 58
28 62
29 98
30 50
31 71
32 55
33 61
34 76
35 76
36 88
37 51
38 78
39 71
40 90
41 90
42 87
43 80
44 74
45 83
46 79
47 77
48 58
49 53
50 99
51 62
52 95
53 61
54 84
55 86
56 91
57 79
58 93
59 76
60 88
61 68
62 80
63 59
64 82
65 53
66 67
67 90
68 51
69 99
70 72
71 70
72 85
73 80
74 80
75 81
76 100
77 60
78 74
79 52
80 70
81 70
82 53
83 92
84 55
85 73
86 63
87 55
88 68
89 100
90 69
91 77
92 55
93 68
94 81
COVERAGE_SECTION
2 9 290 536 441 33 450 109 275 127 103 
3 8 446 548 352 459 605 52 116 470 
4 6 266 228 145 524 515 284 
5 9 584 158 198 21 106 99 302 523 81 
6 9 481 596 268 539 11 567 301 369 411 
7 9 226 223 220 403 520 555 436 270 184 
8 9 62 328 386 258 322 434 593 118 257 
9 9 384 408 433 599 572 147 448 162 165 
10 9 196 201 513 541 176 522 503 510 465 
11 9 268 539 369 301 411 481 6 596 320 
12 9 144 508 287 511 333 366 394 208 551 
13 9 237 480 389 40 191 592 254 553 129 
14 9 598 78 299 474 255 221 494 280 426 
15 9 199 257 356 542 286 398 229 250 359 
16 9 127 409 614 450 224 441 207 275 331 
17 8 560 521 458 113 283 272 445 377 
18 9 575 197 489 452 516 350 488 295 49 
19 7 47 534 579 105 333 551 159 
20 9 372 499 371 473 248 163 27 468 368 
21 9 106 5 540 593 514 179 386 556 434 
22 9 123 580 476 152 167 188 37 202 492 
23 9 152 483 323 184 496 123 167 270 492 
24 9 486 55 502 366 543 508 74 610 56 
25 9 291 581 559 527 353 404 90 288 566 
26 7 329 348 104 475 471 390 115 
27 9 163 371 468 368 248 499 422 473 194 
28 8 168 339 130 611 174 345 349 202 
29 9 393 606 232 600 195 214 373 603 261 
30 6 462 442 563 249 375 150 
31 9 311 388 160 468 412 114 163 59 372 
32 9 157 81 428 143 493 99 185 228 413 
33 9 109 441 2 536 103 290 324 450 127 
34 9 216 583 84 367 218 530 351 435 91 
35 7 602 407 463 440 241 528 58 
36 9 50 166 96 212 466 146 126 131 364 
37 9 580 68 188 380 22 169 202 282 110 
38 9 379 374 273 262 416 487 252 419 233 
39 9 181 477 549 330 504 121 186 65 591 
40 9 13 191 592 537 182 237 389 480 438 
41 9 217 246 498 343 326 175 244 73 547 
42 9 561 484 454 122 574 285 210 594 222 
43 9 83 75 213 538 429 565 128 568 267 
44 8 518 532 456 492 520 184 345 476 
45 9 360 119 281 554 151 401 335 472 357 
46 7 569 120 307 365 608 300 312 
47 8 19 579 534 551 159 105 333 571 
48 9 278 108 362 587 125 341 410 276 519 
49 9 488 247 516 197 575 18 295 406 489 
50 9 36 126 96 212 466 166 146 131 296 
51 9 98 279 87 148 134 424 318 118 328 
52 9 548 605 446 3 352 470 459 303 585 
53 9 332 86 231 319 170 236 180 546 495 
54 8 607 402 238 421 562 456 501 117 
55 9 56 24 486 511 208 344 508 74 554 
56 9 55 344 554 208 281 511 449 472 141 
57 7 491 149 500 552 317 153 447 
58 9 200 408 165 177 599 407 433 9 35 
59 9 114 412 66 310 437 311 567 387 495 
60 8 588 271 587 313 125 341 278 108 
61 9 234 358 573 395 211 600 304 261 570 
62 9 8 386 328 258 434 593 118 322 526 
63 8 415 460 101 423 444 451 100 205 
64 9 361 70 304 397 570 336 573 358 432 
65 9 138 186 427 477 181 39 132 544 285 
66 7 437 310 59 114 387 567 412 
67 9 286 178 359 391 398 325 430 306 229 
68 6 282 110 37 139 171 380 
69 9 582 482 124 240 443 256 209 254 589 
70 8 432 397 64 315 535 573 358 361 
71 8 183 595 215 545 609 440 241 414 
72 9 590 378 96 212 466 50 36 131 472 
73 8 244 265 334 41 547 338 217 405 
74 9 486 610 615 305 449 344 24 55 56 
75 8 538 429 128 568 83 213 43 406 
76 5 390 156 263 173 475 
77 7 260 543 297 399 289 502 604 
78 8 598 14 299 474 255 221 373 603 
79 9 306 601 359 178 398 286 391 67 497 
80 7 276 519 577 82 321 362 48 
81 9 32 157 428 143 99 158 185 198 493 
82 9 321 276 80 133 417 227 108 97 278 
83 9 213 75 43 429 538 128 342 568 94 
84 9 367 216 34 218 530 583 435 506 396 
85 8 505 154 455 189 512 383 235 562 
86 9 332 53 170 180 319 231 236 294 546 
87 9 98 51 279 148 424 134 318 118 328 
88 8 293 485 112 308 187 274 392 382 
89 9 576 91 469 435 239 457 92 530 84 
90 8 404 316 527 102 559 420 581 111 
91 9 435 530 89 84 469 583 34 367 216 
92 8 327 370 239 337 576 253 382 107 
93 9 467 529 292 427 142 517 264 544 613 
94 8 453 342 213 83 246 429 128 498 
95 9 245 463 173 602 269 156 528 76 615 
96 9 212 466 36 131 146 166 50 590 364 
97 6 227 133 609 417 594 82 
98 9 279 51 87 424 134 318 148 118 328 
99 9 198 302 81 523 32 158 143 157 428 
100 5 525 444 101 63 460 
101 7 100 63 525 444 451 205 415 
102 6 420 316 90 404 111 136 
103 9 109 33 324 536 553 441 537 2 129 
104 8 26 243 329 115 390 475 348 76 
105 6 579 333 297 19 534 47 
106 9 21 540 5 198 302 523 99 179 514 
107 6 253 294 180 92 469 170 
108 9 278 125 341 48 587 321 60 313 588 
109 9 33 103 536 441 2 324 290 450 537 
110 6 139 171 282 68 431 380 
111 7 136 288 316 564 90 420 404 
112 8 187 485 293 88 473 194 308 392 
113 7 521 377 17 283 560 458 272 
114 9 59 412 66 310 437 311 31 387 495 
115 4 243 104 26 329 
116 8 578 280 426 494 3 446 221 459 
117 8 155 421 172 54 402 607 501 456 
118 9 134 328 62 318 8 279 424 51 148 
119 9 151 335 45 401 360 554 281 357 344 
120 6 46 300 312 365 608 569 
121 7 330 181 39 549 285 504 477 
122 5 222 561 42 454 484 
123 9 476 152 22 492 580 167 202 23 483 
124 7 69 256 240 482 443 582 254 
125 9 341 108 278 60 587 48 225 321 588 
126 9 50 296 36 506 96 396 166 212 466 
127 9 16 450 275 441 614 409 224 290 2 
128 7 429 538 568 75 213 83 406 
129 9 553 480 13 443 237 482 254 389 40 
130 7 345 174 349 28 611 518 562 
131 9 146 166 364 466 212 96 36 385 164 
132 6 186 138 544 65 39 292 
133 7 227 97 609 82 417 321 215 
134 9 118 279 318 424 51 328 98 148 8 
135 9 501 235 172 421 54 117 607 402 455 
136 4 111 458 560 17 
137 8 363 396 506 164 296 126 36 166 
138 7 186 65 132 544 427 39 477 
139 4 171 282 110 68 
140 9 284 515 185 584 158 428 157 228 32 
141 8 472 281 208 394 554 360 511 56 
142 7 613 517 529 93 264 427 467 
143 6 413 493 32 81 157 99 
144 9 12 508 333 366 287 511 502 551 208 
145 4 524 266 4 205 
146 9 131 166 212 466 364 96 36 385 164 
147 9 384 162 9 448 433 335 161 408 572 
148 9 51 134 87 98 279 118 318 424 328 
149 5 479 500 57 317 491 
150 9 596 481 268 11 539 6 567 369 309 
151 9 119 401 335 45 360 554 281 344 357 
152 9 123 23 22 476 492 483 167 184 580 
153 4 552 491 298 57 
154 8 505 85 383 189 512 455 597 612 
155 8 117 421 172 402 54 259 520 607 
156 7 173 76 263 390 245 95 610 
157 9 32 81 428 143 185 228 493 99 158 
158 9 584 428 185 81 99 157 32 5 198 
159 9 551 571 47 230 12 333 144 579 19 
160 9 468 163 311 27 388 206 31 368 499 
161 2 569 46 
162 7 448 433 147 384 401 9 335 
163 9 468 27 499 371 160 248 368 372 473 
164 8 385 166 364 146 363 131 36 137 
165 8 200 58 408 433 528 418 9 448 
166 9 146 131 36 212 466 96 364 50 164 
167 9 483 188 22 152 123 256 169 23 323 
168 9 339 431 28 507 264 380 611 597 202 
169 5 188 37 167 68 22 
170 8 332 86 180 53 319 294 231 236 
171 4 139 282 110 68 
172 8 117 421 155 501 54 135 402 607 
173 8 156 76 245 263 95 610 390 615 
174 7 349 345 130 562 238 28 383 
175 9 217 547 326 41 246 343 498 244 262 
176 7 513 465 10 196 541 343 479 
177 4 58 408 599 407 
178 9 359 391 67 398 286 306 79 325 430 
179 5 556 514 540 21 106 
180 7 170 294 332 86 319 53 107 
181 9 477 39 285 121 65 330 549 504 574 
182 8 438 537 346 40 592 324 191 13 
183 6 545 71 595 440 241 215 
184 9 220 23 270 44 492 226 520 152 518 
185 9 428 284 157 158 515 32 81 584 228 
186 7 138 132 65 544 39 477 181 
187 8 112 293 485 88 473 248 194 371 
188 6 169 37 167 22 580 68 
189 9 512 505 85 154 235 455 383 612 190 
190 6 204 235 189 512 505 85 
191 7 389 592 237 13 40 480 254 
192 6 478 267 347 247 381 49 
193 5 565 340 43 232 606 
194 7 422 368 531 248 27 371 473 
195 8 400 603 214 405 29 393 606 232 
196 8 10 541 201 510 176 503 513 522 
197 8 575 18 516 489 350 452 49 533 
198 7 99 302 523 81 5 158 143 
199 5 229 15 354 430 325 
200 9 165 58 408 528 433 177 407 418 9 
201 7 522 503 10 196 513 541 510 
202 9 611 580 476 339 380 22 123 37 492 
203 9 496 589 209 323 23 270 240 256 483 
204 6 190 235 189 512 505 85 
205 3 451 63 101 
206 8 531 160 422 468 194 368 27 163 
207 5 331 409 614 16 224 
208 9 511 394 287 141 508 55 56 12 144 
209 9 589 496 323 240 203 256 483 69 124 
210 7 497 454 484 561 42 517 613 
211 7 261 373 61 234 600 358 395 
212 9 466 96 131 146 166 36 50 590 364 
213 9 83 429 75 128 342 538 94 43 453 
214 9 195 405 232 606 29 393 340 565 400 
215 5 71 183 545 609 440 
216 9 367 34 84 218 583 530 435 506 351 
217 9 175 547 41 326 244 246 498 343 73 
218 8 34 216 583 367 84 530 351 251 
219 8 425 259 436 555 155 7 117 172 
220 9 520 226 7 184 223 270 532 403 44 
221 9 494 299 280 578 14 426 598 78 116 
222 4 122 561 42 601 
223 9 226 403 270 7 220 184 520 555 23 
224 6 614 16 127 409 207 275 
225 8 314 341 591 330 504 125 549 60 
226 9 223 220 7 403 270 184 520 555 23 
227 6 97 133 609 417 594 82 
228 9 157 32 428 185 81 493 266 4 284 
229 9 430 354 325 199 15 67 286 398 359 
230 7 571 557 159 287 394 551 12 
231 9 236 53 546 495 309 319 332 86 170 
232 8 606 393 29 600 214 395 195 234 
233 6 419 273 374 509 38 242 
234 8 61 395 600 358 573 211 304 570 
235 9 189 455 512 85 505 190 204 135 501 
236 9 231 546 495 309 53 86 332 319 170 
237 8 389 13 191 480 254 40 592 443 
238 7 562 607 402 456 54 349 174 
239 9 576 370 92 327 457 89 337 469 382 
240 9 209 256 69 589 124 323 496 582 482 
241 7 440 545 183 269 35 595 602 
242 5 509 233 558 419 38 
243 6 115 104 390 269 26 414 
244 8 73 265 334 547 41 217 338 175 
245 9 95 463 173 269 602 156 528 76 615 
246 9 498 343 41 326 217 453 94 175 465 
247 9 49 478 347 381 516 267 488 192 197 
248 9 371 368 473 27 499 163 194 422 468 
249 6 375 30 462 563 442 464 
250 8 322 542 356 257 526 258 8 434 
251 8 351 464 583 530 34 218 216 84 
252 8 416 487 374 379 38 273 262 547 
253 6 107 92 294 392 327 180 
254 7 443 237 389 480 13 191 482 
255 5 474 426 280 14 598 
256 9 483 240 323 124 209 167 496 589 69 
257 9 356 542 322 250 8 15 318 328 424 
258 8 434 386 8 62 526 593 322 328 
259 8 219 425 436 555 155 117 7 172 
260 5 399 77 604 297 289 
261 8 373 211 603 61 29 600 234 78 
262 9 379 38 374 416 558 273 252 487 242 
263 4 76 156 390 173 
264 9 507 529 597 168 467 431 93 142 339 
265 7 244 73 334 338 547 41 217 
266 4 4 145 524 228 
267 8 192 247 43 49 478 75 538 406 
268 9 11 539 369 481 301 411 6 596 320 
269 8 241 463 440 245 95 602 35 545 
270 9 223 403 226 184 220 23 7 203 520 
271 6 588 60 313 587 125 341 
272 3 458 560 17 
273 8 374 38 379 419 416 487 233 252 
274 8 382 337 308 392 327 88 485 293 
275 8 450 290 127 2 441 16 224 614 
276 7 80 519 577 82 321 48 362 
277 6 336 490 288 564 355 64 
278 9 108 125 341 48 587 60 321 313 588 
279 9 98 424 51 134 318 87 118 148 328 
280 8 426 578 494 116 255 221 474 14 
281 9 554 360 472 45 141 119 56 151 401 
282 4 139 171 68 110 
283 6 113 521 376 17 377 560 
284 9 515 185 140 428 228 158 157 584 32 
285 8 477 181 574 121 42 39 65 561 
286 9 398 359 67 178 391 306 325 79 15 
287 8 394 12 511 557 208 144 508 571 
288 6 111 581 564 277 559 25 
289 4 604 399 260 77 
290 9 2 275 450 536 441 33 109 127 16 
291 9 25 353 559 581 527 566 404 90 288 
292 5 544 467 93 171 139 
293 8 88 485 112 187 308 274 392 382 
294 7 180 107 170 319 332 253 86 
295 7 488 406 18 49 298 489 575 
296 9 506 396 126 50 36 137 367 84 363 
297 6 105 543 260 502 77 579 
298 5 452 489 153 18 295 
299 7 221 14 78 598 494 400 603 
300 5 120 365 608 312 46 
301 8 411 369 539 11 268 320 481 6 
302 6 523 198 99 143 81 32 
303 3 470 52 585 
304 9 570 361 461 573 64 358 61 234 70 
305 7 449 344 74 401 418 615 486 
306 9 79 359 601 178 398 286 391 67 497 
307 3 365 608 46 
308 7 392 382 274 485 88 293 112 
309 9 546 495 236 231 53 319 332 86 150 
310 9 437 66 567 59 114 495 412 596 6 
311 9 31 160 388 412 114 468 59 163 206 
312 4 120 300 439 46 
313 6 588 587 60 271 278 410 
314 7 591 504 549 330 225 39 121 
315 4 432 535 70 397 
316 7 102 420 90 404 111 527 136 
317 4 491 57 149 153 
318 9 424 279 134 328 118 98 257 8 51 
319 9 53 332 170 86 231 180 294 236 546 
320 4 301 411 369 11 
321 9 82 108 125 341 278 276 417 80 48 
322 8 250 542 356 257 8 258 526 434 
323 9 496 209 589 483 256 203 23 240 167 
324 8 537 109 441 33 182 103 40 438 
325 9 430 229 67 354 286 391 398 178 359 
326 9 175 343 217 498 246 41 465 547 513 
327 8 337 92 370 382 274 239 253 308 
328 9 8 62 118 318 134 386 258 322 424 
329 5 26 348 104 475 471 
330 8 549 504 591 314 39 121 181 225 
331 5 207 409 614 16 224 
332 9 86 53 170 319 180 231 236 294 546 
333 7 144 579 105 366 12 508 502 
334 5 265 244 547 73 338 
335 9 119 151 401 45 360 357 162 554 281 
336 8 490 64 550 397 277 70 361 570 
337 8 327 382 274 370 92 308 392 239 
338 4 265 334 405 73 
339 9 168 431 611 28 380 202 580 130 507 
340 8 565 342 214 83 43 193 213 405 
341 8 125 108 278 60 587 225 48 321 
342 9 94 213 83 340 453 565 429 43 75 
343 9 498 246 326 41 465 176 217 175 453 
344 9 449 305 56 554 401 55 74 151 45 
345 7 130 174 349 238 562 28 518 
346 4 438 182 592 40 
347 7 381 478 247 533 192 516 49 
348 5 329 26 475 104 471 
349 7 174 345 130 562 238 28 383 
350 6 489 452 18 197 575 516 
351 9 251 583 530 218 464 34 216 84 367 
352 7 459 548 3 446 52 605 470 
353 8 291 25 566 581 586 559 527 490 
354 7 229 430 325 199 612 15 67 
355 4 445 564 17 288 
356 8 542 257 322 250 8 15 328 258 
357 7 378 45 119 335 360 151 281 
358 9 573 61 304 234 570 70 361 535 64 
359 9 178 398 286 67 391 306 79 325 15 
360 9 45 281 554 119 151 472 401 335 357 
361 9 570 304 64 461 573 358 70 61 336 
362 6 577 519 48 410 276 80 
363 8 137 164 396 385 506 166 36 296 
364 9 131 146 385 166 466 164 212 96 36 
365 5 608 307 120 300 46 
366 8 508 502 144 333 12 543 511 24 
367 9 84 216 34 218 583 530 435 506 396 
368 9 248 27 422 371 194 473 163 531 468 
369 7 411 11 301 268 539 320 481 
370 9 327 337 239 92 382 274 576 308 253 
371 9 248 499 27 473 368 163 468 20 194 
372 9 20 499 163 371 468 27 248 473 388 
373 8 261 211 603 29 600 61 78 393 
374 9 273 38 379 416 487 252 419 233 262 
375 5 249 30 563 462 442 
376 5 283 113 377 521 17 
377 6 113 521 283 17 272 458 
378 9 357 72 360 472 50 45 281 590 96 
379 9 38 262 374 416 273 487 252 233 419 
380 9 339 37 431 68 580 110 202 611 168 
381 7 347 478 247 533 192 516 49 
382 7 274 337 327 308 392 370 88 
383 8 154 85 505 455 349 174 597 28 
384 9 9 147 433 572 448 408 162 599 165 
385 8 164 364 146 166 131 363 36 212 
386 8 258 62 434 593 8 328 526 322 
387 4 66 59 437 310 
388 9 31 311 160 468 163 372 27 499 20 
389 8 237 191 13 254 592 480 40 443 
390 5 76 475 263 104 156 
391 8 178 67 359 286 398 325 306 79 
392 6 308 382 274 485 88 112 
393 9 606 232 29 600 214 395 234 195 373 
394 8 287 208 557 511 141 12 230 508 
395 8 234 600 61 393 573 358 606 232 
396 9 506 296 137 84 367 126 435 363 216 
397 8 70 432 64 315 336 535 550 361 
398 9 286 359 178 67 391 306 79 325 15 
399 5 260 604 289 77 297 
400 6 603 195 29 299 373 405 
401 9 151 119 335 45 344 360 449 554 305 
402 8 607 54 238 456 421 562 532 117 
403 9 223 270 226 7 220 184 203 520 23 
404 9 90 527 316 559 102 581 420 25 111 
405 8 214 195 338 73 265 400 244 340 
406 6 568 488 295 538 49 128 
407 5 35 177 58 602 440 
408 9 599 58 9 200 165 433 177 572 384 
409 6 207 16 331 614 127 224 
410 8 447 362 48 587 313 500 510 57 
411 6 369 301 11 539 268 320 
412 9 114 59 311 310 495 160 206 66 437 
413 4 493 143 32 81 
414 4 595 71 183 545 
415 6 63 460 423 444 451 101 
416 8 252 487 374 379 38 273 262 419 
417 7 321 97 82 227 121 133 594 
418 7 615 528 305 165 449 200 74 
419 6 233 273 374 38 509 242 
420 6 102 316 90 404 136 111 
421 9 117 172 54 155 402 607 501 456 238 
422 8 194 531 368 248 27 371 206 473 
423 4 460 415 63 444 
424 9 318 279 98 134 51 328 118 257 87 
425 8 219 259 436 555 155 7 117 172 
426 8 280 578 116 255 494 221 474 14 
427 9 65 517 138 93 142 186 529 467 544 
428 9 157 32 81 185 158 584 99 143 228 
429 7 128 538 75 568 213 83 406 
430 9 229 325 354 67 199 286 612 398 15 
431 9 168 339 380 110 264 507 139 171 28 
432 6 315 70 535 397 64 358 
433 8 448 162 9 384 165 408 147 200 
434 8 258 386 593 526 62 8 322 328 
435 9 91 84 530 367 89 216 34 396 506 
436 8 259 425 219 555 7 155 117 520 
437 9 310 66 567 59 114 6 596 495 387 
438 7 182 346 537 40 592 191 324 
439 4 572 599 312 9 
440 7 241 545 183 35 269 407 595 
441 9 2 450 33 109 290 127 275 16 536 
442 5 563 462 30 249 375 
443 8 254 482 237 480 389 129 13 124 
444 5 100 525 460 63 101 
445 5 355 564 17 560 521 
446 9 3 605 548 52 352 459 470 116 494 
447 7 410 500 510 57 491 541 479 
448 7 162 433 147 384 9 165 401 
449 7 305 344 401 74 56 486 418 
450 9 127 275 441 290 16 2 33 614 224 
451 4 205 63 101 415 
452 7 489 18 298 350 575 197 516 
453 7 94 213 128 429 246 342 498 
454 8 484 210 497 561 42 122 517 222 
455 8 85 505 383 562 154 189 349 512 
456 8 532 238 402 607 44 54 518 562 
457 8 576 239 363 89 137 164 370 435 
458 6 560 17 521 272 136 113 
459 8 352 3 548 446 52 605 470 116 
460 4 423 415 63 444 
461 5 570 304 361 64 573 
462 6 30 442 563 249 375 150 
463 9 602 35 95 245 528 269 241 407 440 
464 8 251 351 249 583 530 375 34 218 
465 9 513 176 10 326 196 343 201 498 246 
466 9 212 96 131 146 166 36 50 590 364 
467 9 93 529 292 264 110 142 427 544 171 
468 9 163 27 160 371 499 368 248 372 422 
469 8 89 91 576 107 92 294 253 435 
470 4 303 52 548 352 
471 3 329 26 348 
472 9 141 281 554 360 45 208 56 394 378 
473 9 248 371 368 499 27 187 194 112 20 
474 4 255 14 598 78 
475 3 390 348 26 
476 9 123 492 22 152 202 580 611 518 44 
477 9 181 39 285 65 121 186 138 330 574 
478 7 347 381 247 192 533 516 49 
479 5 149 500 541 510 57 
480 9 13 237 129 553 389 254 191 40 443 
481 9 6 596 268 539 11 369 301 411 567 
482 9 582 69 443 124 254 129 480 240 237 
483 9 167 256 323 23 152 496 22 123 188 
484 8 454 210 497 561 42 122 517 222 
485 8 293 88 112 187 308 392 274 382 
486 9 74 610 24 55 344 615 56 305 449 
487 7 416 252 374 273 38 379 262 
488 8 49 295 406 18 197 575 516 489 
489 7 452 18 575 197 350 298 516 
490 8 550 336 277 397 64 353 70 361 
491 4 57 552 153 317 
492 9 476 123 518 44 152 22 202 184 611 
493 5 413 143 32 157 81 
494 9 221 280 578 426 299 116 14 446 605 
495 9 236 546 309 231 53 86 332 319 567 
496 9 323 589 209 203 23 256 483 240 167 
497 7 210 454 484 561 42 79 222 
498 9 246 343 326 41 217 175 453 465 176 
499 9 371 248 27 20 163 372 473 468 368 
500 6 479 149 510 447 57 541 
501 9 135 54 421 172 607 402 117 235 238 
502 8 543 366 24 297 508 333 144 105 
503 5 522 201 10 196 541 
504 8 549 330 591 314 39 121 225 181 
505 8 85 154 189 512 455 383 235 612 
506 9 396 296 84 367 137 126 216 435 363 
507 9 264 597 168 431 529 28 339 467 142 
508 9 144 366 12 511 287 333 208 502 24 
509 5 242 233 419 38 273 
510 8 541 196 500 10 479 447 201 503 
511 9 208 508 287 394 12 144 55 366 56 
512 9 189 505 85 154 612 455 235 383 190 
513 9 465 176 10 196 201 522 503 541 326 
514 7 556 179 540 21 526 593 434 
515 9 284 140 185 228 428 157 158 584 32 
516 7 197 575 18 533 350 49 489 
517 7 613 142 427 529 93 210 454 
518 8 44 492 532 456 345 476 130 184 
519 5 577 80 276 362 48 
520 9 220 532 44 7 184 226 456 518 155 
521 7 113 17 560 458 283 377 272 
522 5 503 201 10 196 541 
523 5 302 198 99 143 81 
524 4 145 266 4 205 
525 4 100 444 101 63 
526 8 434 258 322 386 250 593 8 62 
527 9 559 404 90 581 25 291 316 102 288 
528 9 418 602 165 200 463 35 615 95 58 
529 9 93 467 142 264 517 613 507 427 292 
530 9 583 34 216 84 367 91 351 218 435 
531 7 422 194 206 368 27 248 371 
532 8 44 456 518 520 402 607 238 220 
533 5 516 197 350 575 18 
534 5 19 579 47 105 333 
535 5 315 432 70 358 573 
536 9 2 33 290 109 441 103 450 275 127 
537 8 324 182 40 438 13 592 191 480 
538 8 75 568 429 128 83 213 406 43 
539 9 11 268 369 301 411 481 6 596 320 
540 6 106 179 556 21 514 302 
541 8 510 196 10 479 500 176 201 447 
542 8 356 257 322 250 8 15 328 258 
543 7 502 297 366 77 24 105 333 
544 6 292 132 138 186 65 93 
545 7 183 440 241 71 595 215 269 
546 9 309 236 495 231 53 319 332 86 170 
547 9 217 175 244 334 41 265 73 326 252 
548 8 352 52 3 459 446 605 470 303 
549 8 504 330 591 314 39 121 181 225 
550 6 490 336 397 64 70 277 
551 9 159 571 47 333 579 12 19 144 230 
552 4 153 491 57 298 
553 9 129 480 13 237 40 103 443 254 389 
554 9 281 360 45 472 56 344 119 401 151 
555 8 436 425 219 259 7 226 223 220 
556 4 179 514 540 21 
557 7 230 287 394 571 12 208 511 
558 5 262 242 379 38 509 
559 9 527 581 25 404 90 291 288 316 353 
560 6 458 17 521 113 272 136 
561 8 42 122 454 484 222 210 497 574 
562 7 238 349 174 607 54 345 402 
563 5 442 462 30 249 375 
564 5 355 445 288 111 17 
565 8 340 193 43 342 83 214 213 232 
566 7 586 353 291 25 559 581 527 
567 9 437 310 596 6 481 66 150 495 309 
568 6 538 128 75 406 429 83 
569 6 46 120 161 307 365 608 
570 9 304 361 461 573 64 358 61 234 70 
571 7 230 159 551 557 287 12 394 
572 6 599 439 9 408 384 177 
573 9 358 61 304 570 234 361 70 64 535 
574 8 285 594 42 561 121 181 477 122 
575 8 197 18 516 489 350 452 49 488 
576 9 89 239 92 457 469 370 91 327 435 
577 4 519 362 80 276 
578 8 280 426 116 494 221 255 474 14 
579 7 105 19 333 47 534 551 297 
580 9 202 22 37 611 380 476 123 339 188 
581 9 559 25 527 288 291 404 90 353 111 
582 9 69 482 124 240 443 129 254 256 209 
583 9 34 530 218 216 351 84 367 251 91 
584 9 158 185 428 5 99 81 157 198 32 
585 3 605 52 303 
586 6 566 353 291 25 490 550 
587 9 313 60 588 278 271 48 108 125 341 
588 6 271 313 60 587 278 125 
589 9 209 496 203 323 240 256 483 23 69 
590 9 72 96 466 212 131 146 166 36 50 
591 8 314 504 549 330 225 39 121 181 
592 8 191 40 389 237 13 182 438 346 
593 8 386 434 258 62 8 526 21 328 
594 6 574 42 122 561 97 227 
595 7 414 183 71 545 241 440 215 
596 9 481 6 268 567 150 539 11 369 301 
597 9 507 264 154 383 168 28 529 505 612 
598 6 78 14 299 474 255 221 
599 8 572 408 9 177 58 384 439 200 
600 9 395 393 234 606 232 29 61 211 261 
601 5 79 306 250 222 526 
602 9 463 35 528 407 95 245 269 241 200 
603 8 400 195 373 29 261 78 299 598 
604 4 289 399 260 77 
605 8 52 446 3 548 352 459 585 470 
606 8 232 393 29 600 214 395 195 234 
607 7 402 54 238 456 562 421 532 
608 5 365 307 300 120 46 
609 7 133 71 227 97 215 183 595 
610 9 74 486 615 173 24 156 305 418 449 
611 9 202 339 580 28 130 476 380 168 345 
612 9 325 512 430 154 189 354 229 505 85 
613 7 142 517 529 210 497 427 93 
614 6 224 16 409 127 207 450 
615 7 418 610 74 305 486 528 449 
DEPOT_SECTION
   1
   -1
EOF
