NAME :  X-n957-kX-w382-c11.cctp
COMMENT : 	Adapted by Maziero, Usberti and Cavellucci from the Uchoa, Pecin, Pessoa, Poggi, Subramanian, and Vidal (2013)
TYPE :  CCTP
DIMENSION :    855
EDGE_WEIGHT_TYPE : 	EUC_2D	
CAPACITY : 	11
VERTICES_WITHIN_COVERAGE :  11
VERTICES_WITH_DEMAND : 	382
NODE_COORD_SECTION
1 737 450
2 235 789
3 340 234
4 346 320
5 406 309
6 556 636
7 872 923
8 937 83
9 9 321
10 558 18
11 63 833
12 250 509
13 143 192
14 624 286
15 364 117
16 332 953
17 235 142
18 590 430
19 303 692
20 936 665
21 39 410
22 247 581
23 986 739
24 11 283
25 138 747
26 837 511
27 596 206
28 218 339
29 443 922
30 555 133
31 896 306
32 415 752
33 691 216
34 51 0
35 726 19
36 166 333
37 951 932
38 928 807
39 505 590
40 236 284
41 115 882
42 238 887
43 729 26
44 94 697
45 409 899
46 993 715
47 473 607
48 414 55
49 884 327
50 651 407
51 891 372
52 570 733
53 919 529
54 629 220
55 711 630
56 141 492
57 720 382
58 794 51
59 745 451
60 409 990
61 825 781
62 966 938
63 378 175
64 859 269
65 596 131
66 419 557
67 77 908
68 679 268
69 726 860
70 382 728
71 885 15
72 258 313
73 734 905
74 533 912
75 924 636
76 694 621
77 469 223
78 507 707
79 892 168
80 281 800
81 607 285
82 388 354
83 568 781
84 22 348
85 153 579
86 218 236
87 308 904
88 119 154
89 939 105
90 489 374
91 547 736
92 480 1000
93 124 883
94 647 930
95 295 741
96 213 53
97 701 446
98 589 708
99 644 147
100 133 377
101 983 343
102 169 651
103 262 450
104 255 422
105 115 640
106 693 344
107 896 910
108 298 531
109 573 416
110 416 512
111 870 50
112 185 436
113 656 268
114 53 522
115 587 165
116 542 762
117 995 809
118 266 878
119 27 812
120 196 522
121 45 164
122 174 729
123 252 311
124 681 621
125 594 478
126 848 361
127 897 253
128 729 354
129 255 410
130 811 703
131 677 991
132 781 909
133 971 632
134 540 824
135 887 144
136 475 860
137 509 336
138 967 433
139 897 98
140 157 676
141 971 727
142 972 381
143 658 504
144 375 214
145 280 526
146 895 158
147 196 779
148 379 223
149 692 470
150 22 395
151 119 604
152 622 843
153 289 811
154 98 365
155 111 426
156 261 101
157 483 818
158 820 480
159 433 961
160 656 421
161 511 273
162 334 794
163 426 686
164 870 112
165 941 978
166 744 498
167 7 346
168 168 877
169 166 244
170 604 430
171 176 452
172 522 306
173 912 406
174 423 564
175 505 779
176 101 383
177 729 307
178 162 515
179 647 869
180 784 983
181 496 811
182 736 39
183 833 529
184 646 367
185 922 294
186 513 535
187 373 331
188 471 694
189 39 149
190 813 538
191 153 115
192 244 505
193 716 286
194 409 228
195 140 484
196 652 239
197 141 628
198 30 924
199 877 307
200 586 723
201 336 615
202 856 584
203 984 221
204 641 671
205 648 704
206 19 309
207 661 125
208 614 194
209 253 864
210 106 841
211 187 687
212 5 289
213 657 83
214 658 58
215 419 839
216 519 347
217 191 864
218 666 486
219 288 276
220 562 646
221 516 725
222 75 785
223 309 966
224 743 856
225 121 698
226 286 258
227 70 635
228 376 539
229 824 834
230 650 350
231 742 277
232 977 647
233 268 698
234 973 145
235 569 655
236 765 22
237 427 869
238 11 869
239 377 793
240 162 897
241 102 444
242 979 386
243 69 483
244 294 395
245 424 536
246 37 705
247 126 782
248 490 30
249 348 771
250 808 469
251 107 512
252 782 207
253 161 793
254 859 469
255 148 763
256 403 723
257 978 760
258 214 132
259 467 387
260 292 262
261 238 846
262 853 27
263 855 506
264 591 902
265 213 742
266 203 364
267 183 3
268 143 608
269 501 152
270 649 492
271 904 31
272 997 741
273 527 299
274 26 402
275 543 506
276 902 548
277 47 419
278 125 226
279 206 608
280 811 668
281 643 265
282 189 736
283 79 287
284 382 630
285 225 604
286 412 843
287 924 756
288 474 356
289 533 721
290 445 101
291 579 994
292 652 658
293 633 914
294 889 206
295 464 243
296 680 735
297 420 998
298 798 490
299 75 518
300 27 680
301 118 804
302 181 428
303 489 91
304 367 977
305 777 679
306 501 137
307 856 6
308 75 999
309 777 984
310 171 874
311 909 569
312 730 509
313 326 596
314 59 533
315 455 853
316 612 163
317 959 409
318 987 154
319 883 195
320 207 6
321 39 831
322 227 416
323 657 701
324 703 976
325 260 286
326 6 135
327 821 740
328 491 397
329 140 716
330 6 773
331 497 447
332 666 487
333 529 74
334 860 929
335 384 223
336 524 854
337 102 833
338 653 843
339 260 234
340 66 997
341 864 478
342 425 897
343 482 914
344 497 805
345 646 13
346 670 113
347 483 458
348 722 56
349 611 456
350 832 655
351 275 331
352 851 924
353 746 341
354 811 324
355 950 762
356 697 467
357 368 215
358 458 65
359 174 245
360 277 138
361 624 145
362 80 463
363 696 41
364 309 279
365 985 212
366 934 241
367 839 676
368 717 623
369 752 11
370 732 768
371 5 440
372 125 793
373 556 154
374 137 547
375 178 892
376 363 804
377 855 769
378 269 726
379 415 353
380 961 560
381 432 998
382 197 594
383 354 413
384 655 357
385 903 500
386 446 77
387 710 425
388 883 381
389 493 246
390 776 9
391 286 208
392 119 538
393 267 810
394 924 550
395 207 306
396 734 468
397 654 618
398 102 700
399 196 533
400 978 464
401 987 161
402 342 874
403 501 638
404 105 260
405 557 72
406 246 754
407 577 758
408 200 110
409 107 621
410 501 789
411 581 925
412 672 281
413 333 221
414 366 691
415 871 557
416 759 559
417 384 926
418 512 969
419 29 740
420 361 929
421 874 282
422 769 858
423 878 141
424 820 64
425 429 224
426 611 820
427 26 93
428 268 308
429 426 545
430 211 836
431 28 441
432 669 276
433 519 784
434 445 780
435 762 46
436 935 724
437 937 750
438 390 916
439 934 288
440 435 47
441 990 14
442 830 399
443 581 559
444 490 787
445 564 416
446 748 774
447 566 767
448 873 118
449 626 559
450 833 478
451 82 836
452 311 362
453 718 313
454 975 337
455 148 207
456 986 476
457 769 67
458 114 335
459 28 562
460 59 461
461 12 780
462 154 192
463 27 360
464 787 422
465 206 469
466 774 765
467 521 751
468 499 129
469 52 528
470 304 554
471 502 257
472 131 279
473 960 233
474 408 79
475 917 541
476 195 837
477 163 907
478 282 530
479 506 298
480 410 452
481 495 313
482 577 549
483 295 775
484 179 898
485 626 568
486 196 516
487 754 367
488 53 627
489 263 962
490 252 558
491 122 892
492 657 277
493 267 505
494 234 594
495 197 863
496 512 375
497 239 454
498 505 354
499 500 422
500 707 336
501 273 546
502 527 276
503 322 525
504 91 411
505 85 871
506 688 231
507 526 472
508 196 877
509 172 870
510 584 428
511 476 354
512 180 863
513 473 213
514 422 21
515 192 866
516 218 531
517 533 262
518 330 99
519 608 516
520 435 353
521 209 560
522 408 228
523 241 919
524 80 811
525 513 278
526 429 712
527 330 226
528 247 375
529 619 32
530 671 277
531 382 441
532 403 542
533 521 294
534 522 435
535 473 216
536 224 863
537 183 428
538 293 641
539 568 173
540 529 560
541 532 163
542 760 446
543 240 624
544 431 401
545 719 272
546 493 338
547 513 305
548 58 940
549 569 412
550 357 402
551 495 188
552 618 412
553 194 844
554 416 250
555 788 91
556 658 479
557 231 504
558 93 683
559 648 191
560 155 877
561 692 379
562 291 501
563 65 935
564 308 1000
565 655 499
566 750 582
567 588 234
568 488 236
569 505 403
570 566 428
571 68 979
572 199 868
573 177 583
574 246 760
575 233 820
576 450 497
577 369 620
578 98 932
579 164 880
580 378 219
581 183 868
582 528 489
583 228 852
584 381 89
585 355 930
586 235 927
587 458 212
588 228 583
589 481 409
590 550 450
591 516 526
592 250 804
593 209 808
594 275 671
595 170 388
596 514 280
597 692 415
598 405 186
599 494 319
600 527 341
601 514 583
602 208 584
603 625 472
604 280 735
605 368 535
606 3 597
607 74 556
608 492 190
609 644 366
610 125 280
611 512 487
612 491 334
613 306 641
614 516 417
615 728 321
616 163 510
617 325 804
618 634 395
619 497 506
620 277 608
621 354 927
622 582 278
623 264 442
624 292 250
625 102 989
626 113 287
627 93 921
628 501 576
629 252 987
630 670 319
631 500 304
632 479 583
633 74 907
634 88 945
635 299 562
636 139 808
637 540 167
638 619 292
639 678 278
640 327 517
641 410 380
642 447 579
643 214 521
644 596 421
645 711 456
646 333 359
647 668 356
648 225 531
649 320 932
650 566 207
651 238 331
652 344 596
653 544 305
654 316 530
655 666 352
656 671 214
657 508 266
658 389 596
659 408 282
660 198 849
661 439 346
662 186 797
663 407 355
664 184 615
665 642 467
666 226 880
667 252 556
668 192 502
669 637 316
670 494 209
671 362 596
672 123 748
673 405 524
674 604 519
675 500 194
676 578 394
677 290 691
678 16 824
679 664 191
680 482 371
681 508 82
682 478 725
683 521 464
684 115 585
685 461 356
686 630 209
687 499 288
688 503 407
689 643 278
690 670 494
691 215 911
692 270 798
693 554 399
694 139 900
695 212 485
696 481 272
697 84 435
698 608 283
699 474 478
700 613 272
701 275 474
702 549 526
703 229 882
704 253 521
705 63 939
706 622 245
707 656 232
708 277 581
709 253 812
710 171 909
711 454 558
712 176 526
713 397 522
714 660 200
715 574 213
716 319 535
717 688 407
718 470 141
719 475 401
720 131 896
721 606 292
722 623 382
723 509 413
724 168 834
725 626 343
726 300 624
727 178 795
728 321 965
729 437 899
730 470 151
731 343 576
732 265 545
733 643 266
734 242 679
735 592 292
736 553 284
737 398 315
738 356 814
739 333 236
740 508 179
741 460 532
742 267 520
743 618 473
744 237 292
745 564 407
746 477 269
747 480 478
748 0 879
749 568 415
750 520 320
751 644 280
752 299 943
753 282 495
754 642 304
755 410 533
756 699 373
757 320 373
758 266 512
759 451 452
760 661 386
761 155 908
762 504 387
763 329 539
764 583 527
765 198 544
766 387 439
767 599 274
768 554 410
769 649 140
770 715 73
771 664 345
772 542 330
773 546 320
774 214 857
775 583 268
776 270 955
777 182 583
778 70 547
779 154 923
780 751 545
781 325 263
782 587 472
783 331 307
784 159 909
785 386 644
786 621 387
787 656 400
788 120 907
789 260 910
790 467 416
791 632 287
792 498 312
793 292 527
794 417 404
795 473 358
796 44 941
797 323 246
798 683 364
799 289 536
800 156 911
801 183 553
802 613 381
803 514 281
804 293 971
805 171 190
806 146 893
807 244 521
808 340 856
809 516 521
810 596 289
811 599 257
812 366 504
813 391 390
814 602 631
815 453 376
816 448 189
817 530 131
818 509 482
819 340 432
820 242 924
821 186 848
822 658 496
823 452 224
824 401 652
825 145 832
826 254 592
827 477 236
828 150 541
829 224 670
830 125 870
831 649 282
832 204 917
833 280 550
834 594 407
835 501 372
836 634 289
837 608 220
838 618 428
839 532 276
840 47 856
841 300 609
842 348 569
843 351 637
844 562 210
845 708 471
846 212 920
847 448 523
848 320 640
849 451 379
850 294 497
851 616 295
852 249 810
853 299 505
854 550 289
855 347 720
DEMAND_SECTION
2 1
3 1
4 1
5 1
6 1
7 1
8 1
9 1
10 1
11 1
12 1
13 1
14 1
15 1
16 1
17 1
18 1
19 1
20 1
21 1
22 1
23 1
24 1
25 1
26 1
27 1
28 1
29 1
30 1
31 1
32 1
33 1
34 1
35 1
36 1
37 1
38 1
39 1
40 1
41 1
42 1
43 1
44 1
45 1
46 1
47 1
48 1
49 1
50 1
51 1
52 1
53 1
54 1
55 1
56 1
57 1
58 1
59 1
60 1
61 1
62 1
63 1
64 1
65 1
66 1
67 1
68 1
69 1
70 1
71 1
72 1
73 1
74 1
75 1
76 1
77 1
78 1
79 1
80 1
81 1
82 1
83 1
84 1
85 1
86 1
87 1
88 1
89 1
90 1
91 1
92 1
93 1
94 1
95 1
96 1
97 1
98 1
99 1
100 1
101 1
102 1
103 1
104 1
105 1
106 1
107 1
108 1
109 1
110 1
111 1
112 1
113 1
114 1
115 1
116 1
117 1
118 1
119 1
120 1
121 1
122 1
123 1
124 1
125 1
126 1
127 1
128 1
129 1
130 1
131 1
132 1
133 1
134 1
135 1
136 1
137 1
138 1
139 1
140 1
141 1
142 1
143 1
144 1
145 1
146 1
147 1
148 1
149 1
150 1
151 1
152 1
153 1
154 1
155 1
156 1
157 1
158 1
159 1
160 1
161 1
162 1
163 1
164 1
165 1
166 1
167 1
168 1
169 1
170 1
171 1
172 1
173 1
174 1
175 1
176 1
177 1
178 1
179 1
180 1
181 1
182 1
183 1
184 1
185 1
186 1
187 1
188 1
189 1
190 1
191 1
192 1
193 1
194 1
195 1
196 1
197 1
198 1
199 1
200 1
201 1
202 1
203 1
204 1
205 1
206 1
207 1
208 1
209 1
210 1
211 1
212 1
213 1
214 1
215 1
216 1
217 1
218 1
219 1
220 1
221 1
222 1
223 1
224 1
225 1
226 1
227 1
228 1
229 1
230 1
231 1
232 1
233 1
234 1
235 1
236 1
237 1
238 1
239 1
240 1
241 1
242 1
243 1
244 1
245 1
246 1
247 1
248 1
249 1
250 1
251 1
252 1
253 1
254 1
255 1
256 1
257 1
258 1
259 1
260 1
261 1
262 1
263 1
264 1
265 1
266 1
267 1
268 1
269 1
270 1
271 1
272 1
273 1
274 1
275 1
276 1
277 1
278 1
279 1
280 1
281 1
282 1
283 1
284 1
285 1
286 1
287 1
288 1
289 1
290 1
291 1
292 1
293 1
294 1
295 1
296 1
297 1
298 1
299 1
300 1
301 1
302 1
303 1
304 1
305 1
306 1
307 1
308 1
309 1
310 1
311 1
312 1
313 1
314 1
315 1
316 1
317 1
318 1
319 1
320 1
321 1
322 1
323 1
324 1
325 1
326 1
327 1
328 1
329 1
330 1
331 1
332 1
333 1
334 1
335 1
336 1
337 1
338 1
339 1
340 1
341 1
342 1
343 1
344 1
345 1
346 1
347 1
348 1
349 1
350 1
351 1
352 1
353 1
354 1
355 1
356 1
357 1
358 1
359 1
360 1
361 1
362 1
363 1
364 1
365 1
366 1
367 1
368 1
369 1
370 1
371 1
372 1
373 1
374 1
375 1
376 1
377 1
378 1
379 1
380 1
381 1
382 1
383 1
COVERAGE_SECTION
2 11 592 852 709 574 575 593 692 406 393 147 80 
3 11 739 527 413 797 781 357 144 148 580 335 624 
4 11 783 187 646 737 82 364 452 757 5 781 663 
5 8 737 659 187 379 663 82 661 520 
6 11 220 235 814 403 601 39 98 443 540 628 78 
7 11 334 352 107 37 165 132 62 229 180 309 422 
8 11 89 139 271 234 164 448 111 135 423 71 146 
9 11 206 167 84 212 24 463 150 283 274 21 154 
10 11 405 333 529 248 681 345 303 214 358 30 817 
11 11 451 321 524 840 337 119 210 505 678 222 301 
12 11 192 704 807 758 493 557 742 648 145 753 478 
13 11 462 455 805 278 88 169 359 191 404 86 472 
14 11 638 791 836 851 698 81 700 721 689 751 754 
15 11 584 518 474 63 48 598 290 360 386 144 357 
16 11 728 649 223 585 621 752 420 304 804 564 87 
17 11 258 360 408 156 805 391 191 96 339 462 86 
18 11 510 644 170 109 834 570 749 549 838 445 349 
19 11 677 594 233 378 604 95 613 538 855 848 734 
20 11 75 232 133 436 141 46 437 23 287 272 355 
21 11 277 274 150 431 371 463 697 504 460 84 362 
22 8 826 494 588 490 667 708 285 602 
23 11 272 141 257 46 355 437 436 287 117 20 38 
24 11 212 206 9 167 84 283 463 404 626 150 610 
25 11 672 255 329 247 122 372 253 225 282 398 301 
26 11 183 263 450 158 190 341 298 254 250 415 385 
27 8 837 208 715 567 650 686 844 54 
28 11 651 266 395 123 528 72 744 36 40 351 428 
29 11 729 342 159 343 45 438 237 417 136 315 60 
30 11 373 817 637 541 65 539 115 306 468 269 405 
31 11 199 49 185 421 439 64 127 51 126 366 388 
32 11 256 70 434 526 239 163 682 249 376 855 414 
33 11 506 656 714 679 707 196 559 68 686 54 113 
34 11 427 267 326 189 191 320 121 88 96 408 258 
35 11 43 182 369 348 363 236 435 390 770 457 58 
36 11 266 395 28 458 100 595 472 610 626 651 154 
37 11 62 165 107 7 334 352 38 117 229 355 132 
38 11 355 287 437 117 257 377 436 23 141 272 61 
39 11 601 628 632 47 540 403 186 642 711 591 6 
40 11 744 325 123 72 395 428 651 86 219 339 226 
41 9 93 491 830 720 788 694 505 806 560 
42 11 703 666 209 536 118 523 789 691 583 820 774 
43 11 35 182 369 348 236 363 435 770 390 457 58 
44 11 398 558 225 329 246 672 105 140 227 25 300 
45 11 342 438 729 237 417 29 286 420 215 585 621 
46 11 23 141 272 257 436 355 437 232 20 287 133 
47 11 632 39 642 403 628 601 711 174 540 66 741 
48 11 440 474 514 386 358 584 290 15 248 303 518 
49 11 199 31 51 421 126 185 388 64 439 354 127 
50 11 787 160 618 760 552 786 717 722 838 184 597 
51 11 388 173 126 49 31 199 442 317 142 185 242 
52 11 200 91 407 98 447 289 116 83 467 221 78 
53 11 475 394 276 385 311 380 415 263 341 26 202 
54 11 686 837 706 196 208 707 559 27 714 656 567 
55 11 368 76 124 397 566 292 204 305 416 323 780 
56 11 195 616 178 251 712 828 392 668 171 374 486 
57 11 756 561 128 487 717 798 597 387 106 500 353 
58 11 424 457 435 555 236 390 369 182 262 43 348 
59 11 542 396 645 845 97 387 166 356 464 149 312 
60 11 297 381 159 304 417 92 29 438 420 585 621 
61 11 377 327 229 466 446 130 370 422 287 38 367 
62 11 37 165 107 7 334 352 117 38 229 355 257 
63 11 598 144 357 580 148 335 15 194 522 413 3 
64 11 421 127 199 31 49 185 294 354 439 319 366 
65 11 361 115 316 30 373 539 99 769 207 208 817 
66 11 174 429 245 532 755 711 642 673 713 110 847 
67 10 633 627 563 578 705 548 505 634 788 41 
68 11 639 530 432 412 113 492 831 281 733 689 751 
69 11 224 422 73 132 338 179 446 370 229 152 94 
70 11 256 855 414 32 526 249 163 239 376 824 162 
71 11 271 307 262 111 424 139 8 58 164 448 89 
72 11 123 428 351 325 651 744 40 28 219 395 260 
73 11 69 132 224 422 324 309 94 180 179 293 338 
74 11 411 343 264 336 418 136 134 29 291 729 315 
75 11 20 133 232 311 380 202 394 436 276 350 367 
76 11 124 55 368 397 292 566 204 485 323 416 449 
77 11 535 513 827 587 823 295 568 670 389 425 608 
78 11 221 289 682 188 467 91 116 52 403 175 433 
79 11 146 135 319 423 294 448 164 139 89 234 366 
80 11 692 153 393 483 709 592 852 617 2 575 162 
81 11 698 721 810 851 638 700 767 14 735 791 622 
82 11 663 187 379 641 813 737 520 5 661 4 646 
83 11 447 407 116 52 433 91 134 467 426 200 175 
84 11 463 167 9 206 150 274 212 21 24 277 154 
85 11 573 777 268 374 684 828 801 151 382 664 197 
86 11 339 359 40 169 744 325 805 226 395 391 624 
87 11 649 752 402 789 118 621 585 16 808 420 223 
88 11 13 191 462 455 805 278 121 189 408 258 169 
89 11 8 139 234 135 448 146 164 318 423 401 79 
90 11 680 835 762 288 328 496 795 511 259 498 719 
91 11 289 52 116 467 221 447 407 200 78 83 98 
92 11 418 381 297 159 60 29 343 291 74 729 304 
93 8 41 491 830 720 694 788 806 560 
94 11 293 179 264 411 131 324 338 73 152 291 69 
95 11 604 378 483 19 677 233 406 574 855 80 249 
96 11 320 267 408 156 258 191 17 360 518 88 805 
97 11 645 356 387 149 845 597 396 717 59 160 218 
98 11 200 52 91 407 235 289 205 447 204 220 323 
99 11 769 361 207 316 346 559 679 65 714 208 115 
100 11 176 154 595 458 155 504 36 302 266 537 241 
101 11 454 142 242 317 439 185 138 31 173 51 49 
102 11 140 197 664 211 268 105 279 829 382 225 573 
103 10 623 497 701 104 129 322 753 493 850 192 
104 11 129 623 103 322 497 244 528 701 465 112 537 
105 11 409 197 151 268 227 558 102 140 684 225 44 
106 11 500 798 647 655 771 756 630 561 128 384 453 
107 11 7 334 352 37 62 165 229 38 132 180 422 
108 11 793 799 478 654 145 716 470 503 833 853 501 
109 11 749 549 445 745 570 510 768 18 676 834 644 
110 11 673 713 755 245 532 429 847 576 66 228 741 
111 11 262 71 271 307 424 139 164 448 8 58 89 
112 11 537 302 171 465 322 595 695 497 195 668 56 
113 11 492 281 733 432 689 831 530 751 412 68 639 
114 11 469 314 299 778 607 243 459 251 460 362 392 
115 11 539 316 373 65 208 27 361 30 637 650 715 
116 11 467 447 91 83 433 407 52 175 289 221 410 
117 11 257 355 38 272 23 437 141 287 46 436 37 
118 11 209 42 789 703 666 261 536 583 523 87 820 
119 11 678 321 461 11 330 840 524 222 238 451 419 
120 11 486 399 643 668 712 765 516 648 801 178 616 
121 11 189 326 427 88 278 13 455 404 462 191 24 
122 11 282 329 25 265 255 211 672 147 140 225 253 
123 11 72 428 651 744 325 351 40 28 395 219 226 
124 11 76 397 55 368 292 204 485 566 814 449 323 
125 11 782 743 349 603 519 674 18 170 665 764 510 
126 11 388 442 51 49 354 199 31 173 421 464 64 
127 11 421 366 64 185 294 439 31 199 319 473 49 
128 11 353 487 500 57 615 756 106 453 561 177 798 
129 11 104 322 623 528 103 244 497 701 266 452 537 
130 11 280 327 367 305 350 466 61 377 446 370 368 
131 11 324 94 293 291 309 73 180 411 264 179 132 
132 11 73 422 224 352 69 180 309 334 229 7 324 
133 11 232 75 20 380 46 311 141 394 436 475 23 
134 11 336 433 181 344 83 410 157 175 116 444 447 
135 11 423 146 79 448 164 139 319 294 89 8 234 
136 11 315 157 237 336 181 343 729 344 215 342 286 
137 11 216 546 498 612 600 750 599 792 481 547 172 
138 11 317 400 456 242 142 173 101 385 454 51 388 
139 11 164 448 8 89 135 423 111 146 271 79 71 
140 11 102 211 225 329 197 105 122 398 558 44 664 
141 11 23 46 272 257 436 355 437 287 20 232 117 
142 11 242 317 101 454 138 173 51 400 388 456 185 
143 11 565 822 270 690 332 218 556 665 603 149 519 
144 11 580 357 148 335 522 194 63 3 598 413 527 
145 11 478 793 799 742 108 758 501 732 833 493 562 
146 11 79 135 423 319 448 294 164 139 89 234 8 
147 11 662 727 593 253 2 265 282 255 574 122 575 
148 11 580 335 144 357 522 194 3 598 413 554 63 
149 11 356 845 645 97 218 332 690 556 396 822 565 
150 11 274 21 277 463 431 84 371 167 504 697 9 
151 11 684 409 268 197 105 85 227 374 573 392 607 
152 11 426 338 179 264 293 83 134 94 411 447 407 
153 11 80 393 692 483 709 617 592 852 162 575 2 
154 11 176 458 100 504 155 463 697 21 277 36 595 
155 11 241 504 697 176 362 100 154 460 277 195 171 
156 11 360 17 258 408 96 518 15 191 320 391 584 
157 11 181 344 444 410 136 175 315 433 434 336 134 
158 11 450 250 298 26 254 263 341 183 190 464 542 
159 11 381 60 297 29 417 92 438 729 342 45 304 
160 11 50 787 618 717 760 597 552 838 665 786 97 
161 11 525 596 657 803 502 471 687 839 533 479 517 
162 11 617 249 738 376 239 483 153 80 808 692 95 
163 11 526 824 256 188 785 414 70 682 32 284 78 
164 11 448 139 423 135 146 79 111 89 424 8 319 
165 11 37 62 107 7 334 352 180 309 38 132 117 
166 11 312 396 845 59 780 645 542 298 356 149 416 
167 11 84 463 9 206 150 212 274 24 21 277 154 
168 11 310 579 509 560 581 375 512 240 484 217 515 
169 11 359 455 278 472 86 462 805 610 13 404 626 
170 11 644 18 838 510 552 834 349 109 570 549 749 
171 11 112 302 537 465 195 695 668 56 616 322 497 
172 11 273 547 533 750 479 631 653 792 803 596 481 
173 11 388 51 317 138 142 242 126 254 442 49 341 
174 11 66 429 245 642 532 711 755 673 658 847 713 
175 11 410 433 444 344 467 181 116 157 221 134 91 
176 11 154 504 100 155 458 697 241 277 21 595 274 
177 11 453 615 193 231 500 545 353 128 106 639 630 
178 11 616 712 828 56 668 486 120 195 399 374 801 
179 11 338 152 293 94 426 264 69 411 73 224 134 
180 11 309 132 324 352 73 334 7 131 422 224 107 
181 11 344 157 410 444 175 433 134 336 136 315 434 
182 11 43 35 348 435 369 236 363 770 457 390 58 
183 11 26 190 263 415 158 450 298 202 341 250 254 
184 11 609 384 230 760 647 655 722 771 618 725 786 
185 11 439 31 199 127 421 49 366 64 454 473 101 
186 11 591 809 540 619 702 275 628 582 601 611 741 
187 11 82 4 737 5 663 379 783 646 659 641 813 
188 11 682 78 163 526 221 403 289 256 467 32 824 
189 11 121 326 427 88 13 278 191 455 462 404 24 
190 11 183 26 298 263 158 416 415 780 202 450 250 
191 11 408 88 258 462 805 13 17 96 455 156 278 
192 11 12 557 807 704 493 758 742 648 643 516 695 
193 11 545 177 453 231 615 639 68 412 530 432 500 
194 11 522 425 554 335 148 580 144 598 357 823 587 
195 11 56 616 178 251 171 241 668 712 392 828 374 
196 11 707 281 733 113 54 656 706 506 686 492 68 
197 11 268 105 151 409 102 664 85 684 140 573 777 
198 11 796 548 705 563 633 67 748 238 634 627 571 
199 11 31 49 421 64 185 127 439 126 51 354 388 
200 11 98 52 407 91 447 289 116 83 205 221 235 
201 11 313 652 843 848 671 577 841 726 613 731 284 
202 11 415 311 276 183 190 26 350 475 394 263 53 
203 11 365 473 366 401 318 234 439 127 185 294 319 
204 11 292 205 323 397 814 98 124 76 235 296 200 
205 11 323 204 296 292 98 200 52 397 814 124 407 
206 11 9 212 24 84 167 463 283 150 274 154 626 
207 11 346 769 99 213 361 316 65 679 214 559 714 
208 11 27 686 837 54 316 559 115 715 714 567 361 
209 11 118 261 42 583 536 703 666 774 789 575 430 
210 11 337 451 830 505 301 524 825 41 11 93 636 
211 11 140 102 829 122 282 329 734 265 225 664 197 
212 11 24 206 9 167 84 283 463 404 150 626 274 
213 11 214 346 207 363 769 770 529 99 348 361 345 
214 11 213 363 345 529 346 770 348 207 35 43 182 
215 11 286 237 315 342 136 45 239 729 434 376 157 
216 11 600 137 498 750 546 496 772 612 835 599 773 
217 11 515 495 572 581 512 508 660 821 509 553 310 
218 11 332 690 556 822 565 270 143 149 665 356 603 
219 11 260 226 364 624 325 428 781 797 72 123 339 
220 11 235 6 814 403 98 601 39 289 200 78 204 
221 11 289 78 467 91 682 116 52 175 188 433 447 
222 11 524 301 11 247 372 451 119 337 321 672 461 
223 11 728 804 752 16 564 649 776 489 585 304 621 
224 11 69 422 73 132 446 229 370 338 466 179 61 
225 11 398 329 44 558 140 672 25 105 122 102 211 
226 11 260 624 219 364 339 325 781 797 391 739 428 
227 11 488 409 105 558 151 300 44 684 197 398 246 
228 10 605 532 713 673 755 812 842 66 763 110 
229 11 61 422 377 224 466 132 327 352 446 7 69 
230 11 384 771 655 184 609 647 725 669 798 630 760 
231 11 545 193 177 453 615 68 353 639 500 412 506 
232 11 133 20 75 46 141 380 436 23 272 311 437 
233 11 677 378 594 734 19 604 95 829 406 538 574 
234 11 318 401 89 365 8 203 146 79 135 139 473 
235 11 220 6 814 98 200 403 204 289 52 78 292 
236 11 369 390 435 182 43 35 58 457 348 424 770 
237 11 342 286 215 315 729 45 136 29 438 343 417 
238 11 748 840 678 321 198 119 11 505 633 67 451 
239 11 376 738 249 162 617 32 286 215 70 434 808 
240 11 477 784 761 710 800 806 375 484 579 168 560 
241 11 155 697 362 504 460 243 195 277 176 56 251 
242 11 142 317 101 138 454 173 400 51 456 388 185 
243 11 362 460 299 114 251 469 697 241 314 431 778 
244 11 757 452 129 104 528 646 623 819 383 550 103 
245 11 429 755 66 532 673 110 847 174 713 741 711 
246 11 300 419 44 558 398 330 227 461 488 225 222 
247 11 372 301 255 636 672 25 253 222 825 524 727 
248 11 358 681 440 333 303 386 10 514 405 48 290 
249 11 162 239 376 617 738 855 483 70 95 32 153 
250 11 158 298 450 26 254 464 542 341 263 183 59 
251 11 392 299 56 195 374 243 778 314 828 114 178 
252 11 231 33 545 506 64 319 193 294 656 177 423 
253 11 727 662 636 255 372 247 147 724 825 301 593 
254 11 341 450 263 158 26 250 385 183 298 442 173 
255 11 25 247 672 253 372 122 727 636 329 282 147 
256 11 70 526 32 163 414 855 434 824 249 188 239 
257 11 23 272 355 141 437 46 117 287 436 38 20 
258 11 17 408 156 191 360 805 96 462 13 88 455 
259 11 719 815 849 680 90 328 589 790 795 288 685 
260 11 226 624 219 364 781 797 325 339 739 428 527 
261 11 583 536 209 575 774 430 666 703 709 852 660 
262 11 307 111 71 424 271 58 390 139 164 236 555 
263 11 26 341 183 450 254 158 385 190 415 298 250 
264 11 411 293 74 94 179 152 336 426 338 134 291 
265 11 282 406 574 122 147 2 378 211 662 727 593 
266 11 28 595 528 36 651 322 395 537 302 129 100 
267 11 320 96 408 191 156 34 258 17 88 360 518 
268 11 197 151 85 684 409 573 664 105 777 102 382 
269 11 306 468 740 730 541 718 551 817 608 637 675 
270 11 565 822 143 556 218 332 690 665 603 743 149 
271 11 71 111 262 307 8 139 89 164 441 424 448 
272 11 23 46 257 141 355 437 436 117 287 38 232 
273 11 533 172 547 653 479 750 803 502 596 839 525 
274 11 150 21 277 431 463 371 84 167 504 697 460 
275 11 702 582 809 591 611 507 186 818 764 619 683 
276 11 475 311 394 53 415 385 202 380 263 183 26 
277 11 21 274 431 150 697 460 504 371 362 241 463 
278 11 455 13 404 169 462 359 472 610 805 626 88 
279 11 382 285 664 602 494 588 777 543 573 521 22 
280 11 350 367 130 305 327 202 368 466 566 55 377 
281 11 733 113 689 751 492 831 791 836 14 196 432 
282 11 122 265 147 211 255 25 329 406 727 662 574 
283 11 626 404 610 472 458 206 24 212 278 9 154 
284 11 785 577 824 843 658 671 201 652 414 848 313 
285 11 494 279 588 543 602 382 826 22 664 521 777 
286 11 215 237 315 45 342 239 729 376 738 136 434 
287 11 437 355 436 38 257 141 23 377 272 46 117 
288 11 795 511 685 680 90 546 612 815 498 835 259 
289 11 221 91 78 467 52 116 200 682 98 407 447 
290 11 386 358 474 303 718 48 440 730 468 584 681 
291 11 411 418 94 264 74 293 131 92 324 343 179 
292 11 204 397 323 205 124 76 814 55 368 98 296 
293 11 94 264 179 411 152 338 131 324 291 426 74 
294 11 319 79 127 146 366 135 423 64 473 421 448 
295 10 827 77 823 568 535 389 746 513 587 696 
296 11 323 205 370 204 446 292 98 200 466 407 55 
297 11 381 60 159 304 92 29 417 438 420 585 418 
298 11 250 158 450 26 190 183 166 542 263 254 59 
299 11 114 314 469 778 251 243 607 392 362 460 459 
300 11 246 488 419 227 558 44 398 606 330 225 105 
301 11 372 636 247 337 210 524 825 253 222 451 255 
302 11 537 112 171 595 322 465 497 695 266 195 100 
303 11 681 468 358 333 290 386 306 718 817 248 269 
304 11 16 60 420 728 585 621 417 297 223 564 438 
305 11 280 130 350 367 327 55 368 466 446 370 76 
306 11 468 269 817 718 730 541 740 303 637 551 30 
307 11 262 71 111 271 424 58 390 236 139 435 369 
308 9 340 571 625 634 548 705 563 796 578 
309 11 180 324 132 73 352 131 334 7 422 224 69 
310 11 168 509 579 581 512 560 375 217 515 240 484 
311 11 276 394 475 415 53 380 202 75 385 263 183 
312 11 166 396 780 845 356 149 645 416 59 690 218 
313 10 652 201 731 841 842 671 726 635 848 470 
314 11 469 114 778 299 607 459 243 251 392 460 362 
315 11 136 237 215 286 157 729 342 181 344 45 343 
316 11 361 115 208 65 99 769 539 27 559 686 373 
317 11 138 242 142 173 400 101 456 454 51 388 385 
318 11 401 234 365 203 89 473 8 146 79 135 366 
319 11 294 79 146 135 423 127 366 64 448 164 473 
320 11 267 96 408 156 191 258 17 360 518 34 88 
321 11 119 11 678 840 451 524 238 222 461 505 748 
322 11 104 129 497 623 528 537 112 302 103 266 465 
323 11 205 204 296 292 98 200 397 124 76 55 814 
324 11 131 94 309 73 180 293 132 69 179 291 224 
325 11 428 40 744 123 72 219 226 260 351 624 364 
326 11 189 427 121 88 34 13 24 191 278 212 404 
327 11 130 61 377 466 367 280 305 446 350 370 229 
328 11 569 589 688 719 762 90 723 259 499 835 680 
329 11 225 25 122 672 398 140 255 44 282 211 558 
330 11 461 419 119 678 321 222 246 11 524 840 300 
331 11 347 499 534 683 747 614 723 818 507 699 688 
332 11 218 690 556 822 565 270 143 149 665 356 603 
333 11 681 405 303 817 248 10 468 30 306 358 269 
334 11 352 7 107 132 37 180 165 309 229 62 422 
335 11 148 580 144 357 194 522 554 598 3 425 63 
336 11 134 136 181 157 344 74 315 410 433 343 444 
337 11 210 451 524 301 11 505 825 830 636 372 41 
338 11 179 152 426 293 69 264 94 224 73 83 370 
339 11 226 624 391 86 260 219 325 40 744 797 364 
340 9 308 571 625 634 548 705 796 563 578 
341 11 254 263 450 26 158 385 250 183 298 53 190 
342 11 729 45 237 29 438 417 315 286 215 343 136 
343 11 29 729 74 136 342 418 315 159 237 336 45 
344 11 181 410 157 444 175 433 134 336 434 136 467 
345 11 529 214 363 213 35 43 348 10 770 182 346 
346 11 207 213 769 99 214 361 770 65 316 348 363 
347 11 331 747 699 759 818 683 499 611 507 534 790 
348 11 770 182 363 43 35 435 457 369 236 214 213 
349 11 743 603 170 125 782 838 18 665 644 510 552 
350 11 367 280 130 305 202 327 75 20 415 566 311 
351 11 428 72 123 651 325 452 528 744 219 28 40 
352 11 334 7 107 132 180 229 309 37 165 422 62 
353 11 128 487 615 177 500 453 57 106 756 193 231 
354 11 126 353 199 487 49 64 421 442 231 615 177 
355 11 437 287 257 141 436 23 38 272 46 117 377 
356 11 149 845 645 97 218 332 396 690 556 387 822 
357 11 144 580 148 335 3 413 527 63 739 522 194 
358 11 386 440 290 303 48 248 474 681 514 333 468 
359 11 169 86 455 278 472 805 462 610 13 395 404 
360 11 156 17 258 518 391 408 15 339 413 527 96 
361 11 99 316 769 65 115 207 208 559 346 679 539 
362 11 460 243 697 241 155 504 277 299 251 431 195 
363 11 348 43 35 770 182 214 213 345 369 435 236 
364 11 219 781 260 226 624 783 797 325 739 428 3 
365 11 203 473 401 318 366 234 439 294 127 79 185 
366 11 473 127 439 185 203 294 365 319 421 31 64 
367 11 350 280 130 305 327 75 202 377 20 61 436 
368 11 55 76 124 566 397 292 416 305 780 204 323 
369 11 236 390 35 43 182 435 348 58 457 363 770 
370 11 446 466 296 224 69 327 61 422 305 323 130 
371 11 431 274 21 277 150 460 243 362 697 463 504 
372 11 247 301 636 253 255 825 672 337 25 524 222 
373 11 30 637 539 541 115 817 65 650 740 269 844 
374 11 828 392 85 178 684 712 616 251 801 573 56 
375 11 484 240 168 579 710 310 477 508 509 581 784 
376 11 738 239 162 249 617 808 286 215 402 32 153 
377 11 61 327 287 229 130 466 38 437 436 367 355 
378 11 604 233 95 406 574 677 19 734 483 594 265 
379 11 663 520 661 82 641 737 813 815 849 5 685 
380 11 394 475 53 311 276 133 385 75 232 456 415 
381 11 297 60 159 92 304 29 418 417 438 343 420 
382 11 602 279 777 573 664 285 588 521 494 801 85 
383 8 550 819 531 766 813 757 646 244 
384 11 230 655 184 647 609 771 798 760 725 106 630 
385 11 53 475 341 263 276 254 394 415 26 311 450 
386 11 358 290 440 474 48 303 514 681 248 584 718 
387 11 597 97 717 645 57 59 356 845 149 396 561 
388 11 51 173 126 49 442 199 31 317 142 254 354 
389 9 568 471 827 657 746 295 696 161 77 
390 11 236 369 435 58 43 182 35 457 424 348 262 
391 11 339 624 527 413 226 797 260 739 3 781 219 
392 11 374 251 828 684 299 607 178 778 56 616 85 
393 11 692 709 80 592 852 153 575 2 483 261 574 
394 11 475 53 276 311 380 415 385 202 263 75 183 
395 11 744 28 40 651 123 36 72 325 266 428 359 
396 11 59 645 845 166 542 356 97 312 149 387 298 
397 11 124 76 292 814 204 485 55 368 449 323 205 
398 11 44 225 558 329 672 25 140 105 246 227 122 
399 11 120 765 486 712 516 643 801 648 521 668 178 
400 11 456 138 317 242 142 385 53 173 380 475 394 
401 11 318 234 365 203 89 473 146 8 79 366 135 
402 11 808 87 621 585 420 649 738 438 417 45 617 
403 11 47 39 6 601 632 220 628 188 78 235 642 
404 11 610 626 472 283 278 169 455 359 458 13 462 
405 11 333 681 10 30 817 65 303 529 248 468 373 
406 11 574 265 378 2 604 592 692 95 483 147 852 
407 11 447 83 52 116 200 91 98 467 289 433 221 
408 11 258 17 191 96 156 360 805 88 462 13 320 
409 11 105 151 197 684 268 227 488 85 558 102 607 
410 11 175 444 344 433 181 157 467 116 134 434 221 
411 11 264 74 293 94 291 418 179 336 152 343 134 
412 11 530 432 639 68 492 113 831 751 689 281 733 
413 11 527 3 739 797 357 144 781 580 148 391 624 
414 11 855 70 256 785 824 843 163 19 284 526 848 
415 11 202 276 311 183 475 263 394 53 26 190 385 
416 11 780 566 190 312 166 368 298 183 55 76 26 
417 11 438 420 585 621 45 342 304 16 29 729 159 
418 11 92 74 343 291 159 411 29 381 297 729 264 
419 11 246 330 461 300 222 119 44 398 678 558 524 
420 11 585 621 417 438 16 649 304 728 45 402 87 
421 11 64 199 31 127 49 185 439 366 354 294 126 
422 11 224 69 132 73 229 446 466 61 370 352 334 
423 11 135 146 448 79 164 139 319 294 89 8 111 
424 11 58 555 262 457 111 435 307 164 236 390 448 
425 11 194 522 823 554 587 77 295 816 335 513 535 
426 11 152 338 83 179 447 134 407 264 116 336 52 
427 11 326 189 121 34 88 191 13 462 278 455 805 
428 11 72 123 325 351 744 219 651 40 364 260 226 
429 11 245 66 174 755 532 673 711 847 110 741 713 
430 11 476 660 553 774 583 575 593 821 261 495 536 
431 11 371 277 21 460 274 150 362 697 243 504 241 
432 11 530 412 639 492 68 113 831 751 689 281 733 
433 11 175 410 444 344 116 467 181 134 83 157 447 
434 11 32 444 157 410 344 175 181 215 682 239 526 
435 11 457 236 182 58 369 43 390 348 35 555 770 
436 11 437 287 141 355 23 257 20 46 272 38 232 
437 11 287 355 436 141 257 23 38 272 46 117 377 
438 11 417 45 420 585 621 342 729 29 237 159 402 
439 11 185 31 366 127 199 421 473 49 454 101 64 
440 11 48 358 514 386 474 290 248 584 303 681 333 
441 11 8 271 89 71 111 139 234 307 262 318 401 
442 11 126 464 388 51 250 254 354 450 158 173 487 
443 11 482 764 449 485 674 702 519 540 275 601 186 
444 11 410 175 344 181 433 157 434 467 116 134 682 
445 11 749 549 109 745 570 768 693 510 676 18 834 
446 11 370 466 61 296 327 224 422 69 130 229 305 
447 11 83 407 116 52 91 200 467 433 289 175 98 
448 11 164 423 135 139 146 79 89 111 8 424 319 
449 11 485 443 674 519 482 764 143 397 565 270 822 
450 11 158 250 254 341 26 263 298 183 190 464 385 
451 11 11 337 210 524 505 840 321 301 222 830 41 
452 11 757 646 244 351 4 783 550 528 383 187 428 
453 11 177 615 500 193 106 353 545 128 231 630 639 
454 11 101 142 242 439 185 317 31 51 49 173 138 
455 11 13 462 805 278 169 359 88 404 472 86 610 
456 11 400 138 317 53 385 380 242 475 142 394 173 
457 11 435 58 555 182 236 348 424 770 43 390 369 
458 11 154 100 626 176 36 610 283 472 404 595 504 
459 11 314 469 606 778 607 114 299 488 227 243 684 
460 11 362 243 697 431 277 241 21 371 299 504 114 
461 11 330 119 419 678 321 222 11 524 246 840 238 
462 11 13 455 805 278 88 169 359 191 86 404 258 
463 11 84 167 150 274 9 21 206 277 154 212 176 
464 11 542 442 59 250 487 158 298 396 450 387 57 
465 11 695 171 497 668 112 557 537 302 486 192 643 
466 11 446 370 61 327 130 377 229 305 422 224 296 
467 11 116 221 91 175 289 433 410 78 444 447 682 
468 11 306 269 718 817 730 303 541 681 740 30 637 
469 11 114 314 299 778 607 459 243 251 460 392 362 
470 8 635 799 108 716 833 654 763 793 
471 8 657 389 161 525 568 596 696 803 
472 11 610 626 404 169 278 283 359 458 36 455 395 
473 11 203 366 365 439 127 185 294 401 318 319 234 
474 11 48 584 386 440 290 358 15 514 518 303 718 
475 11 394 53 276 311 385 380 415 263 202 341 26 
476 11 553 660 821 430 495 217 724 774 515 512 572 
477 11 784 710 761 800 240 484 779 375 806 694 579 
478 10 145 799 793 108 501 742 833 732 758 493 
479 11 631 547 687 533 792 172 481 803 596 273 525 
480 6 766 531 759 794 544 110 
481 10 792 599 631 479 547 612 546 687 750 137 
482 11 443 764 702 674 519 540 449 485 275 591 186 
483 11 80 95 692 153 617 162 604 393 574 249 406 
484 11 375 710 240 477 579 784 168 310 761 800 508 
485 11 449 443 482 674 519 397 764 814 143 565 124 
486 11 120 668 399 643 712 516 765 648 178 616 695 
487 11 353 128 57 615 756 500 561 464 106 177 453 
488 11 227 409 606 300 105 558 151 459 607 684 246 
489 9 776 629 804 752 820 586 223 523 789 
490 8 667 732 22 501 833 708 826 588 
491 8 93 720 41 788 694 830 806 560 
492 11 113 831 432 751 530 689 412 281 733 639 68 
493 11 758 742 12 753 704 192 562 145 807 850 478 
494 11 285 588 22 826 602 279 543 382 490 521 667 
495 11 572 217 515 508 660 581 512 774 553 821 476 
496 10 835 762 498 90 216 569 328 680 688 600 
497 11 103 623 104 465 322 695 701 129 192 557 12 
498 11 216 137 835 546 496 612 90 600 511 680 288 
499 11 723 688 614 569 589 331 534 328 719 790 762 
500 11 106 453 615 128 177 798 756 353 630 647 655 
501 8 732 833 478 799 145 667 490 742 
502 9 839 525 596 803 517 161 533 657 273 
503 8 654 640 716 763 108 793 853 470 
504 11 155 697 176 241 277 154 21 362 100 460 274 
505 11 41 451 210 67 633 830 93 840 337 491 11 
506 11 33 656 707 196 68 714 679 639 113 432 530 
507 11 683 582 818 611 590 534 275 331 347 619 747 
508 11 572 515 217 495 581 512 375 310 509 484 774 
509 11 310 168 512 581 579 560 217 515 375 508 495 
510 11 18 644 109 570 170 749 549 445 834 745 838 
511 11 288 795 685 680 546 90 612 498 835 815 259 
512 11 581 217 509 515 310 821 495 168 572 508 579 
513 11 535 77 587 670 827 823 568 608 295 551 675 
514 11 440 48 358 474 386 248 584 290 303 681 15 
515 11 217 495 572 581 508 512 660 821 509 310 553 
516 11 648 643 399 120 765 486 807 521 557 704 192 
517 5 839 502 161 657 525 
518 11 15 584 360 156 474 63 48 17 290 598 440 
519 11 674 764 125 743 482 449 603 270 782 565 143 
520 10 661 379 685 663 815 849 641 795 288 511 
521 11 765 602 801 399 516 588 648 777 382 573 643 
522 11 194 425 554 335 148 580 144 357 598 823 587 
523 9 820 586 789 691 846 42 832 703 666 
524 11 451 222 11 337 301 210 321 372 119 247 840 
525 11 596 803 161 657 502 687 533 839 479 471 273 
526 11 163 256 32 188 70 682 414 824 434 78 785 
527 11 413 739 3 797 781 357 624 144 391 148 580 
528 11 129 266 651 28 322 104 244 351 72 123 452 
529 11 345 214 10 213 405 363 346 333 65 207 770 
530 11 432 412 639 68 492 113 831 751 689 281 733 
531 5 766 480 383 819 550 
532 11 755 673 713 66 245 429 228 174 110 605 847 
533 11 273 172 547 803 479 596 525 502 839 161 631 
534 11 614 499 723 331 683 590 688 569 507 768 347 
535 11 513 77 587 827 670 823 568 295 608 675 389 
536 11 583 774 666 703 261 572 495 42 209 430 660 
537 11 302 112 171 595 322 465 497 695 266 100 195 
538 11 613 726 848 841 594 620 201 677 19 313 543 
539 10 115 373 637 650 541 844 715 30 27 316 
540 11 601 186 628 591 39 702 809 482 443 632 275 
541 11 637 373 740 817 269 539 30 306 551 675 468 
542 11 59 396 464 645 250 166 387 298 845 97 356 
543 11 285 494 826 279 620 588 22 829 602 382 734 
544 9 794 641 849 815 259 790 813 719 520 
545 11 193 231 177 68 453 639 412 530 432 615 506 
546 10 612 137 599 498 511 481 288 792 216 795 
547 11 172 479 631 533 273 750 792 481 687 599 803 
548 11 705 563 796 634 198 67 633 571 627 578 340 
549 11 749 109 445 745 768 570 676 693 510 834 18 
550 11 383 819 813 531 757 766 646 82 641 794 452 
551 9 608 675 740 670 513 269 535 77 587 
552 11 838 170 618 644 786 834 722 802 18 50 510 
553 11 660 476 821 430 495 217 515 512 774 572 581 
554 11 194 522 425 659 335 823 148 295 580 144 587 
555 11 457 58 424 435 236 182 348 770 390 164 43 
556 11 218 332 270 822 690 565 665 143 603 149 743 
557 11 192 12 807 643 695 648 704 516 493 758 486 
558 11 44 398 225 105 227 329 246 140 409 300 488 
559 11 714 679 686 656 208 54 707 99 316 196 837 
560 11 579 168 310 509 806 240 375 694 512 581 477 
561 11 756 798 57 717 760 647 106 597 655 787 384 
562 9 850 853 753 493 793 145 758 478 108 
563 10 705 548 796 634 633 67 627 578 198 571 
564 10 804 223 728 16 629 752 489 776 304 649 
565 11 822 143 270 332 690 218 556 665 603 743 149 
566 11 416 780 368 55 76 312 190 124 166 183 305 
567 4 837 715 811 27 
568 8 389 827 77 295 471 535 513 670 
569 10 688 723 328 762 614 499 589 496 719 835 
570 11 445 749 109 549 510 745 768 18 590 644 693 
571 10 340 308 625 634 548 705 563 796 578 627 
572 11 495 515 217 508 581 660 774 512 821 536 553 
573 11 777 382 85 602 801 664 279 521 268 765 828 
574 11 406 2 265 378 604 592 692 852 483 709 80 
575 11 852 709 592 261 430 593 2 583 393 476 774 
576 11 847 699 741 747 110 759 245 619 347 673 429 
577 11 284 671 843 785 658 201 652 824 313 731 848 
578 7 627 634 67 563 788 633 705 
579 11 168 310 560 509 240 375 581 806 484 512 477 
580 11 148 144 335 357 522 194 3 598 63 413 739 
581 11 512 217 515 509 310 495 508 572 168 821 579 
582 11 611 507 818 275 683 809 619 591 702 590 186 
583 11 261 536 774 430 209 666 660 703 575 495 572 
584 11 474 15 48 518 290 386 440 514 358 63 598 
585 11 621 420 417 16 649 438 304 728 87 402 752 
586 8 820 523 846 691 789 832 42 489 
587 11 823 513 77 535 816 425 827 295 670 568 608 
588 11 494 22 602 285 826 521 279 382 490 667 543 
589 11 719 328 790 688 499 569 259 723 762 90 614 
590 11 570 534 683 507 445 749 510 768 109 549 782 
591 11 809 186 619 702 275 540 582 611 818 628 507 
592 11 852 709 393 2 692 575 80 153 593 261 574 
593 11 662 575 430 2 147 476 727 553 852 592 660 
594 11 677 233 734 19 538 613 829 726 378 848 543 
595 11 100 266 302 537 112 36 171 322 28 176 155 
596 11 803 525 161 502 657 533 687 839 479 273 547 
597 11 717 387 97 160 561 787 50 760 57 756 645 
598 11 63 144 194 522 335 580 816 148 425 357 587 
599 10 481 792 612 631 546 137 479 547 750 172 
600 9 216 137 772 750 498 773 546 172 496 
601 11 39 628 540 632 47 186 403 591 809 711 642 
602 11 382 588 279 521 285 777 494 573 22 664 801 
603 11 743 665 349 270 125 556 782 565 822 218 332 
604 11 378 95 233 406 574 483 677 19 594 692 80 
605 10 228 812 713 532 673 763 842 755 640 503 
606 11 459 488 227 607 778 314 469 300 114 299 409 
607 11 778 314 469 299 114 459 392 684 251 374 151 
608 9 551 675 670 740 513 535 269 77 587 
609 11 184 384 230 647 655 722 760 725 771 618 786 
610 11 472 626 404 283 278 169 458 359 36 455 395 
611 11 818 582 507 619 683 747 809 275 591 699 347 
612 10 546 599 137 481 792 498 511 288 795 216 
613 11 538 848 726 841 201 594 620 843 313 19 677 
614 10 723 688 499 569 534 328 762 331 589 768 
615 11 453 177 500 353 128 193 106 231 545 487 630 
616 11 178 712 56 668 486 828 120 195 399 374 801 
617 11 162 738 153 376 249 483 80 239 808 692 393 
618 10 786 722 50 552 787 802 760 184 609 160 
619 11 611 809 818 591 186 747 582 699 507 741 275 
620 8 841 708 726 826 538 22 543 613 
621 11 585 420 417 16 649 438 728 87 304 402 752 
622 7 775 735 767 810 81 698 811 
623 10 103 104 497 129 701 322 244 753 493 850 
624 11 226 260 219 797 364 781 339 391 739 527 325 
625 5 308 571 340 634 578 
626 11 610 472 404 283 458 278 169 36 359 154 455 
627 8 578 67 633 634 788 563 705 548 
628 11 39 601 632 540 47 186 711 591 642 809 741 
629 7 489 776 804 564 223 586 752 
630 10 771 754 655 669 106 230 647 412 384 500 
631 11 479 792 481 547 599 687 172 533 750 273 803 
632 11 628 47 39 642 601 711 741 540 174 186 403 
633 11 67 627 563 705 578 548 505 634 796 788 198 
634 8 578 563 627 705 548 67 571 633 
635 6 470 833 799 708 108 501 
636 11 301 372 825 253 247 724 727 337 255 210 662 
637 11 541 373 539 740 30 817 269 115 650 675 844 
638 11 851 14 721 81 698 791 836 700 810 754 735 
639 11 412 530 432 68 492 113 831 751 689 281 733 
640 6 503 654 716 763 853 108 
641 10 813 663 794 379 544 82 520 849 815 661 
642 11 711 174 632 66 47 429 245 741 628 847 532 
643 11 516 648 120 486 399 557 765 668 807 192 695 
644 11 18 170 510 834 838 109 552 549 749 570 445 
645 11 97 845 356 149 396 387 59 597 542 166 218 
646 11 757 452 4 187 550 783 244 82 383 351 813 
647 11 655 771 384 798 230 184 609 106 760 561 756 
648 11 516 643 807 557 399 120 704 765 192 12 486 
649 11 16 752 87 728 621 585 223 420 804 776 402 
650 5 844 715 27 539 567 
651 11 28 123 72 351 428 744 395 528 40 266 325 
652 11 313 671 731 201 842 577 843 658 841 848 284 
653 7 773 854 273 172 736 533 772 
654 9 716 503 763 640 108 793 470 799 853 
655 11 647 771 384 230 798 184 609 106 630 760 561 
656 11 714 33 707 506 679 196 559 686 54 68 113 
657 9 161 471 525 596 803 502 687 389 517 
658 11 671 577 284 652 174 785 66 842 731 201 532 
659 7 5 554 737 194 522 187 425 
660 11 553 476 821 495 217 430 515 774 572 512 581 
661 9 520 685 379 663 815 849 288 795 511 
662 11 727 147 253 593 476 724 430 553 636 2 255 
663 11 379 82 641 520 661 813 737 187 5 794 849 
664 11 279 382 777 573 102 602 268 285 197 85 494 
665 11 603 556 743 270 218 332 349 822 565 690 143 
666 11 703 42 536 774 583 508 572 209 691 495 261 
667 8 490 732 501 22 833 704 708 588 
668 11 486 120 695 643 712 616 399 178 465 516 557 
669 9 754 836 725 791 638 851 14 630 230 
670 8 675 608 513 551 535 568 77 827 
671 11 652 577 658 731 842 201 313 284 843 785 228 
672 11 25 255 247 329 372 225 398 122 301 44 253 
673 11 713 755 110 532 245 429 228 66 605 847 174 
674 11 519 764 482 125 443 449 743 782 603 270 485 
675 8 551 608 670 740 513 535 77 269 
676 8 745 549 834 109 749 693 445 768 
677 11 19 233 594 378 604 734 95 538 613 848 855 
678 11 119 321 461 238 840 11 330 748 524 451 222 
679 11 714 559 656 33 686 707 54 506 99 196 208 
680 11 90 795 288 511 835 259 685 762 328 498 815 
681 11 303 333 468 405 358 817 248 306 386 290 30 
682 11 188 78 221 467 526 289 175 444 434 163 410 
683 11 507 818 611 582 331 534 590 347 747 275 499 
684 11 151 268 409 85 374 392 197 607 105 828 778 
685 11 795 288 511 815 661 849 520 680 259 90 546 
686 11 54 208 559 837 714 27 707 196 706 679 656 
687 11 479 631 525 596 803 161 547 533 657 696 792 
688 10 569 723 499 328 614 762 589 719 496 534 
689 11 751 831 733 281 492 791 836 113 14 432 754 
690 11 332 218 822 143 565 556 270 149 356 665 845 
691 10 846 832 586 523 820 703 42 666 484 508 
692 11 80 393 592 709 153 852 483 2 575 574 406 
693 7 768 745 445 549 749 109 676 
694 9 720 806 761 491 788 800 784 93 240 
695 11 465 668 557 486 643 192 120 497 12 516 648 
696 9 746 687 471 657 389 161 525 295 596 
697 11 241 504 155 362 460 277 243 21 176 431 274 
698 11 81 721 700 767 810 638 851 14 735 791 622 
699 11 747 347 576 759 818 619 331 611 683 507 847 
700 11 698 81 767 14 638 721 811 851 791 810 836 
701 10 753 103 850 562 493 623 758 853 497 12 
702 11 275 591 809 764 482 186 540 582 443 611 674 
703 11 666 42 536 774 209 583 691 508 572 118 261 
704 11 807 12 742 758 192 493 145 732 557 478 648 
705 10 563 548 796 634 67 633 627 198 578 571 
706 9 54 811 700 281 837 733 196 567 707 
707 11 196 656 54 506 714 281 686 113 706 733 33 
708 6 826 620 635 22 833 490 
709 11 852 592 393 575 692 2 80 153 261 593 583 
710 11 477 784 484 240 800 761 375 779 579 806 168 
711 11 642 741 429 174 66 632 847 245 628 755 47 
712 11 178 120 399 616 486 765 801 668 828 643 516 
713 10 673 755 110 532 228 245 605 812 429 66 
714 11 679 559 656 686 707 33 54 196 506 208 99 
715 4 650 844 27 567 
716 9 654 503 763 640 108 470 793 799 635 
717 11 597 387 561 787 760 160 756 50 57 97 798 
718 11 730 306 468 269 290 303 551 816 608 740 675 
719 11 589 259 328 790 688 90 569 680 762 499 815 
720 8 694 491 93 806 788 41 761 830 
721 11 81 698 810 851 638 735 14 767 700 791 622 
722 8 786 802 618 609 184 552 50 760 
723 10 614 688 569 499 328 534 762 589 331 719 
724 11 821 825 476 553 512 660 509 581 217 636 310 
725 4 230 609 669 184 
726 10 841 538 613 848 620 201 313 708 652 594 
727 11 662 253 147 593 724 636 255 476 825 553 372 
728 11 223 16 804 752 649 564 304 585 621 776 420 
729 11 342 29 45 237 343 315 438 136 417 286 159 
730 11 718 269 306 468 816 551 608 740 675 290 513 
731 11 842 652 313 671 201 763 470 635 605 716 228 
732 8 501 833 667 490 478 145 742 799 
733 11 281 689 113 751 831 492 791 836 14 196 432 
734 11 829 233 594 677 378 543 211 19 538 604 265 
735 10 810 721 81 622 698 767 851 775 638 700 
736 7 854 839 653 502 273 517 622 
737 9 5 187 659 82 663 379 661 4 520 
738 11 376 162 239 617 249 808 402 286 153 215 483 
739 11 3 527 797 413 781 357 624 144 148 580 260 
740 9 551 675 608 269 541 670 637 306 730 
741 11 847 711 245 429 576 619 66 110 174 642 755 
742 11 758 145 704 493 478 12 807 732 793 192 501 
743 11 603 349 125 665 782 270 556 519 170 565 838 
744 11 40 123 325 72 395 428 651 28 219 351 86 
745 10 549 445 749 768 109 693 676 570 510 834 
746 9 696 389 471 295 687 657 827 161 568 
747 11 699 347 818 611 619 331 576 759 683 507 582 
748 11 238 840 198 678 321 119 796 11 633 67 548 
749 11 549 445 109 745 570 768 510 693 676 18 834 
750 11 172 547 137 273 600 792 772 479 481 533 599 
751 11 689 831 492 836 733 791 281 113 14 754 432 
752 10 649 223 804 728 776 16 87 489 789 585 
753 10 562 850 493 853 701 758 742 145 793 12 
754 10 669 836 791 831 751 14 638 689 851 492 
755 11 673 532 245 713 429 110 66 174 228 847 605 
756 11 561 798 57 106 647 128 717 500 655 760 597 
757 11 452 646 244 550 383 4 351 819 783 187 82 
758 11 493 742 12 704 145 192 753 478 807 562 793 
759 9 347 699 747 790 480 576 331 589 544 
760 11 787 50 184 609 618 384 647 798 561 655 717 
761 9 800 784 477 240 779 710 806 694 484 
762 10 496 835 328 569 90 688 723 680 589 614 
763 9 716 503 654 640 470 108 842 635 605 
764 11 674 482 519 443 702 275 125 449 782 485 540 
765 11 399 801 521 120 516 486 643 712 648 602 668 
766 7 531 480 383 794 550 819 813 
767 9 698 81 700 810 622 775 811 721 735 
768 9 745 693 445 549 749 109 570 676 510 
769 11 99 207 361 346 316 559 679 65 213 714 208 
770 11 348 363 182 43 435 457 35 213 214 346 236 
771 10 655 647 230 384 630 798 184 106 609 725 
772 5 773 600 750 653 216 
773 5 772 653 750 172 273 
774 11 536 583 495 660 572 430 217 515 553 261 666 
775 7 622 767 811 810 735 81 698 
776 9 489 804 752 629 223 820 586 523 789 
777 11 573 382 602 85 801 664 279 521 765 268 588 
778 11 607 314 469 299 114 459 392 251 684 243 374 
779 7 800 761 784 477 710 240 694 
780 11 416 566 312 166 190 298 396 183 368 845 26 
781 11 797 364 739 3 260 624 527 219 226 413 783 
782 11 125 349 743 603 18 590 510 170 519 570 674 
783 11 4 364 781 187 646 219 452 260 351 797 428 
784 10 477 761 800 240 710 779 806 694 484 375 
785 11 284 824 577 843 658 414 671 163 201 652 848 
786 8 722 802 618 552 609 184 834 50 
787 11 50 760 160 618 717 184 609 786 722 597 552 
788 7 491 720 694 93 41 627 806 
789 10 523 820 586 42 118 703 666 691 776 209 
790 11 589 719 259 328 499 688 544 759 569 849 723 
791 11 836 14 638 689 751 831 851 754 698 700 733 
792 10 481 599 631 479 547 612 750 687 172 137 
793 11 108 799 478 145 853 654 562 742 833 501 716 
794 9 544 641 813 849 766 815 480 663 379 
795 11 288 511 685 680 90 815 546 259 612 849 835 
796 11 548 705 198 563 634 571 633 67 627 578 340 
797 11 739 781 3 527 413 624 260 364 226 219 391 
798 11 561 647 756 655 106 771 384 760 230 184 500 
799 10 478 793 108 145 833 501 470 732 742 635 
800 9 761 784 477 779 240 710 694 806 484 
801 11 765 399 521 712 777 573 120 828 486 85 602 
802 7 722 786 618 552 834 609 184 
803 11 596 525 161 502 533 657 687 479 839 273 547 
804 10 223 776 728 752 489 564 16 629 649 87 
805 11 462 13 455 169 359 278 88 86 258 191 17 
806 11 694 720 240 761 560 784 800 477 579 93 491 
807 11 704 12 192 557 648 742 758 493 516 643 732 
808 11 402 738 617 376 87 162 153 621 239 286 420 
809 11 591 186 619 275 702 582 611 818 540 507 747 
810 11 735 721 81 698 767 622 851 638 700 775 14 
811 8 767 775 700 567 706 622 698 81 
812 3 605 228 713 
813 10 641 794 82 550 663 544 379 383 766 531 
814 11 235 220 6 397 204 292 485 443 449 98 124 
815 11 849 259 685 795 288 520 680 511 544 661 719 
816 11 587 513 823 535 77 425 598 608 730 551 670 
817 11 30 306 468 541 373 269 637 740 681 303 333 
818 11 611 507 582 683 619 747 347 699 331 809 275 
819 5 383 550 531 766 244 
820 8 523 586 789 691 846 42 832 776 
821 11 553 660 476 512 217 495 515 581 724 572 509 
822 11 565 143 270 332 690 218 556 665 603 149 743 
823 11 587 77 295 535 425 513 827 816 568 194 522 
824 11 785 284 163 577 414 843 658 526 671 256 201 
825 11 724 636 301 210 253 337 830 372 821 560 509 
826 9 22 494 708 588 620 285 490 543 667 
827 11 568 77 295 389 535 513 823 587 670 471 746 
828 11 374 178 712 392 616 801 85 399 765 56 120 
829 11 734 211 543 594 233 102 279 285 140 664 677 
830 11 93 41 491 720 560 806 694 210 788 505 579 
831 11 751 689 492 113 733 836 281 791 432 412 530 
832 8 846 691 484 586 710 375 523 820 
833 7 501 732 799 478 635 145 470 
834 11 644 676 18 109 510 170 549 552 749 745 445 
835 10 496 90 762 498 680 328 216 288 511 569 
836 11 791 14 751 689 638 754 831 851 733 281 492 
837 8 27 54 567 686 208 706 715 811 
838 11 170 552 644 18 349 834 510 618 50 160 786 
839 9 502 517 596 525 803 161 533 736 854 
840 11 321 11 238 451 505 678 119 748 524 633 67 
841 9 726 620 313 538 613 201 708 848 652 
842 10 731 652 671 313 763 605 228 716 470 201 
843 11 577 201 848 284 785 652 671 613 313 824 726 
844 3 650 715 27 
845 11 356 645 149 97 396 59 312 690 166 218 332 
846 8 691 832 586 523 820 484 42 666 
847 11 741 576 245 429 110 711 755 673 66 174 532 
848 11 613 726 538 201 843 841 313 652 577 620 19 
849 11 815 259 685 544 795 520 680 288 719 511 661 
850 9 562 853 753 493 701 793 145 758 108 
851 11 638 721 14 81 698 791 836 810 700 735 767 
852 11 709 592 393 575 692 2 80 261 153 593 430 
853 9 562 850 753 793 108 145 478 503 640 
854 8 736 653 839 273 502 533 773 517 
855 11 414 70 249 19 95 256 677 604 32 162 483 
DEPOT_SECTION
   1
   -1
EOF
