NAME :  X-n936-kX-w374-c7.cctp
COMMENT : 	Adapted by Maziero, Usberti and Cavellucci from the Uchoa, Pecin, Pessoa, Poggi, Subramanian, and Vidal (2013)
TYPE :  CCTP
DIMENSION :    928
EDGE_WEIGHT_TYPE : 	EUC_2D	
CAPACITY : 	138
VERTICES_WITHIN_COVERAGE :  7
VERTICES_WITH_DEMAND : 	374
NODE_COORD_SECTION
1 500 500
2 971 544
3 564 976
4 266 4
5 395 95
6 316 877
7 963 89
8 496 96
9 274 493
10 516 598
11 338 849
12 58 395
13 923 411
14 670 912
15 576 101
16 902 552
17 888 709
18 703 539
19 10 341
20 55 984
21 420 132
22 870 218
23 933 196
24 123 372
25 973 824
26 253 201
27 84 941
28 792 164
29 702 811
30 263 756
31 161 986
32 322 75
33 969 514
34 140 665
35 313 386
36 53 583
37 836 244
38 450 730
39 642 334
40 907 431
41 570 705
42 587 264
43 703 666
44 877 132
45 138 487
46 275 598
47 2 354
48 538 460
49 716 573
50 65 579
51 505 17
52 544 958
53 175 838
54 838 67
55 122 410
56 126 430
57 598 544
58 299 442
59 224 930
60 593 453
61 764 848
62 485 95
63 130 114
64 832 863
65 659 293
66 259 936
67 615 141
68 808 263
69 970 317
70 815 888
71 405 330
72 64 525
73 588 746
74 170 392
75 681 640
76 223 283
77 109 297
78 675 904
79 576 171
80 484 439
81 329 79
82 504 393
83 676 664
84 124 658
85 749 89
86 162 848
87 521 0
88 1 873
89 72 718
90 983 770
91 104 702
92 47 781
93 706 244
94 626 678
95 370 431
96 776 346
97 259 339
98 579 606
99 719 491
100 777 297
101 45 562
102 662 602
103 502 327
104 218 628
105 581 867
106 517 232
107 524 21
108 348 100
109 84 93
110 118 76
111 544 801
112 990 739
113 980 477
114 267 231
115 774 530
116 45 336
117 390 140
118 93 808
119 377 216
120 998 949
121 645 597
122 554 435
123 973 506
124 405 399
125 778 252
126 935 755
127 130 186
128 405 776
129 20 901
130 349 926
131 874 686
132 212 933
133 313 230
134 239 121
135 180 574
136 620 990
137 797 316
138 876 34
139 481 60
140 501 833
141 315 125
142 856 368
143 158 494
144 304 611
145 916 16
146 606 344
147 48 866
148 557 242
149 348 238
150 881 199
151 942 308
152 367 909
153 567 429
154 263 687
155 80 592
156 917 557
157 229 120
158 663 574
159 661 630
160 969 401
161 193 230
162 820 144
163 330 976
164 363 421
165 24 571
166 799 697
167 693 323
168 519 860
169 487 344
170 497 48
171 803 6
172 933 729
173 50 642
174 137 27
175 668 500
176 679 303
177 387 948
178 770 982
179 751 922
180 911 626
181 874 634
182 775 271
183 464 526
184 358 1
185 87 466
186 360 776
187 678 210
188 831 505
189 310 98
190 60 386
191 211 11
192 717 474
193 27 576
194 239 512
195 339 610
196 480 11
197 427 835
198 590 578
199 288 823
200 164 489
201 900 201
202 632 524
203 738 109
204 893 40
205 540 895
206 212 305
207 323 70
208 363 67
209 646 520
210 9 393
211 128 947
212 353 737
213 216 578
214 25 274
215 195 119
216 221 479
217 456 958
218 94 951
219 14 611
220 398 493
221 271 437
222 376 441
223 33 583
224 899 242
225 773 188
226 860 280
227 149 839
228 813 956
229 773 271
230 863 14
231 216 323
232 808 127
233 287 138
234 529 712
235 538 620
236 631 17
237 35 132
238 332 451
239 373 454
240 607 153
241 941 985
242 573 829
243 434 192
244 138 825
245 627 320
246 883 457
247 383 339
248 206 590
249 924 152
250 717 463
251 340 43
252 870 772
253 363 386
254 862 991
255 375 592
256 766 958
257 679 316
258 931 697
259 11 913
260 611 501
261 310 130
262 867 257
263 728 74
264 698 23
265 898 404
266 438 862
267 452 788
268 397 910
269 786 605
270 745 715
271 69 902
272 660 810
273 521 591
274 713 540
275 916 907
276 513 141
277 354 109
278 596 71
279 280 435
280 563 585
281 740 301
282 476 563
283 906 759
284 494 590
285 834 195
286 765 282
287 488 289
288 568 869
289 997 212
290 702 13
291 175 81
292 125 900
293 290 663
294 852 555
295 71 327
296 84 429
297 982 249
298 611 223
299 731 863
300 442 967
301 40 563
302 703 347
303 661 662
304 773 288
305 638 588
306 678 775
307 824 341
308 729 935
309 650 197
310 415 366
311 134 657
312 542 714
313 154 654
314 624 499
315 960 5
316 522 197
317 935 115
318 338 567
319 621 926
320 554 225
321 976 124
322 422 479
323 892 594
324 605 401
325 963 118
326 68 159
327 499 330
328 218 594
329 790 923
330 296 46
331 623 94
332 14 439
333 49 257
334 454 598
335 398 986
336 195 838
337 540 227
338 718 784
339 409 746
340 35 456
341 762 832
342 592 591
343 196 254
344 394 226
345 418 462
346 409 522
347 753 35
348 202 846
349 916 395
350 830 95
351 24 750
352 976 279
353 865 302
354 343 344
355 409 702
356 301 254
357 578 746
358 767 318
359 259 335
360 349 767
361 571 676
362 744 582
363 380 734
364 366 576
365 64 936
366 248 717
367 531 123
368 176 708
369 479 758
370 82 818
371 922 369
372 684 955
373 942 265
374 374 998
375 717 478
376 367 372
377 781 973
378 81 883
379 536 97
380 787 785
381 26 285
382 491 117
383 949 12
384 80 279
385 916 998
386 715 860
387 463 711
388 385 797
389 196 283
390 602 591
391 728 198
392 577 759
393 204 79
394 251 30
395 746 628
396 334 850
397 338 954
398 308 324
399 969 149
400 705 430
401 22 125
402 610 463
403 922 681
404 439 747
405 13 834
406 946 578
407 713 402
408 491 438
409 893 830
410 558 441
411 525 263
412 517 36
413 571 882
414 643 965
415 120 476
416 377 460
417 787 273
418 849 702
419 340 19
420 635 520
421 607 304
422 779 347
423 603 139
424 55 419
425 928 789
426 487 234
427 404 845
428 108 249
429 971 558
430 983 839
431 466 494
432 788 959
433 726 276
434 0 885
435 504 525
436 759 351
437 132 804
438 680 566
439 801 108
440 90 614
441 69 317
442 666 531
443 638 898
444 319 639
445 358 855
446 345 118
447 501 939
448 809 837
449 271 94
450 184 431
451 577 166
452 249 631
453 37 855
454 225 839
455 257 910
456 163 960
457 336 595
458 591 477
459 638 385
460 398 781
461 801 917
462 980 748
463 13 199
464 629 565
465 518 59
466 171 816
467 861 799
468 527 405
469 520 113
470 959 231
471 927 484
472 320 976
473 460 840
474 638 118
475 343 933
476 4 457
477 535 683
478 30 800
479 496 80
480 243 194
481 461 987
482 374 512
483 630 363
484 845 547
485 434 479
486 162 843
487 50 364
488 555 775
489 171 505
490 869 873
491 15 809
492 700 403
493 597 797
494 795 196
495 682 724
496 335 977
497 569 427
498 379 633
499 481 295
500 215 59
501 651 692
502 560 666
503 157 438
504 769 951
505 824 134
506 850 450
507 348 742
508 730 945
509 703 412
510 773 913
511 769 561
512 538 228
513 229 200
514 806 122
515 711 514
516 834 378
517 173 688
518 879 789
519 548 987
520 961 861
521 634 81
522 876 764
523 230 630
524 466 535
525 536 102
526 133 535
527 784 861
528 602 148
529 134 487
530 940 737
531 815 360
532 821 842
533 512 487
534 38 639
535 8 577
536 278 643
537 79 371
538 126 655
539 627 223
540 336 973
541 74 924
542 350 839
543 9 780
544 57 143
545 66 944
546 814 382
547 74 990
548 707 856
549 447 745
550 71 122
551 820 364
552 254 702
553 943 660
554 632 31
555 820 679
556 873 665
557 101 533
558 456 728
559 726 474
560 436 619
561 806 226
562 458 967
563 771 559
564 24 828
565 761 118
566 7 144
567 263 505
568 419 445
569 3 602
570 423 799
571 89 151
572 604 17
573 397 585
574 480 109
575 215 101
576 269 982
577 134 993
578 905 394
579 185 224
580 304 162
581 234 264
582 878 612
583 620 156
584 303 278
585 44 855
586 533 864
587 718 798
588 64 437
589 743 738
590 455 890
591 760 816
592 87 637
593 834 898
594 185 572
595 599 142
596 76 267
597 648 838
598 715 431
599 170 474
600 439 608
601 847 75
602 991 131
603 987 776
604 783 329
605 921 646
606 411 976
607 638 775
608 423 993
609 684 597
610 329 406
611 293 468
612 875 548
613 784 495
614 549 509
615 197 614
616 357 841
617 191 919
618 829 509
619 176 239
620 292 100
621 710 967
622 381 271
623 133 135
624 807 453
625 467 749
626 369 804
627 549 358
628 228 411
629 422 893
630 412 751
631 982 733
632 589 381
633 860 42
634 78 903
635 569 345
636 122 157
637 894 355
638 395 686
639 527 51
640 966 7
641 336 670
642 648 970
643 669 263
644 345 688
645 334 63
646 804 987
647 665 637
648 632 101
649 772 217
650 445 251
651 807 906
652 251 470
653 484 123
654 98 682
655 843 317
656 959 30
657 262 911
658 871 459
659 728 510
660 334 535
661 348 353
662 946 531
663 118 14
664 291 752
665 938 361
666 85 112
667 874 752
668 566 966
669 680 491
670 130 180
671 558 532
672 228 473
673 177 434
674 937 557
675 170 92
676 484 525
677 689 524
678 479 920
679 617 651
680 609 240
681 773 84
682 857 102
683 619 498
684 13 695
685 905 706
686 446 478
687 555 993
688 112 144
689 815 693
690 826 813
691 634 14
692 774 487
693 313 120
694 277 759
695 391 455
696 817 760
697 787 325
698 286 363
699 189 724
700 517 641
701 701 412
702 39 562
703 722 245
704 100 949
705 98 751
706 928 681
707 508 959
708 247 144
709 101 476
710 46 938
711 395 820
712 592 826
713 410 990
714 693 941
715 60 300
716 220 235
717 801 457
718 868 188
719 509 886
720 171 754
721 631 311
722 773 569
723 572 581
724 938 403
725 334 749
726 317 863
727 410 401
728 967 345
729 923 234
730 609 241
731 13 883
732 155 385
733 486 997
734 463 764
735 698 572
736 356 465
737 694 529
738 893 883
739 608 537
740 876 170
741 293 93
742 620 941
743 217 857
744 971 225
745 607 215
746 566 671
747 829 126
748 353 996
749 38 186
750 356 695
751 68 960
752 688 990
753 569 563
754 819 29
755 397 484
756 91 351
757 258 668
758 486 578
759 599 841
760 637 370
761 743 89
762 93 635
763 287 690
764 846 975
765 738 183
766 78 389
767 404 706
768 195 232
769 537 567
770 81 414
771 721 77
772 618 854
773 512 627
774 448 179
775 334 10
776 995 688
777 613 12
778 725 542
779 171 228
780 663 226
781 867 142
782 161 250
783 485 465
784 913 100
785 880 698
786 213 444
787 360 974
788 485 582
789 336 126
790 35 152
791 205 23
792 77 83
793 498 141
794 990 797
795 261 397
796 838 659
797 706 222
798 136 687
799 92 894
800 869 500
801 878 112
802 744 525
803 96 830
804 725 444
805 10 324
806 781 904
807 995 534
808 915 464
809 679 632
810 419 805
811 338 854
812 400 176
813 536 577
814 535 103
815 8 650
816 94 338
817 812 968
818 206 62
819 711 300
820 367 345
821 817 375
822 215 838
823 482 199
824 538 736
825 437 640
826 546 974
827 185 253
828 381 687
829 639 364
830 888 908
831 12 388
832 624 519
833 965 418
834 130 464
835 985 43
836 445 191
837 36 437
838 869 362
839 449 675
840 980 804
841 54 321
842 901 710
843 582 253
844 813 96
845 295 739
846 726 504
847 888 766
848 485 952
849 617 620
850 47 135
851 699 715
852 990 890
853 951 664
854 274 884
855 677 618
856 270 576
857 812 834
858 13 418
859 309 509
860 727 310
861 788 858
862 580 301
863 414 438
864 712 540
865 48 732
866 490 483
867 636 970
868 30 346
869 841 214
870 962 807
871 947 684
872 440 957
873 990 333
874 417 506
875 149 678
876 153 236
877 396 878
878 984 703
879 373 62
880 334 190
881 543 908
882 988 913
883 575 465
884 600 467
885 989 243
886 463 540
887 40 530
888 522 854
889 870 975
890 643 379
891 884 415
892 124 779
893 402 955
894 466 117
895 547 294
896 380 304
897 73 831
898 299 858
899 730 158
900 674 908
901 309 487
902 739 812
903 546 173
904 734 916
905 220 444
906 293 376
907 670 846
908 87 244
909 559 950
910 716 790
911 891 306
912 842 77
913 277 644
914 589 803
915 450 327
916 179 362
917 31 55
918 824 185
919 545 822
920 863 311
921 683 106
922 158 219
923 823 342
924 733 905
925 794 607
926 661 205
927 888 583
928 208 385
DEMAND_SECTION
2 88
3 98
4 94
5 89
6 83
7 65
8 85
9 66
10 89
11 80
12 58
13 54
14 75
15 60
16 77
17 69
18 79
19 99
20 86
21 63
22 84
23 92
24 87
25 54
26 93
27 58
28 62
29 98
30 50
31 71
32 55
33 61
34 76
35 76
36 88
37 51
38 78
39 71
40 90
41 90
42 87
43 80
44 74
45 83
46 79
47 77
48 58
49 53
50 99
51 62
52 95
53 61
54 84
55 86
56 91
57 79
58 93
59 76
60 88
61 68
62 80
63 59
64 82
65 53
66 67
67 90
68 51
69 99
70 72
71 70
72 85
73 80
74 80
75 81
76 100
77 60
78 74
79 52
80 70
81 70
82 53
83 92
84 55
85 73
86 63
87 55
88 68
89 100
90 69
91 77
92 55
93 68
94 81
95 89
96 70
97 59
98 76
99 51
100 99
101 92
102 78
103 75
104 84
105 98
106 81
107 96
108 99
109 100
110 71
111 50
112 76
113 80
114 55
115 51
116 79
117 62
118 86
119 62
120 79
121 81
122 84
123 72
124 77
125 61
126 64
127 70
128 84
129 90
130 63
131 74
132 92
133 93
134 58
135 99
136 98
137 57
138 50
139 87
140 85
141 62
142 83
143 82
144 89
145 97
146 68
147 52
148 81
149 91
150 64
151 68
152 87
153 85
154 100
155 74
156 66
157 59
158 95
159 67
160 86
161 58
162 92
163 69
164 92
165 64
166 75
167 52
168 91
169 70
170 52
171 66
172 68
173 61
174 72
175 60
176 70
177 83
178 53
179 57
180 70
181 71
182 61
183 86
184 54
185 73
186 79
187 97
188 86
189 75
190 84
191 92
192 87
193 78
194 74
195 50
196 62
197 69
198 92
199 50
200 73
201 100
202 99
203 98
204 63
205 59
206 50
207 97
208 82
209 50
210 74
211 80
212 62
213 66
214 88
215 79
216 94
217 58
218 83
219 51
220 97
221 71
222 94
223 57
224 50
225 60
226 73
227 6
228 4
229 4
230 4
231 1
232 2
233 2
234 1
235 9
236 7
237 4
238 7
239 2
240 8
241 3
242 9
243 7
244 4
245 8
246 2
247 2
248 4
249 1
250 6
251 1
252 3
253 2
254 8
255 5
256 8
257 4
258 1
259 4
260 3
261 6
262 5
263 6
264 3
265 2
266 6
267 3
268 8
269 1
270 6
271 10
272 1
273 7
274 5
275 6
276 1
277 10
278 7
279 8
280 8
281 5
282 5
283 2
284 10
285 1
286 6
287 2
288 4
289 3
290 5
291 7
292 5
293 2
294 3
295 6
296 9
297 2
298 7
299 5
300 8
301 5
302 1
303 8
304 7
305 4
306 5
307 5
308 5
309 3
310 6
311 7
312 4
313 5
314 6
315 8
316 2
317 3
318 6
319 4
320 9
321 2
322 9
323 7
324 10
325 5
326 10
327 6
328 3
329 6
330 7
331 7
332 1
333 8
334 4
335 8
336 9
337 8
338 2
339 8
340 10
341 9
342 1
343 10
344 4
345 5
346 3
347 10
348 3
349 2
350 9
351 5
352 7
353 4
354 7
355 6
356 2
357 6
358 1
359 6
360 8
361 5
362 8
363 2
364 8
365 4
366 7
367 2
368 1
369 1
370 9
371 7
372 7
373 10
374 4
375 1
COVERAGE_SECTION
2 7 429 807 662 33 674 123 406 
3 7 668 826 519 687 909 52 136 
4 6 394 330 191 791 775 500 
5 7 879 208 277 21 117 108 446 
6 7 726 898 396 811 11 854 445 
7 7 325 321 317 602 784 835 656 
8 7 62 479 574 382 469 653 894 
9 7 567 611 652 901 859 194 672 
10 7 273 284 773 813 235 788 758 
11 7 396 811 542 445 616 726 6 
12 7 190 766 424 770 487 537 588 
13 7 349 724 578 40 265 891 371 
14 7 900 78 443 714 372 319 742 
15 7 278 379 525 814 423 595 331 
16 7 156 612 927 674 323 662 294 
17 7 842 785 685 131 418 403 258 
18 7 864 274 737 677 778 515 735 
19 7 47 805 868 116 487 831 841 
20 7 547 751 545 710 365 218 27 
21 7 117 5 812 894 774 243 574 
22 7 150 869 718 201 224 262 37 
23 7 201 729 470 249 744 150 224 
24 7 732 55 756 537 816 766 74 
25 7 430 870 840 794 520 603 90 
26 7 480 513 114 716 708 580 581 
27 7 218 545 704 541 365 751 634 
28 7 225 494 162 918 232 505 514 
29 7 587 910 338 902 272 306 548 
30 7 694 664 845 366 552 154 763 
31 7 456 577 211 704 617 132 218 
32 7 207 81 645 189 741 108 251 
33 7 123 662 2 807 113 429 471 
34 7 311 875 84 538 313 798 517 
35 7 906 610 698 661 253 354 795 
36 7 50 223 101 301 702 193 155 
37 7 869 68 262 561 22 226 285 
38 7 558 549 404 387 625 734 369 
39 7 245 721 829 483 760 146 257 
40 7 13 265 891 808 246 349 578 
41 7 312 361 746 502 477 234 357 
42 7 843 730 680 148 862 421 298 
43 7 83 75 303 809 647 851 159 
44 7 781 801 682 740 747 784 249 
45 7 529 143 415 834 200 599 489 
46 7 856 144 452 536 913 523 328 
47 7 19 868 805 831 210 116 487 
48 7 410 122 533 883 153 497 614 
49 7 735 362 778 274 864 18 438 
50 7 36 155 101 301 702 223 193 
51 7 107 412 87 196 170 639 465 
52 7 826 909 668 3 519 707 687 
53 7 486 86 336 466 227 348 244 
54 7 912 601 350 633 844 682 754 
55 7 56 24 732 770 296 503 766 
56 7 55 503 834 296 415 770 673 
57 7 739 198 753 832 464 202 671 
58 7 279 611 221 238 901 610 652 
59 7 132 617 66 455 657 456 854 
60 7 884 402 883 458 153 497 410 
61 7 341 527 861 591 299 902 448 
62 7 8 574 479 382 653 894 139 
63 7 623 688 110 636 666 675 109 
64 7 532 70 448 593 857 490 861 
65 7 176 257 643 721 245 39 167 
66 7 657 455 59 132 576 854 617 
67 7 423 240 528 583 595 474 648 
68 7 417 125 37 182 229 561 304 
69 7 873 728 151 352 665 373 297 
70 7 651 593 64 461 806 861 527 
71 7 247 896 310 820 915 376 661 
72 7 887 557 101 301 702 50 36 
73 7 357 392 488 41 824 493 312 
74 7 732 916 928 450 673 503 24 
75 7 809 647 159 855 83 303 43 
76 7 581 206 389 343 231 716 827 
77 7 384 816 441 596 295 428 715 
78 7 900 14 443 714 372 319 548 
79 7 451 903 528 240 595 423 583 
80 7 408 783 866 82 686 468 533 
81 7 32 207 645 189 108 208 251 
82 7 468 408 80 169 627 327 122 
83 7 303 75 43 647 809 159 501 
84 7 538 311 34 313 798 875 654 
85 7 761 203 681 263 771 565 347 
86 7 486 53 227 244 466 336 348 
87 7 107 51 412 196 639 170 465 
88 7 434 731 129 453 259 405 585 
89 7 865 91 705 654 351 684 92 
90 7 603 462 794 112 840 631 870 
91 7 654 798 89 84 705 875 34 
92 7 478 543 351 491 865 370 564 
93 7 703 797 433 643 187 780 391 
94 7 679 501 303 83 361 647 159 
95 7 164 222 239 416 695 736 238 
96 7 422 436 604 697 358 137 531 
97 7 359 698 231 906 398 206 795 
98 7 342 280 723 390 198 849 235 
99 7 375 846 192 559 659 515 250 
100 7 304 286 358 182 229 417 137 
101 7 301 702 36 165 193 223 50 
102 7 121 855 609 158 159 305 809 
103 7 327 169 499 287 915 627 895 
104 7 523 615 452 328 248 213 757 
105 7 288 413 759 242 772 712 586 
106 7 512 337 426 411 316 320 148 
107 7 412 51 87 639 170 465 196 
108 7 277 446 81 789 32 208 189 
109 7 792 666 550 110 63 850 544 
110 7 109 63 792 666 174 675 291 
111 7 919 488 242 914 392 493 140 
112 7 631 462 90 878 603 530 776 
113 7 123 33 471 807 833 662 808 
114 7 26 356 480 133 581 716 513 
115 7 563 802 511 613 722 692 659 
116 7 841 868 295 487 441 19 805 
117 7 21 812 5 277 446 789 108 
118 7 370 803 897 437 892 244 92 
119 7 344 149 812 880 622 243 133 
120 7 882 852 241 275 520 385 430 
121 7 305 102 158 464 849 159 855 
122 7 410 153 497 48 883 468 60 
123 7 33 113 807 662 2 471 429 
124 7 727 310 863 253 95 164 376 
125 7 182 229 417 68 286 304 649 
126 7 530 172 283 425 462 847 90 
127 7 670 636 922 688 623 571 876 
128 6 460 630 388 570 339 810 
129 7 259 731 434 88 147 710 271 
130 7 475 152 397 177 540 787 268 
131 7 785 556 17 418 842 685 796 
132 7 59 617 66 455 657 456 31 
133 7 356 149 880 114 584 119 26 
134 7 157 708 575 449 215 233 393 
135 7 594 248 213 328 615 526 104 
136 7 867 414 642 742 3 668 319 
137 7 697 604 100 358 422 96 304 
138 7 204 633 230 145 54 601 912 
139 7 170 479 62 465 8 412 639 
140 7 888 168 473 586 919 111 719 
141 7 693 261 789 189 233 446 620 
142 7 838 516 551 637 821 307 531 
143 7 200 489 45 599 529 834 415 
144 7 46 444 195 457 536 913 856 
145 7 204 383 138 315 656 640 230 
146 7 483 245 39 635 829 421 760 
147 7 585 453 378 731 271 897 129 
148 7 320 337 512 843 42 411 106 
149 7 119 133 622 344 356 880 584 
150 7 718 201 22 740 869 224 285 
151 7 69 373 352 728 911 665 873 
152 7 130 268 475 877 177 397 445 
153 7 497 122 410 60 883 48 324 
154 7 552 757 763 366 293 913 536 
155 7 50 440 36 762 101 592 223 
156 7 16 674 406 662 927 612 323 
157 6 134 575 708 215 393 449 
158 7 438 102 121 305 609 464 735 
159 7 647 809 855 75 102 303 83 
160 7 833 724 13 665 349 728 371 
161 7 768 579 619 779 343 827 716 
162 7 505 747 232 514 28 439 918 
163 7 496 540 472 397 748 787 475 
164 7 95 222 239 253 610 416 238 
165 7 193 223 535 702 301 101 36 
166 7 689 555 418 796 270 696 589 
167 7 257 176 302 819 860 65 39 
168 7 888 586 719 140 205 919 288 
169 7 327 103 915 499 82 287 627 
170 7 139 412 465 639 51 479 107 
171 7 754 347 230 633 54 138 912 
172 7 530 126 258 685 842 283 871 
173 7 534 592 815 762 219 440 155 
174 7 663 110 291 791 675 191 818 
175 7 669 209 442 677 420 737 202 
176 7 257 65 167 819 643 39 721 
177 7 893 606 787 268 335 130 152 
178 7 377 256 432 504 646 817 228 
179 7 904 510 924 308 508 504 806 
180 7 605 582 323 181 553 927 556 
181 7 582 556 180 323 796 605 131 
182 7 229 417 286 304 125 100 68 
183 7 524 886 676 431 282 435 866 
184 7 419 775 251 879 208 645 207 
185 7 709 415 296 588 834 529 770 
186 7 360 626 388 507 725 460 212 
187 7 926 780 797 309 93 391 539 
188 7 618 800 484 613 294 624 717 
189 7 620 741 693 32 81 141 207 
190 7 12 766 487 537 424 770 756 
191 6 791 394 500 818 4 393 
192 7 375 559 250 99 804 846 659 
193 7 165 223 301 702 535 101 36 
194 7 567 216 9 672 652 489 213 
195 7 457 144 444 255 318 364 498 
196 7 51 170 87 107 412 139 465 
197 6 427 266 810 473 711 570 
198 7 342 390 723 753 280 98 57 
199 7 898 726 396 11 811 6 854 
200 7 143 599 489 45 529 834 415 
201 7 150 23 22 718 740 729 224 
202 7 420 832 209 314 739 683 260 
203 7 761 85 565 263 771 681 899 
204 7 138 145 633 230 601 54 383 
205 7 881 586 719 413 288 168 888 
206 7 231 76 389 581 343 359 97 
207 7 32 81 645 189 251 330 741 
208 7 879 645 251 81 108 207 32 
209 7 420 202 832 442 175 314 683 
210 7 831 858 47 332 12 487 190 
211 7 704 218 456 27 577 292 31 
212 7 507 725 363 360 186 750 644 
213 7 248 328 594 135 615 104 523 
214 7 381 333 715 596 805 384 841 
215 7 575 157 675 393 291 134 708 
216 7 672 652 905 786 194 567 599 
217 7 562 872 300 481 848 678 606 
218 7 704 27 751 545 211 365 541 
219 7 569 223 535 193 534 815 165 
220 7 755 874 322 346 482 345 416 
221 7 279 58 611 652 795 628 905 
222 7 95 239 416 695 164 736 863 
223 7 193 165 36 301 702 101 535 
224 7 729 262 22 201 150 373 226 
225 7 494 649 28 765 391 561 918 
226 7 353 262 920 911 655 37 224 
227 7 486 86 244 53 466 437 336 
228 7 817 432 646 377 764 329 461 
229 7 182 286 417 304 125 100 68 
230 7 138 633 204 754 145 54 171 
231 7 206 76 359 389 97 916 581 
232 7 514 505 439 162 747 844 350 
233 7 261 580 141 693 620 708 741 
234 7 312 824 477 41 361 502 746 
235 7 773 700 10 273 98 280 813 
236 7 691 554 777 572 278 521 264 
237 7 850 401 790 544 566 550 326 
238 7 736 58 239 95 164 611 901 
239 7 416 222 695 736 95 164 755 
240 7 528 583 67 595 423 451 79 
241 7 385 120 889 254 275 882 830 
242 7 712 759 919 914 105 111 288 
243 7 836 774 812 823 344 650 21 
244 7 227 437 486 86 466 53 803 
245 7 721 39 421 146 65 483 829 
246 7 658 808 506 40 891 800 471 
247 7 820 71 896 376 661 354 310 
248 7 328 213 615 594 135 104 523 
249 7 317 23 399 44 740 325 784 
250 7 192 559 375 804 99 598 400 
251 7 645 419 207 208 775 32 81 
252 7 522 518 847 667 467 283 696 
253 7 376 164 661 610 820 124 95 
254 7 889 764 385 817 646 228 241 
255 7 364 573 457 195 498 318 600 
256 7 504 377 432 178 508 179 329 
257 7 176 167 65 819 302 39 721 
258 7 706 403 871 685 172 842 553 
259 7 129 434 731 88 710 365 271 
260 7 683 314 832 202 420 458 739 
261 7 141 693 233 789 189 580 620 
262 7 226 37 224 22 353 869 920 
263 7 771 761 85 203 347 681 565 
264 7 290 347 263 771 691 554 236 
265 7 578 891 349 13 40 724 371 
266 6 197 473 590 629 427 877 
267 7 734 570 810 369 625 404 549 
268 6 152 629 877 177 893 130 
269 7 925 722 395 511 362 563 796 
270 7 589 851 166 495 43 689 338 
271 7 634 378 541 799 365 27 147 
272 7 597 907 306 607 29 587 910 
273 7 10 813 284 769 235 758 773 
274 7 864 18 778 737 515 677 49 
275 7 830 738 490 520 882 852 409 
276 7 793 367 469 382 653 814 525 
277 7 108 446 789 81 141 693 5 
278 7 331 15 521 648 554 572 777 
279 7 221 58 611 795 652 238 610 
280 7 723 753 98 198 813 342 769 
281 7 860 433 819 286 358 304 100 
282 7 758 788 886 524 284 183 676 
283 7 847 126 522 667 425 252 172 
284 7 788 758 10 273 282 334 773 
285 7 918 869 718 494 561 22 150 
286 7 304 229 182 100 417 281 125 
287 7 499 103 327 411 915 169 426 
288 7 105 413 586 205 242 759 881 
289 7 744 885 297 470 23 399 352 
290 7 264 347 263 771 691 236 554 
291 7 675 393 818 215 575 500 63 
292 7 799 211 378 634 704 271 541 
293 7 536 913 763 757 154 444 641 
294 7 484 612 927 16 618 188 323 
295 7 441 841 816 116 715 756 487 
296 7 770 588 424 185 766 55 56 
297 7 885 744 470 352 289 373 729 
298 7 745 539 680 730 843 309 42 
299 7 386 548 61 924 341 902 527 
300 7 872 562 217 481 606 608 713 
301 7 702 101 165 193 223 36 50 
302 7 167 257 860 819 176 407 436 
303 7 83 647 75 159 501 809 94 
304 7 100 286 182 229 417 358 281 
305 7 121 464 102 158 390 849 342 
306 7 272 607 338 910 29 587 495 
307 7 923 531 551 655 821 137 516 
308 7 508 904 179 924 714 621 504 
309 7 926 187 780 539 298 745 583 
310 7 124 727 71 247 376 820 915 
311 7 538 34 84 313 875 798 654 
312 7 234 824 41 477 357 361 746 
313 7 34 311 875 538 84 798 517 
314 7 683 260 832 420 202 209 402 
315 7 640 383 656 145 835 204 7 
316 7 903 106 337 512 823 320 426 
317 7 784 325 7 249 321 399 801 
318 7 457 364 660 195 255 144 573 
319 7 742 443 414 867 14 642 900 
320 7 337 512 148 106 843 316 411 
321 7 325 602 399 7 317 249 784 
322 7 485 345 686 755 874 220 568 
323 7 927 582 180 16 181 156 612 
324 7 632 459 497 890 483 760 153 
325 7 321 317 7 602 399 249 784 
326 7 544 571 850 790 550 749 237 
327 7 103 169 499 287 915 627 895 
328 7 248 213 615 104 523 594 135 
329 7 461 510 806 651 504 432 179 
330 7 207 32 645 251 81 741 394 
331 7 648 521 474 278 15 67 423 
332 7 476 858 837 340 210 424 588 
333 7 214 596 381 384 908 715 428 
334 7 600 560 788 758 282 284 825 
335 7 713 606 608 374 893 177 787 
336 7 348 53 822 743 454 466 486 
337 7 512 320 148 106 316 411 843 
338 7 910 587 29 902 306 589 591 
339 7 630 128 404 363 460 549 767 
340 7 837 332 476 588 424 858 185 
341 7 61 591 902 527 861 299 448 
342 7 390 198 98 723 280 753 849 
343 7 827 768 161 619 389 716 579 
344 7 119 622 149 812 243 650 836 
345 7 322 568 485 863 695 755 686 
346 7 874 220 482 755 322 485 183 
347 7 263 681 771 85 761 264 290 
348 7 336 822 743 454 53 86 486 
349 7 578 13 265 724 371 40 891 
350 7 844 912 601 682 54 747 439 
351 7 865 543 92 478 684 89 491 
352 7 297 373 69 885 151 470 744 
353 7 920 226 911 655 262 307 923 
354 7 661 820 376 247 398 253 35 
355 7 767 638 828 363 339 839 630 
356 7 584 133 114 149 581 398 26 
357 7 73 392 488 824 41 312 493 
358 7 604 697 100 96 137 304 422 
359 7 97 698 231 398 906 206 795 
360 7 186 725 507 212 626 363 388 
361 7 746 502 41 477 312 679 94 
362 7 49 722 511 563 778 395 735 
363 7 212 339 507 630 767 355 360 
364 7 255 318 573 457 195 660 498 
365 7 545 541 710 27 751 218 271 
366 7 552 154 30 763 757 694 845 
367 7 469 814 525 276 379 793 382 
368 7 517 699 875 798 720 34 313 
369 7 625 734 549 558 38 267 404 
370 7 118 897 803 92 437 585 478 
371 7 665 349 578 637 724 13 265 
372 7 714 621 752 642 414 14 508 
373 7 729 352 470 151 297 224 744 
374 7 748 335 787 713 606 496 540 
375 7 192 559 99 250 846 659 804 
376 7 253 661 820 247 354 124 310 
377 7 178 432 256 504 646 817 228 
378 7 799 634 271 147 541 585 292 
379 7 525 814 469 367 8 15 465 
380 7 696 591 690 341 857 902 448 
381 7 214 333 715 805 841 596 116 
382 7 653 574 8 62 793 894 469 
383 7 315 640 656 145 835 204 138 
384 7 596 715 77 908 333 441 428 
385 7 241 889 254 764 275 830 120 
386 7 548 299 907 924 61 29 902 
387 7 558 38 549 625 839 404 369 
388 6 626 460 711 128 186 810 
389 7 76 206 343 827 581 231 619 
390 7 342 198 98 723 849 305 464 
391 7 765 797 899 225 703 649 93 
392 7 357 73 488 493 824 914 111 
393 6 818 500 575 291 675 215 
394 6 4 191 500 791 330 818 
395 7 269 362 925 43 49 722 75 
396 7 11 811 542 726 445 616 6 
397 7 540 475 163 496 472 130 787 
398 7 354 698 584 661 359 97 906 
399 7 321 602 325 249 317 23 7 
400 7 598 509 701 804 492 407 250 
401 7 237 566 850 790 544 550 326 
402 7 884 60 458 883 683 260 314 
403 7 706 258 871 553 685 853 605 
404 7 549 38 558 630 625 734 339 
405 7 564 491 453 585 478 88 147 
406 7 674 429 156 2 662 16 323 
407 7 492 509 701 400 598 804 302 
408 7 80 783 866 82 468 48 533 
409 7 518 467 490 738 425 252 847 
410 7 122 153 497 48 883 60 468 
411 7 106 512 148 895 337 287 320 
412 7 107 639 51 170 465 87 139 
413 7 288 105 205 881 586 759 242 
414 7 642 867 742 136 372 319 752 
415 7 834 529 709 45 185 143 56 
416 7 239 695 222 736 95 755 220 
417 7 182 229 304 68 125 286 100 
418 7 131 785 689 555 17 556 796 
419 7 775 251 184 645 330 208 207 
420 7 202 209 832 314 683 260 739 
421 7 721 245 862 146 42 39 65 
422 7 96 604 436 697 358 137 531 
423 7 595 528 67 240 583 451 474 
424 7 588 12 770 837 296 190 766 
425 7 126 283 870 847 518 530 409 
426 7 106 823 650 411 316 512 337 
427 5 197 711 877 266 810 
428 7 908 596 384 876 77 782 922 
429 7 2 406 674 807 662 33 123 
430 7 25 520 840 870 794 852 603 
431 7 686 866 183 485 783 676 524 
432 7 377 504 256 228 817 178 646 
433 7 819 281 703 860 93 286 229 
434 7 88 731 129 259 453 147 405 
435 7 676 524 533 183 866 886 282 
436 7 96 422 604 358 697 137 860 
437 7 244 892 118 227 466 803 486 
438 7 158 735 609 18 49 442 102 
439 7 514 844 232 350 747 505 681 
440 7 762 592 155 50 36 173 538 
441 7 295 841 715 116 816 384 756 
442 7 209 677 737 175 420 202 18 
443 7 319 14 78 900 742 772 597 
444 7 144 195 641 293 536 913 457 
445 6 616 542 811 11 396 726 
446 7 789 277 108 141 693 261 189 
447 6 707 848 678 52 217 562 
448 7 857 532 690 861 64 527 61 
449 6 620 741 189 134 233 157 
450 7 673 503 786 905 74 599 628 
451 7 79 528 903 240 595 423 583 
452 7 523 104 536 913 757 46 328 
453 7 585 147 564 405 731 88 897 
454 7 822 743 348 336 53 466 486 
455 7 657 66 854 59 132 743 617 
456 7 31 211 577 617 132 704 59 
457 7 195 318 144 364 255 444 498 
458 7 884 883 60 402 260 683 314 
459 7 890 760 829 483 324 632 39 
460 6 128 388 570 810 630 339 
461 7 329 651 806 510 70 593 228 
462 7 112 631 90 603 530 878 126 
463 7 749 790 566 326 333 237 544 
464 7 305 158 739 121 57 390 198 
465 7 639 412 170 479 139 107 379 
466 7 53 486 227 86 336 244 437 
467 7 518 252 522 690 847 409 667 
468 7 82 122 153 497 410 408 627 
469 7 367 814 525 379 8 276 382 
470 7 744 297 885 729 373 289 23 
471 7 808 123 662 33 246 113 40 
472 7 163 496 540 397 748 787 475 
473 7 266 197 140 590 267 810 570 
474 7 648 331 67 521 423 583 595 
475 7 130 397 152 540 787 163 496 
476 7 332 340 837 858 588 210 424 
477 7 234 502 312 746 361 41 700 
478 7 491 92 543 564 405 351 897 
479 7 8 62 139 465 170 574 382 
480 7 26 513 114 716 708 768 161 
481 6 562 733 300 217 872 608 
482 7 220 346 755 874 660 736 416 
483 7 829 760 890 459 39 146 245 
484 7 294 612 618 188 800 927 16 
485 7 322 686 345 874 431 568 755 
486 7 86 53 227 466 244 336 348 
487 7 190 868 116 537 12 766 295 
488 7 392 111 357 824 73 914 493 
489 7 143 200 599 45 529 526 216 
490 7 738 64 830 593 409 70 532 
491 7 478 564 405 543 92 453 585 
492 7 509 701 407 400 598 804 302 
493 7 914 712 242 392 759 488 607 
494 7 225 649 918 28 561 285 869 
495 7 851 501 306 83 43 589 270 
496 7 540 163 472 397 787 748 374 
497 7 153 122 410 60 883 324 48 
498 7 255 195 573 828 638 457 641 
499 7 287 103 327 915 169 411 650 
500 6 818 393 791 575 291 394 
501 7 94 303 83 495 679 851 647 
502 7 746 361 477 41 700 235 312 
503 7 673 450 56 834 599 55 74 
504 7 256 432 377 178 179 329 510 
505 7 747 162 232 514 439 350 844 
506 6 658 246 624 717 891 800 
507 7 212 725 360 363 186 750 845 
508 7 308 904 621 179 714 256 504 
509 7 701 492 407 400 598 804 250 
510 7 806 329 179 461 651 504 904 
511 7 563 722 115 362 802 269 778 
512 7 337 320 106 148 316 411 426 
513 7 480 26 716 161 768 114 579 
514 7 232 439 505 747 162 844 350 
515 7 659 846 737 99 677 18 274 
516 6 821 546 551 142 531 307 
517 7 368 875 798 313 699 34 311 
518 7 252 467 522 847 667 283 409 
519 6 687 826 3 668 52 909 
520 7 430 25 852 870 882 840 275 
521 7 331 648 474 278 554 921 15 
522 7 252 667 847 518 283 467 17 
523 7 104 452 615 328 248 757 913 
524 7 886 183 676 282 435 431 758 
525 7 814 379 469 367 8 15 276 
526 7 557 45 143 489 529 200 415 
527 7 861 61 448 341 857 70 532 
528 7 240 595 423 67 583 451 79 
529 7 45 415 834 143 200 709 599 
530 7 172 126 283 258 462 631 685 
531 7 551 821 923 307 546 516 422 
532 7 857 448 64 690 861 527 70 
533 7 866 783 48 435 614 431 676 
534 7 173 815 219 592 569 762 223 
535 7 165 193 569 223 702 219 301 
536 7 913 293 452 757 144 444 46 
537 7 766 756 190 487 12 816 770 
538 7 84 311 34 313 875 798 654 
539 7 298 745 680 730 309 780 926 
540 7 496 163 472 397 787 748 475 
541 7 365 27 634 545 271 710 218 
542 6 616 11 445 396 811 626 
543 7 478 491 351 92 564 405 865 
544 7 850 326 790 237 550 571 401 
545 7 365 751 27 710 541 218 704 
546 6 821 551 516 531 923 307 
547 7 20 751 218 545 704 27 365 
548 7 386 299 907 29 902 924 61 
549 7 404 38 558 625 734 369 630 
550 7 666 544 850 109 571 237 326 
551 7 531 821 546 516 923 307 142 
552 7 366 154 757 763 293 30 845 
553 6 853 871 605 706 403 258 
554 7 236 691 777 572 521 278 331 
555 7 689 796 166 418 131 556 785 
556 7 131 181 785 796 418 17 403 
557 7 526 72 529 709 50 45 415 
558 7 38 387 549 625 404 734 369 
559 7 192 375 250 99 804 846 659 
560 7 600 825 334 573 839 498 788 
561 7 494 37 649 68 869 125 285 
562 6 217 300 481 872 848 733 
563 7 511 722 115 362 802 269 778 
564 7 405 491 478 453 585 147 897 
565 7 203 85 761 681 439 514 232 
566 7 401 790 237 850 544 749 463 
567 7 9 194 652 859 672 611 216 
568 7 863 345 695 322 485 222 686 
569 7 219 535 193 223 165 815 534 
570 7 810 128 267 460 711 197 388 
571 7 326 688 544 550 636 666 850 
572 7 777 236 691 554 278 521 331 
573 7 255 364 600 498 560 334 318 
574 7 382 62 653 894 8 479 793 
575 7 157 393 215 134 818 500 291 
576 7 66 472 163 496 540 59 657 
577 7 31 456 211 704 218 547 27 
578 7 349 265 13 371 891 724 40 
579 7 161 768 779 619 922 827 343 
580 7 233 261 141 880 693 789 446 
581 7 76 716 343 389 114 206 768 
582 7 181 323 927 180 556 605 796 
583 7 240 67 528 423 595 474 451 
584 7 356 398 133 114 149 581 359 
585 7 453 147 564 405 897 731 378 
586 7 168 888 205 719 288 413 919 
587 7 910 338 29 902 306 591 341 
588 7 424 296 837 770 340 185 12 
589 7 270 851 338 910 495 380 587 
590 7 266 629 678 473 719 877 268 
591 7 341 902 61 380 587 861 527 
592 7 762 440 173 84 538 155 654 
593 7 70 651 64 461 490 329 806 
594 7 135 248 213 328 615 526 104 
595 7 423 528 240 67 583 451 79 
596 7 384 908 333 428 715 77 441 
597 7 907 272 772 759 712 29 443 
598 7 400 804 509 701 407 250 492 
599 7 200 143 489 45 503 529 673 
600 7 560 334 825 573 788 758 282 
601 7 912 54 350 682 633 844 801 
602 7 321 399 325 7 317 249 289 
603 7 90 794 462 840 112 870 631 
604 7 697 96 422 137 358 100 436 
605 7 180 553 403 853 706 871 181 
606 7 713 335 608 893 300 872 177 
607 7 306 272 493 914 73 392 597 
608 7 713 606 335 300 481 872 893 
609 7 855 102 735 158 438 809 121 
610 7 35 164 253 238 58 906 95 
611 7 901 58 9 279 221 652 238 
612 7 294 16 484 927 156 800 323 
613 7 692 115 717 618 188 624 802 
614 7 671 533 435 48 883 458 753 
615 7 104 248 328 523 213 135 594 
616 6 542 445 11 811 396 626 
617 7 132 59 456 455 743 211 292 
618 7 188 484 800 613 294 115 692 
619 7 779 579 827 161 782 768 876 
620 7 741 189 449 693 141 261 233 
621 7 372 508 714 752 308 904 256 
622 7 896 149 344 119 71 650 247 
623 7 63 688 636 670 571 127 666 
624 5 717 506 692 613 188 
625 7 369 734 549 558 38 404 387 
626 6 388 186 711 460 616 542 
627 7 635 632 468 103 82 327 146 
628 7 928 905 786 795 450 221 673 
629 6 268 877 590 266 427 152 
630 7 339 128 404 460 363 549 38 
631 7 112 462 878 90 530 603 776 
632 7 324 146 635 483 627 459 760 
633 7 138 230 54 204 601 912 754 
634 7 271 799 378 541 365 27 545 
635 7 627 146 632 862 421 895 245 
636 7 688 670 623 127 571 63 326 
637 7 838 371 142 578 665 349 265 
638 7 828 355 767 750 363 644 498 
639 7 465 412 107 170 51 479 139 
640 7 315 383 656 835 145 204 7 
641 7 644 750 444 293 828 763 498 
642 7 414 867 136 372 742 752 319 
643 7 65 780 176 93 187 257 797 
644 7 750 641 828 212 638 507 444 
645 7 207 32 81 251 208 879 108 
646 7 817 377 228 432 178 764 256 
647 7 159 809 75 855 303 83 102 
648 7 331 474 521 67 278 423 921 
649 7 225 494 561 125 391 765 182 
650 7 426 287 344 499 243 836 823 
651 7 461 70 329 806 593 510 64 
652 7 672 216 9 567 221 905 611 
653 7 382 574 894 793 62 8 276 
654 7 91 84 798 538 89 311 34 
655 7 920 353 307 923 226 137 911 
656 7 383 640 315 835 145 7 204 
657 7 455 66 854 59 132 6 898 
658 7 246 506 800 808 40 891 188 
659 7 846 515 99 802 778 274 375 
660 7 318 859 482 364 901 457 255 
661 7 354 820 376 253 247 35 398 
662 7 2 674 33 123 429 156 406 
663 7 174 110 792 109 791 291 191 
664 7 845 694 30 725 366 507 360 
665 7 371 728 349 724 637 578 160 
666 7 550 109 792 571 544 688 850 
667 7 522 252 847 283 518 17 467 
668 7 3 909 826 52 519 687 707 
669 7 175 677 99 375 515 737 192 
670 7 127 636 688 623 922 571 876 
671 7 614 753 769 57 739 813 723 
672 7 216 652 905 786 194 567 9 
673 7 450 503 786 599 74 905 56 
674 7 156 406 662 429 16 2 33 
675 7 291 393 215 63 575 818 110 
676 7 183 435 524 886 431 282 866 
677 7 737 18 442 515 864 274 175 
678 7 447 848 590 217 719 707 562 
679 7 94 849 303 159 647 361 501 
680 7 730 298 539 745 843 42 148 
681 7 85 761 565 439 844 203 263 
682 7 801 350 601 912 44 747 54 
683 7 314 260 832 420 202 209 458 
684 7 815 865 351 534 89 173 219 
685 7 842 17 785 258 403 706 172 
686 7 485 322 431 345 874 783 568 
687 6 519 3 826 668 52 909 
688 7 636 623 571 63 670 666 127 
689 7 555 166 418 796 131 556 785 
690 7 857 448 532 467 380 64 696 
691 7 236 554 777 572 264 521 290 
692 7 613 717 115 624 802 559 659 
693 7 141 261 189 789 620 233 446 
694 7 30 664 845 366 725 552 199 
695 7 416 239 222 345 863 568 755 
696 7 380 252 690 667 467 522 166 
697 7 604 137 358 422 96 100 436 
698 7 906 35 97 359 795 398 354 
699 7 368 720 517 366 875 798 552 
700 7 773 235 10 477 273 502 284 
701 7 509 492 407 400 598 804 250 
702 7 301 101 165 193 223 36 50 
703 7 93 797 433 391 125 187 643 
704 7 218 27 211 545 751 541 365 
705 7 892 89 91 865 118 92 437 
706 7 403 258 871 553 853 685 605 
707 6 447 848 52 826 733 519 
708 7 134 157 233 480 575 449 26 
709 7 185 415 834 529 45 296 56 
710 7 365 545 541 751 27 259 271 
711 5 388 427 810 626 197 
712 7 759 242 914 493 772 105 919 
713 7 335 608 606 893 374 300 872 
714 7 372 621 308 14 508 900 78 
715 7 441 841 295 384 381 596 116 
716 7 768 161 343 581 513 579 827 
717 5 624 692 613 506 188 
718 7 150 740 22 201 285 869 918 
719 7 168 205 586 888 881 678 140 
720 7 699 368 892 466 437 517 705 
721 7 245 39 421 65 146 257 176 
722 7 511 563 362 269 115 925 802 
723 7 280 198 753 342 98 390 813 
724 7 13 349 160 833 578 371 265 
725 7 507 212 360 186 845 664 363 
726 7 6 898 396 811 11 542 445 
727 7 124 310 863 568 253 95 164 
728 7 873 69 665 151 371 160 724 
729 7 224 373 470 23 201 744 22 
730 7 680 298 539 745 843 42 148 
731 7 434 88 129 259 453 147 585 
732 7 74 916 24 55 503 928 56 
733 6 481 562 707 848 217 300 
734 7 625 369 549 267 404 38 558 
735 7 49 438 609 18 158 274 864 
736 7 239 416 238 222 695 95 164 
737 7 677 18 864 274 515 442 778 
738 7 830 490 275 409 593 64 520 
739 7 57 832 202 420 464 260 314 
740 7 718 150 781 44 201 22 285 
741 7 620 189 449 32 693 207 81 
742 7 319 414 867 642 443 136 14 
743 7 348 822 454 336 53 86 486 
744 7 470 885 297 289 23 373 729 
745 7 298 539 680 730 843 309 42 
746 7 361 502 477 41 312 234 679 
747 7 505 162 232 514 350 439 844 
748 7 374 787 496 540 163 472 397 
749 7 463 790 326 544 566 850 237 
750 7 644 828 641 638 212 363 507 
751 7 545 365 27 20 218 547 710 
752 7 621 372 642 714 414 867 508 
753 7 723 280 198 769 671 57 342 
754 7 171 54 633 230 912 601 138 
755 7 220 322 345 695 874 416 482 
756 7 816 537 295 24 441 766 487 
757 7 154 913 293 536 552 763 452 
758 7 788 284 282 10 273 334 886 
759 7 712 772 242 105 914 288 493 
760 7 829 483 890 459 39 146 324 
761 7 85 203 263 771 681 565 347 
762 7 592 440 84 538 173 155 311 
763 7 154 293 552 757 366 913 536 
764 7 254 889 817 228 646 432 377 
765 7 391 899 225 649 797 28 494 
766 7 190 537 12 770 424 487 296 
767 7 355 638 828 363 339 630 750 
768 7 161 579 619 343 827 779 716 
769 7 813 273 280 753 10 723 671 
770 7 296 766 424 588 12 190 55 
771 7 263 761 85 203 921 681 347 
772 7 759 597 712 105 443 242 288 
773 7 700 235 10 273 284 788 758 
774 7 836 243 823 812 21 793 894 
775 7 419 184 251 330 645 207 208 
776 5 878 631 871 853 112 
777 7 572 236 691 554 278 521 331 
778 7 274 864 18 802 515 49 659 
779 7 619 579 922 876 161 768 782 
780 7 926 187 309 539 643 797 93 
781 7 44 740 801 682 747 505 718 
782 7 876 619 779 827 922 343 579 
783 7 866 80 408 431 533 686 48 
784 7 317 801 44 7 249 325 682 
785 7 131 17 842 685 418 556 403 
786 7 905 450 672 216 628 673 652 
787 7 748 540 496 374 163 397 177 
788 7 758 284 282 10 334 273 886 
789 7 446 141 693 277 261 108 189 
790 7 237 850 544 566 401 326 749 
791 6 191 500 818 394 393 4 
792 7 109 666 550 110 917 850 63 
793 7 276 653 382 469 574 367 894 
794 7 840 603 90 870 25 430 462 
795 7 628 906 221 279 698 35 928 
796 7 555 556 689 181 418 131 166 
797 7 93 703 187 391 780 926 765 
798 7 875 34 311 84 538 91 517 
799 7 378 634 271 292 541 27 365 
800 7 188 618 658 246 612 484 506 
801 7 44 682 781 784 601 912 350 
802 7 659 778 846 115 274 515 864 
803 7 370 118 897 244 437 227 378 
804 7 598 250 400 559 192 375 509 
805 7 19 868 47 116 381 841 214 
806 7 510 329 461 651 179 70 527 
807 7 2 33 429 123 662 113 674 
808 7 471 246 40 658 13 800 891 
809 7 75 855 647 159 83 102 303 
810 6 570 711 197 128 460 388 
811 7 11 396 542 445 616 726 6 
812 7 117 243 119 836 21 774 344 
813 7 769 273 280 10 723 753 235 
814 7 525 379 469 367 8 15 276 
815 7 534 219 173 684 569 223 535 
816 7 756 295 441 537 841 77 24 
817 7 228 646 432 377 764 178 504 
818 6 500 393 291 791 575 675 
819 7 860 433 167 281 176 257 302 
820 7 247 661 354 376 71 253 896 
821 6 546 551 531 516 923 307 
822 7 454 348 743 336 53 466 486 
823 7 426 836 774 316 106 243 793 
824 7 312 234 357 488 41 392 73 
825 7 560 600 839 334 498 638 355 
826 7 519 52 3 687 668 909 707 
827 7 343 619 768 161 782 579 779 
828 7 638 750 767 355 644 363 641 
829 7 760 483 890 459 39 146 245 
830 7 738 275 490 593 889 64 70 
831 7 210 858 47 487 868 12 19 
832 7 202 420 314 209 260 683 739 
833 7 160 724 13 349 40 113 665 
834 7 415 529 45 709 56 503 143 
835 7 656 640 315 383 7 145 325 
836 7 243 774 823 812 426 650 344 
837 7 340 332 424 588 858 476 12 
838 7 142 637 516 578 551 307 923 
839 7 825 387 355 558 38 638 767 
840 7 794 870 25 603 90 430 425 
841 7 441 116 295 715 868 487 816 
842 7 685 17 785 258 131 403 172 
843 7 42 148 680 730 320 298 745 
844 7 350 439 514 232 747 912 54 
845 7 664 694 30 725 763 366 507 
846 7 659 99 515 375 802 559 192 
847 7 522 252 283 667 518 467 425 
848 6 447 707 217 562 678 481 
849 7 679 390 121 305 342 98 159 
850 7 237 544 790 401 550 326 566 
851 7 495 270 43 589 501 83 306 
852 7 882 520 430 120 25 275 840 
853 6 553 871 706 403 605 258 
854 7 657 455 898 6 726 66 199 
855 7 809 159 75 102 609 647 121 
856 7 46 144 213 328 452 248 523 
857 7 448 532 690 861 64 527 61 
858 7 332 210 831 837 476 424 340 
859 7 901 660 9 611 567 238 736 
860 7 281 819 433 167 358 302 286 
861 7 527 61 448 857 341 532 70 
862 7 421 895 42 635 843 146 245 
863 7 568 345 695 727 222 124 322 
864 7 274 18 778 737 515 677 49 
865 7 89 351 92 684 705 543 91 
866 7 783 533 431 676 80 435 686 
867 7 414 642 136 742 319 372 752 
868 7 116 19 487 47 805 841 295 
869 7 285 22 37 918 561 718 150 
870 7 840 25 794 425 430 603 90 
871 6 706 853 258 553 403 878 
872 7 300 217 562 606 481 893 608 
873 7 69 728 151 352 665 160 371 
874 7 346 220 322 755 485 686 482 
875 7 34 798 313 311 517 84 538 
876 7 782 922 779 619 579 827 161 
877 6 629 268 427 152 445 266 
878 6 776 631 112 871 462 853 
879 7 208 251 645 5 108 81 207 
880 7 580 133 119 149 789 261 812 
881 7 205 413 719 586 909 288 52 
882 7 852 120 520 275 430 241 25 
883 7 458 60 884 410 402 48 122 
884 7 402 458 60 883 260 683 314 
885 7 297 744 289 470 352 373 729 
886 7 524 183 282 676 435 758 431 
887 7 72 101 702 301 165 193 223 
888 7 168 586 140 719 919 205 288 
889 7 254 764 385 817 228 646 830 
890 7 459 760 829 483 324 39 146 
891 7 265 40 578 349 13 246 658 
892 7 437 705 118 244 720 370 803 
893 7 177 606 335 713 872 300 608 
894 7 574 653 382 62 8 793 21 
895 7 862 411 42 148 843 103 635 
896 7 622 247 71 820 354 661 376 
897 7 370 803 118 585 147 453 564 
898 7 726 6 396 854 199 811 11 
899 7 765 391 203 565 225 28 797 
900 7 78 14 443 714 372 319 924 
901 7 859 611 9 238 58 567 736 
902 7 591 587 341 910 338 29 61 
903 7 79 451 316 276 367 320 337 
904 7 924 179 308 508 510 714 504 
905 7 786 672 628 216 450 652 673 
906 7 698 35 795 610 97 359 398 
907 7 597 272 548 29 386 772 78 
908 7 428 596 384 333 77 715 876 
909 7 52 668 3 826 519 687 881 
910 7 338 587 29 902 306 591 272 
911 7 353 920 226 637 655 151 262 
912 7 601 54 350 682 844 633 801 
913 7 536 293 452 757 444 144 154 
914 7 493 712 242 759 488 111 392 
915 7 169 71 499 327 103 310 287 
916 7 74 732 928 231 24 206 450 
917 7 792 109 401 237 550 666 850 
918 7 285 494 869 28 162 718 561 
919 7 111 242 888 586 140 168 712 
920 7 353 655 911 226 307 838 923 
921 7 474 771 648 203 263 521 331 
922 7 779 876 579 619 782 161 768 
923 7 307 531 551 655 821 137 516 
924 7 904 179 308 508 510 299 386 
925 7 269 722 395 511 563 362 796 
926 7 309 187 780 539 797 298 745 
927 7 323 582 16 612 156 294 180 
928 7 628 916 74 450 732 795 673 
DEPOT_SECTION
   1
   -1
EOF
