NAME :  X-n957-kX-w191-c9.cctp
COMMENT : 	Adapted by Maziero, Usberti and Cavellucci from the Uchoa, Pecin, Pessoa, Poggi, Subramanian, and Vidal (2013)
TYPE :  CCTP
DIMENSION :    738
EDGE_WEIGHT_TYPE : 	EUC_2D	
CAPACITY : 	11
VERTICES_WITHIN_COVERAGE :  9
VERTICES_WITH_DEMAND : 	191
NODE_COORD_SECTION
1 737 450
2 235 789
3 340 234
4 346 320
5 406 309
6 556 636
7 872 923
8 937 83
9 9 321
10 558 18
11 63 833
12 250 509
13 143 192
14 624 286
15 364 117
16 332 953
17 235 142
18 590 430
19 303 692
20 936 665
21 39 410
22 247 581
23 986 739
24 11 283
25 138 747
26 837 511
27 596 206
28 218 339
29 443 922
30 555 133
31 896 306
32 415 752
33 691 216
34 51 0
35 726 19
36 166 333
37 951 932
38 928 807
39 505 590
40 236 284
41 115 882
42 238 887
43 729 26
44 94 697
45 409 899
46 993 715
47 473 607
48 414 55
49 884 327
50 651 407
51 891 372
52 570 733
53 919 529
54 629 220
55 711 630
56 141 492
57 720 382
58 794 51
59 745 451
60 409 990
61 825 781
62 966 938
63 378 175
64 859 269
65 596 131
66 419 557
67 77 908
68 679 268
69 726 860
70 382 728
71 885 15
72 258 313
73 734 905
74 533 912
75 924 636
76 694 621
77 469 223
78 507 707
79 892 168
80 281 800
81 607 285
82 388 354
83 568 781
84 22 348
85 153 579
86 218 236
87 308 904
88 119 154
89 939 105
90 489 374
91 547 736
92 480 1000
93 124 883
94 647 930
95 295 741
96 213 53
97 701 446
98 589 708
99 644 147
100 133 377
101 983 343
102 169 651
103 262 450
104 255 422
105 115 640
106 693 344
107 896 910
108 298 531
109 573 416
110 416 512
111 870 50
112 185 436
113 656 268
114 53 522
115 587 165
116 542 762
117 995 809
118 266 878
119 27 812
120 196 522
121 45 164
122 174 729
123 252 311
124 681 621
125 594 478
126 848 361
127 897 253
128 729 354
129 255 410
130 811 703
131 677 991
132 781 909
133 971 632
134 540 824
135 887 144
136 475 860
137 509 336
138 967 433
139 897 98
140 157 676
141 971 727
142 972 381
143 658 504
144 375 214
145 280 526
146 895 158
147 196 779
148 379 223
149 692 470
150 22 395
151 119 604
152 622 843
153 289 811
154 98 365
155 111 426
156 261 101
157 483 818
158 820 480
159 433 961
160 656 421
161 511 273
162 334 794
163 426 686
164 870 112
165 941 978
166 744 498
167 7 346
168 168 877
169 166 244
170 604 430
171 176 452
172 522 306
173 912 406
174 423 564
175 505 779
176 101 383
177 729 307
178 162 515
179 647 869
180 784 983
181 496 811
182 736 39
183 833 529
184 646 367
185 922 294
186 513 535
187 373 331
188 471 694
189 39 149
190 813 538
191 153 115
192 244 505
193 716 286
194 409 228
195 140 484
196 652 239
197 141 628
198 30 924
199 877 307
200 586 723
201 856 584
202 984 221
203 641 671
204 648 704
205 19 309
206 661 125
207 614 194
208 253 864
209 106 841
210 187 687
211 5 289
212 657 83
213 658 58
214 419 839
215 519 347
216 666 486
217 288 276
218 562 646
219 516 725
220 75 785
221 309 966
222 743 856
223 121 698
224 70 635
225 376 539
226 824 834
227 650 350
228 742 277
229 977 647
230 268 698
231 973 145
232 569 655
233 765 22
234 427 869
235 11 869
236 377 793
237 102 444
238 979 386
239 69 483
240 294 395
241 424 536
242 37 705
243 126 782
244 490 30
245 348 771
246 808 469
247 107 512
248 782 207
249 161 793
250 859 469
251 148 763
252 403 723
253 978 760
254 214 132
255 467 387
256 853 27
257 855 506
258 591 902
259 213 742
260 203 364
261 183 3
262 143 608
263 649 492
264 904 31
265 997 741
266 527 299
267 26 402
268 543 506
269 902 548
270 47 419
271 125 226
272 811 668
273 643 265
274 189 736
275 79 287
276 225 604
277 412 843
278 924 756
279 474 356
280 533 721
281 445 101
282 579 994
283 652 658
284 633 914
285 889 206
286 464 243
287 680 735
288 420 998
289 798 490
290 75 518
291 27 680
292 181 428
293 367 977
294 777 679
295 856 6
296 777 984
297 171 874
298 909 569
299 730 509
300 59 533
301 455 853
302 612 163
303 959 409
304 987 154
305 883 195
306 207 6
307 39 831
308 227 416
309 657 701
310 703 976
311 260 286
312 6 135
313 821 740
314 491 397
315 140 716
316 6 773
317 666 487
318 529 74
319 860 929
320 384 223
321 524 854
322 102 833
323 653 843
324 260 234
325 864 478
326 425 897
327 482 914
328 497 805
329 646 13
330 670 113
331 722 56
332 611 456
333 832 655
334 275 331
335 851 924
336 746 341
337 811 324
338 950 762
339 697 467
340 368 215
341 458 65
342 174 245
343 277 138
344 624 145
345 80 463
346 696 41
347 985 212
348 934 241
349 839 676
350 717 623
351 752 11
352 732 768
353 5 440
354 125 793
355 556 154
356 137 547
357 178 892
358 363 804
359 855 769
360 269 726
361 415 353
362 961 560
363 432 998
364 655 357
365 903 500
366 446 77
367 710 425
368 883 381
369 776 9
370 286 208
371 119 538
372 267 810
373 924 550
374 207 306
375 734 468
376 654 618
377 102 700
378 196 533
379 978 464
380 987 161
381 342 874
382 501 638
383 105 260
384 557 72
385 246 754
386 577 758
387 200 110
388 107 621
389 501 789
390 581 925
391 672 281
392 333 221
393 366 691
394 871 557
395 759 559
396 384 926
397 512 969
398 29 740
399 361 929
400 874 282
401 769 858
402 878 141
403 820 64
404 429 224
405 611 820
406 26 93
407 268 308
408 426 545
409 28 441
410 669 276
411 519 784
412 445 780
413 762 46
414 935 724
415 937 750
416 390 916
417 934 288
418 435 47
419 990 14
420 830 399
421 490 787
422 564 416
423 748 774
424 566 767
425 873 118
426 626 559
427 833 478
428 82 836
429 311 362
430 718 313
431 975 337
432 148 207
433 986 476
434 769 67
435 114 335
436 28 562
437 59 461
438 12 780
439 154 192
440 27 360
441 787 422
442 206 469
443 774 765
444 521 751
445 52 528
446 304 554
447 502 257
448 131 279
449 960 233
450 408 79
451 917 541
452 282 530
453 506 298
454 295 775
455 179 898
456 626 568
457 196 516
458 754 367
459 53 627
460 252 558
461 122 892
462 657 277
463 267 505
464 234 594
465 512 375
466 239 454
467 505 354
468 707 336
469 273 546
470 527 276
471 322 525
472 91 411
473 85 871
474 688 231
475 172 870
476 584 428
477 476 354
478 180 863
479 473 213
480 422 21
481 218 531
482 533 262
483 330 99
484 608 516
485 408 228
486 241 919
487 80 811
488 513 278
489 429 712
490 330 226
491 247 375
492 619 32
493 671 277
494 403 542
495 521 294
496 473 216
497 224 863
498 183 428
499 293 641
500 568 173
501 529 560
502 532 163
503 760 446
504 240 624
505 719 272
506 493 338
507 513 305
508 58 940
509 569 412
510 357 402
511 618 412
512 416 250
513 788 91
514 658 479
515 231 504
516 93 683
517 648 191
518 155 877
519 692 379
520 291 501
521 65 935
522 308 1000
523 655 499
524 750 582
525 488 236
526 566 428
527 177 583
528 246 760
529 233 820
530 450 497
531 98 932
532 164 880
533 378 219
534 183 868
535 381 89
536 355 930
537 458 212
538 228 583
539 550 450
540 516 526
541 250 804
542 209 808
543 275 671
544 170 388
545 514 280
546 692 415
547 405 186
548 494 319
549 527 341
550 514 583
551 208 584
552 625 472
553 280 735
554 3 597
555 74 556
556 492 190
557 644 366
558 125 280
559 491 334
560 728 321
561 163 510
562 325 804
563 634 395
564 497 506
565 277 608
566 354 927
567 582 278
568 264 442
569 113 287
570 93 921
571 501 576
572 670 319
573 500 304
574 479 583
575 74 907
576 88 945
577 540 167
578 619 292
579 678 278
580 410 380
581 447 579
582 214 521
583 596 421
584 711 456
585 333 359
586 668 356
587 225 531
588 320 932
589 566 207
590 238 331
591 544 305
592 316 530
593 666 352
594 671 214
595 508 266
596 389 596
597 408 282
598 186 797
599 407 355
600 184 615
601 226 880
602 252 556
603 192 502
604 637 316
605 494 209
606 123 748
607 405 524
608 604 519
609 578 394
610 290 691
611 16 824
612 664 191
613 482 371
614 478 725
615 115 585
616 630 209
617 499 288
618 643 278
619 670 494
620 215 911
621 270 798
622 554 399
623 212 485
624 481 272
625 84 435
626 608 283
627 613 272
628 275 474
629 549 526
630 229 882
631 253 521
632 63 939
633 622 245
634 656 232
635 277 581
636 253 812
637 454 558
638 176 526
639 397 522
640 660 200
641 574 213
642 319 535
643 688 407
644 475 401
645 131 896
646 606 292
647 623 382
648 178 795
649 321 965
650 437 899
651 265 545
652 643 266
653 242 679
654 592 292
655 398 315
656 356 814
657 333 236
658 460 532
659 267 520
660 618 473
661 237 292
662 564 407
663 0 879
664 568 415
665 520 320
666 644 280
667 299 943
668 282 495
669 642 304
670 410 533
671 699 373
672 320 373
673 266 512
674 661 386
675 504 387
676 329 539
677 583 527
678 198 544
679 599 274
680 554 410
681 649 140
682 715 73
683 664 345
684 182 583
685 70 547
686 751 545
687 325 263
688 587 472
689 331 307
690 386 644
691 621 387
692 656 400
693 120 907
694 260 910
695 632 287
696 292 527
697 473 358
698 44 941
699 323 246
700 683 364
701 289 536
702 183 553
703 514 281
704 293 971
705 171 190
706 244 521
707 340 856
708 516 521
709 596 289
710 391 390
711 602 631
712 448 189
713 530 131
714 242 924
715 658 496
716 452 224
717 401 652
718 254 592
719 477 236
720 150 541
721 224 670
722 125 870
723 649 282
724 280 550
725 594 407
726 501 372
727 634 289
728 608 220
729 618 428
730 532 276
731 47 856
732 708 471
733 448 523
734 294 497
735 616 295
736 249 810
737 299 505
738 347 720
DEMAND_SECTION
2 1
3 1
4 1
5 1
6 1
7 1
8 1
9 1
10 1
11 1
12 1
13 1
14 1
15 1
16 1
17 1
18 1
19 1
20 1
21 1
22 1
23 1
24 1
25 1
26 1
27 1
28 1
29 1
30 1
31 1
32 1
33 1
34 1
35 1
36 1
37 1
38 1
39 1
40 1
41 1
42 1
43 1
44 1
45 1
46 1
47 1
48 1
49 1
50 1
51 1
52 1
53 1
54 1
55 1
56 1
57 1
58 1
59 1
60 1
61 1
62 1
63 1
64 1
65 1
66 1
67 1
68 1
69 1
70 1
71 1
72 1
73 1
74 1
75 1
76 1
77 1
78 1
79 1
80 1
81 1
82 1
83 1
84 1
85 1
86 1
87 1
88 1
89 1
90 1
91 1
92 1
93 1
94 1
95 1
96 1
97 1
98 1
99 1
100 1
101 1
102 1
103 1
104 1
105 1
106 1
107 1
108 1
109 1
110 1
111 1
112 1
113 1
114 1
115 1
116 1
117 1
118 1
119 1
120 1
121 1
122 1
123 1
124 1
125 1
126 1
127 1
128 1
129 1
130 1
131 1
132 1
133 1
134 1
135 1
136 1
137 1
138 1
139 1
140 1
141 1
142 1
143 1
144 1
145 1
146 1
147 1
148 1
149 1
150 1
151 1
152 1
153 1
154 1
155 1
156 1
157 1
158 1
159 1
160 1
161 1
162 1
163 1
164 1
165 1
166 1
167 1
168 1
169 1
170 1
171 1
172 1
173 1
174 1
175 1
176 1
177 1
178 1
179 1
180 1
181 1
182 1
183 1
184 1
185 1
186 1
187 1
188 1
189 1
190 1
191 1
192 1
COVERAGE_SECTION
2 9 541 736 636 528 529 542 621 385 372 
3 9 657 490 392 699 687 340 144 148 533 
4 8 689 187 585 655 82 429 672 5 
5 6 655 597 187 361 599 82 
6 8 218 232 711 382 550 39 98 501 
7 9 319 335 107 37 165 132 62 226 180 
8 9 89 139 264 231 164 425 111 135 402 
9 9 205 167 84 211 24 440 150 275 267 
10 7 384 318 492 244 329 213 341 
11 9 428 307 487 731 322 119 209 473 611 
12 9 192 631 706 673 463 515 659 587 145 
13 9 439 432 705 271 88 169 342 191 383 
14 9 578 695 727 735 626 81 627 646 618 
15 9 535 483 450 63 48 547 281 343 366 
16 9 649 588 221 536 566 667 399 293 704 
17 9 254 343 387 156 705 370 191 96 324 
18 9 476 583 170 109 725 526 664 509 729 
19 8 610 543 230 360 553 95 499 738 
20 9 75 229 133 414 141 46 415 23 278 
21 9 270 267 150 409 353 440 625 472 437 
22 7 718 464 538 460 602 635 276 
23 9 265 141 253 46 338 415 414 278 117 
24 9 211 205 9 167 84 275 440 383 569 
25 9 606 251 315 243 122 354 249 223 274 
26 9 183 257 427 158 190 325 289 250 246 
27 6 728 207 641 589 616 54 
28 9 590 260 374 123 491 72 661 36 40 
29 9 650 326 159 327 45 416 234 396 136 
30 7 355 713 577 502 65 500 115 
31 9 199 49 185 400 417 64 127 51 126 
32 9 252 70 412 489 236 163 614 245 358 
33 9 474 594 640 612 634 196 517 68 616 
34 9 406 261 312 189 191 306 121 88 96 
35 9 43 182 351 331 346 233 413 369 682 
36 9 260 374 28 435 100 544 448 558 569 
37 9 62 165 107 7 319 335 38 117 226 
38 9 338 278 415 117 253 359 414 23 141 
39 9 550 571 574 47 501 382 186 581 637 
40 9 661 311 123 72 374 407 590 86 217 
41 6 93 461 722 645 693 473 
42 8 630 601 208 497 118 486 694 620 
43 9 35 182 351 331 233 346 413 682 369 
44 9 377 516 223 315 242 606 105 140 224 
45 9 326 416 650 234 396 29 277 399 214 
46 9 23 141 265 253 414 338 415 229 20 
47 9 574 39 581 382 571 550 637 174 501 
48 9 418 450 480 366 341 535 281 15 244 
49 9 199 31 51 400 126 185 368 64 417 
50 9 692 160 563 674 511 691 643 647 729 
51 9 368 173 126 49 31 199 420 303 142 
52 9 200 91 386 98 424 280 116 83 444 
53 9 451 373 269 365 298 362 394 257 325 
54 9 616 728 633 196 207 634 517 27 640 
55 9 350 76 124 376 524 283 203 294 395 
56 9 195 561 178 247 638 720 371 603 171 
57 9 671 519 128 458 643 700 546 367 106 
58 9 403 434 413 513 233 369 351 182 256 
59 9 503 375 584 732 97 367 166 339 441 
60 9 288 363 159 293 396 92 29 416 399 
61 9 359 313 226 443 423 130 352 401 278 
62 9 37 165 107 7 319 335 117 38 226 
63 9 547 144 340 533 148 320 15 194 485 
64 9 400 127 199 31 49 185 285 337 417 
65 9 344 115 302 30 355 500 99 681 206 
66 9 174 408 241 494 670 637 581 607 639 
67 9 575 570 521 531 632 508 473 576 693 
68 9 579 493 410 391 113 462 723 273 652 
69 9 222 401 73 132 323 179 423 352 226 
70 9 252 738 393 32 489 245 163 236 358 
71 9 264 295 256 111 403 139 8 58 164 
72 9 123 407 334 311 590 661 40 28 217 
73 9 69 132 222 401 310 296 94 180 179 
74 9 390 327 258 321 397 136 134 29 282 
75 9 20 133 229 298 362 201 373 414 269 
76 9 124 55 350 376 283 524 203 456 309 
77 8 496 479 719 537 716 286 525 605 
78 9 219 280 614 188 444 91 116 52 382 
79 9 146 135 305 402 285 425 164 139 89 
80 9 621 153 372 454 636 541 736 562 2 
81 9 626 646 709 735 578 627 679 14 654 
82 7 599 187 361 580 710 655 5 
83 9 424 386 116 52 411 91 134 444 405 
84 9 440 167 9 205 150 267 211 21 24 
85 8 527 684 262 356 615 720 702 151 
86 8 324 342 40 169 661 311 705 374 
87 9 588 667 381 694 118 566 536 16 707 
88 9 13 191 439 432 705 271 121 189 387 
89 9 8 139 231 135 425 146 164 304 402 
90 9 613 726 675 279 314 465 697 477 255 
91 9 280 52 116 444 219 424 386 200 78 
92 9 397 363 288 159 60 29 327 282 74 
93 6 41 461 722 645 693 518 
94 9 284 179 258 390 131 310 323 73 152 
95 9 553 360 454 19 610 230 385 528 738 
96 9 306 261 387 156 254 191 17 343 483 
97 9 584 339 367 149 732 546 375 643 59 
98 9 200 52 91 386 232 280 204 424 203 
99 9 681 344 206 302 330 517 612 65 640 
100 9 176 154 544 435 155 472 36 292 260 
101 9 431 142 238 303 417 185 138 31 173 
102 7 140 197 600 210 262 105 721 
103 8 568 466 628 104 129 308 668 463 
104 9 129 568 103 308 466 240 491 628 442 
105 9 388 197 151 262 224 516 102 140 615 
106 9 468 700 586 593 683 671 572 519 128 
107 9 7 319 335 37 62 165 226 38 132 
108 9 696 701 452 592 145 642 446 471 724 
109 9 664 509 422 662 526 476 680 18 609 
110 9 607 639 670 241 494 408 733 530 66 
111 9 256 71 264 295 403 139 164 425 8 
112 9 498 292 171 442 308 544 623 466 195 
113 9 462 273 652 410 618 723 493 666 391 
114 9 445 300 290 685 555 239 436 247 437 
115 9 500 302 355 65 207 27 344 30 577 
116 9 444 424 91 83 411 386 52 175 280 
117 9 253 338 38 265 23 415 141 278 46 
118 7 208 42 694 630 601 497 486 
119 9 611 307 438 11 316 731 487 220 235 
120 9 457 378 582 603 638 678 481 587 702 
121 9 189 312 406 88 271 13 432 383 439 
122 9 274 315 25 259 251 210 606 147 140 
123 9 72 407 590 661 311 334 40 28 374 
124 9 76 376 55 350 283 203 456 524 711 
125 8 688 660 332 552 484 608 18 170 
126 9 368 420 51 49 337 199 31 173 400 
127 9 400 348 64 185 285 417 31 199 305 
128 9 336 458 468 57 560 671 106 430 519 
129 9 104 308 568 491 103 240 466 628 260 
130 9 272 313 349 294 333 443 61 359 423 
131 9 310 94 284 282 296 73 180 390 258 
132 9 73 401 222 335 69 180 296 319 226 
133 9 229 75 20 362 46 298 141 373 414 
134 9 321 411 181 328 83 389 157 175 116 
135 9 402 146 79 425 164 139 305 285 89 
136 9 301 157 234 321 181 327 650 328 214 
137 7 215 506 467 559 549 665 548 
138 9 303 379 433 238 142 173 101 365 431 
139 9 164 425 8 89 135 402 111 146 264 
140 9 102 210 223 315 197 105 122 377 516 
141 9 23 46 265 253 414 338 415 278 20 
142 9 238 303 101 431 138 173 51 379 368 
143 8 523 715 263 619 317 216 514 552 
144 9 533 340 148 320 485 194 63 3 547 
145 9 452 696 701 659 108 673 469 651 724 
146 9 79 135 402 305 425 285 164 139 89 
147 9 598 648 542 249 2 259 274 251 528 
148 9 533 320 144 340 485 194 3 547 392 
149 9 339 732 584 97 216 317 619 514 375 
150 9 267 21 270 440 409 84 353 167 472 
151 9 615 388 262 197 105 85 224 356 527 
152 9 405 323 179 258 284 83 134 94 390 
153 9 80 372 621 454 636 562 541 736 162 
154 9 176 435 100 472 155 440 625 21 270 
155 9 237 472 625 176 345 100 154 437 270 
156 9 343 17 254 387 96 483 15 191 306 
157 9 181 328 421 389 136 175 301 411 412 
158 9 427 246 289 26 250 257 325 183 190 
159 9 363 60 288 29 396 92 416 650 326 
160 8 50 692 563 643 674 546 511 729 
161 9 488 545 595 703 470 447 617 730 495 
162 9 562 245 656 358 236 454 153 80 707 
163 9 489 717 252 188 690 393 70 614 32 
164 9 425 139 402 135 146 79 111 89 403 
165 9 37 62 107 7 319 335 180 296 38 
166 9 299 375 732 59 686 584 503 289 339 
167 9 84 440 9 205 150 211 267 24 21 
168 8 297 532 475 518 534 357 478 455 
169 9 342 432 271 448 86 439 705 558 13 
170 9 583 18 729 476 511 725 332 109 526 
171 9 112 292 498 442 195 623 603 56 561 
172 8 266 507 495 665 453 573 591 703 
173 9 368 51 303 138 142 238 126 250 420 
174 9 66 408 241 581 494 637 670 607 596 
175 9 389 411 421 328 444 181 116 157 219 
176 9 154 472 100 155 435 625 237 270 21 
177 9 430 560 193 228 468 505 336 128 106 
178 9 561 638 720 56 603 457 120 195 378 
179 9 323 152 284 94 405 258 69 390 73 
180 9 296 132 310 335 73 319 7 131 401 
181 9 328 157 389 421 175 411 134 321 136 
182 9 43 35 331 413 351 233 346 682 434 
183 9 26 190 257 394 158 427 289 201 325 
184 9 557 364 227 674 586 593 647 683 563 
185 9 417 31 199 127 400 49 348 64 431 
186 8 540 708 501 564 629 268 571 550 
187 9 82 4 655 5 599 361 689 585 597 
188 9 614 78 163 489 219 382 280 252 444 
189 9 121 312 406 88 13 271 191 432 439 
190 9 183 26 289 257 158 395 394 686 201 
191 9 387 88 254 439 705 13 17 96 432 
192 9 12 515 706 631 463 673 659 587 582 
193 9 505 177 430 228 560 579 68 391 493 
194 9 485 404 512 320 148 533 144 547 340 
195 9 56 561 178 247 171 237 603 638 371 
196 9 634 273 652 113 54 594 633 474 616 
197 9 262 105 151 388 102 600 85 615 140 
198 9 698 508 632 521 575 67 663 235 576 
199 9 31 49 400 64 185 127 417 126 51 
200 9 98 52 386 91 424 280 116 83 204 
201 9 394 298 269 183 190 26 333 451 373 
202 9 347 449 348 380 304 231 417 127 185 
203 9 283 204 309 376 711 98 124 76 232 
204 9 309 203 287 283 98 200 52 376 711 
205 9 9 211 24 84 167 440 275 150 267 
206 9 330 681 99 212 344 302 65 612 213 
207 9 27 616 728 54 302 517 115 641 640 
208 6 118 42 497 630 601 694 
209 7 322 428 722 473 487 41 11 
210 9 140 102 721 122 274 315 653 259 223 
211 9 24 205 9 167 84 275 440 383 150 
212 9 213 330 206 346 681 682 492 99 331 
213 9 212 346 329 492 330 682 331 206 35 
214 9 277 234 301 326 136 45 236 650 412 
215 8 549 137 467 665 506 465 559 726 
216 8 317 619 514 715 523 263 143 149 
217 5 311 407 687 699 72 
218 9 232 6 711 382 98 550 39 280 200 
219 9 280 78 444 91 614 116 52 175 188 
220 8 487 11 243 354 428 119 322 307 
221 7 649 704 667 16 522 588 536 
222 9 69 401 73 132 423 226 352 323 443 
223 9 377 315 44 516 140 606 25 105 122 
224 9 459 388 105 516 151 291 44 615 197 
225 5 494 639 607 670 66 
226 9 61 401 359 222 443 132 313 335 423 
227 8 364 683 593 184 557 586 604 700 
228 9 505 193 177 430 560 68 336 579 468 
229 9 133 20 75 46 141 362 414 23 265 
230 9 610 360 543 653 19 553 95 721 385 
231 9 304 380 89 347 8 202 146 79 135 
232 9 218 6 711 98 200 382 203 280 52 
233 9 351 369 413 182 43 35 58 434 331 
234 9 326 277 214 301 650 45 136 29 416 
235 9 663 731 611 307 198 119 11 473 575 
236 9 358 656 245 162 562 32 277 214 70 
237 9 155 625 345 472 437 239 195 270 176 
238 9 142 303 101 138 431 173 379 51 433 
239 9 345 437 290 114 247 445 625 237 300 
240 7 672 429 129 104 491 585 568 
241 9 408 670 66 494 607 110 733 174 639 
242 9 291 398 44 516 377 316 224 438 459 
243 6 354 251 606 25 249 220 
244 7 341 418 318 366 10 480 384 
245 9 162 236 358 562 656 738 454 70 95 
246 9 158 289 427 26 250 441 503 325 257 
247 9 371 290 56 195 356 239 685 300 720 
248 9 228 33 505 474 64 305 193 285 594 
249 6 648 598 251 354 243 147 
250 9 325 427 257 158 26 246 365 183 289 
251 8 25 243 606 249 354 122 648 315 
252 9 70 489 32 163 393 738 412 717 245 
253 9 23 265 338 141 415 46 117 278 414 
254 9 17 387 156 191 343 705 96 439 13 
255 5 644 613 90 314 697 
256 9 295 111 71 403 264 58 369 139 164 
257 9 26 325 183 427 250 158 365 190 394 
258 9 390 284 74 94 179 152 321 405 323 
259 9 274 385 528 122 147 2 360 210 598 
260 9 28 544 491 36 590 308 374 498 292 
261 9 306 96 387 191 156 34 254 17 88 
262 9 197 151 85 615 388 527 600 105 684 
263 8 523 715 143 514 216 317 619 552 
264 9 71 111 256 295 8 139 89 164 419 
265 9 23 46 253 141 338 415 414 117 278 
266 9 495 172 507 591 453 665 703 470 545 
267 9 150 21 270 409 440 353 84 167 472 
268 5 629 708 540 186 677 
269 9 451 298 373 53 394 365 201 362 257 
270 9 21 267 409 150 625 437 472 353 345 
271 9 432 13 383 169 439 342 448 558 705 
272 9 333 349 130 294 313 201 350 443 524 
273 9 652 113 618 666 462 723 695 727 14 
274 9 122 259 147 210 251 25 315 385 648 
275 9 569 383 558 448 435 205 24 211 271 
276 7 464 538 504 551 718 22 600 
277 9 214 234 301 45 326 236 650 358 656 
278 9 415 338 414 38 253 141 23 359 265 
279 7 697 477 613 90 506 559 467 
280 9 219 91 78 444 52 116 200 614 98 
281 5 366 341 450 48 418 
282 9 390 397 94 258 74 284 131 92 310 
283 9 203 376 309 204 124 76 711 55 350 
284 9 94 258 179 390 152 323 131 310 282 
285 9 305 79 127 146 348 135 402 64 449 
286 7 719 77 716 525 496 479 537 
287 9 309 204 352 203 423 283 98 200 443 
288 9 363 60 159 293 92 29 396 416 399 
289 9 246 158 427 26 190 183 166 503 257 
290 9 114 300 445 685 247 239 555 371 345 
291 9 242 459 398 224 516 44 377 554 316 
292 9 498 112 171 544 308 442 466 623 260 
293 9 16 60 399 649 536 566 396 288 221 
294 9 272 130 333 349 313 55 350 443 423 
295 9 256 71 111 264 403 58 369 233 139 
296 9 180 310 132 73 335 131 319 7 401 
297 7 168 475 532 534 478 518 357 
298 9 269 373 451 394 53 362 201 75 365 
299 9 166 375 686 732 339 149 584 395 59 
300 9 445 114 685 290 555 436 239 247 371 
301 9 136 234 214 277 157 650 326 181 328 
302 9 344 115 207 65 99 681 500 27 517 
303 9 138 238 142 173 379 101 433 431 51 
304 9 380 231 347 202 89 449 8 146 79 
305 9 285 79 146 135 402 127 348 64 425 
306 9 261 96 387 156 191 254 17 343 483 
307 9 119 11 611 731 428 487 235 220 438 
308 9 104 129 466 568 491 498 112 292 103 
309 9 204 203 287 283 98 200 376 124 76 
310 9 131 94 296 73 180 284 132 69 179 
311 7 407 40 661 123 72 217 334 
312 9 189 406 121 88 34 13 24 191 271 
313 9 130 61 359 443 349 272 294 423 333 
314 4 644 675 90 255 
315 9 223 25 122 606 377 140 251 44 274 
316 9 438 398 119 611 307 220 242 11 487 
317 8 216 619 514 715 523 263 143 149 
318 5 384 713 244 10 30 
319 9 335 7 107 132 37 180 165 296 226 
320 9 148 533 144 340 194 485 512 547 3 
321 9 134 136 181 157 328 74 301 389 411 
322 6 209 428 487 11 473 722 
323 9 179 152 405 284 69 258 94 222 73 
324 6 370 86 217 311 40 661 
325 9 250 257 427 26 158 365 246 183 289 
326 9 650 45 234 29 416 396 301 277 214 
327 9 29 650 74 136 326 397 301 159 234 
328 9 181 389 157 421 175 411 134 321 412 
329 9 492 213 346 212 35 43 331 10 682 
330 9 206 212 681 99 213 344 682 65 302 
331 9 682 182 346 43 35 413 434 351 233 
332 8 660 552 170 125 688 729 18 583 
333 9 349 272 130 294 201 313 75 20 394 
334 9 407 72 123 590 311 429 491 661 217 
335 9 319 7 107 132 180 226 296 37 165 
336 9 128 458 560 177 468 430 57 106 671 
337 9 126 336 199 458 49 64 400 420 228 
338 9 415 278 253 141 414 23 38 265 46 
339 9 149 732 584 97 216 317 375 619 514 
340 9 144 533 148 320 3 392 490 63 657 
341 7 366 418 281 48 244 450 480 
342 9 169 86 432 271 448 705 439 558 13 
343 9 156 17 254 483 370 387 15 324 392 
344 9 99 302 681 65 115 206 207 517 330 
345 9 437 239 625 237 155 472 270 290 247 
346 9 331 43 35 682 182 213 212 329 351 
347 9 202 449 380 304 348 231 417 285 127 
348 9 449 127 417 185 202 285 347 305 400 
349 9 333 272 130 294 313 75 201 359 20 
350 9 55 76 124 524 376 283 395 294 686 
351 9 233 369 35 43 182 413 331 58 434 
352 9 423 443 287 222 69 313 61 401 294 
353 9 409 267 21 270 150 437 239 345 625 
354 6 243 249 251 606 322 25 
355 8 30 577 500 502 115 713 65 589 
356 9 720 371 85 178 615 638 561 247 702 
357 5 455 168 532 297 475 
358 9 656 236 162 245 562 707 277 214 381 
359 9 61 313 278 226 130 443 38 415 414 
360 9 553 230 95 385 528 610 19 653 454 
361 5 599 82 580 655 710 
362 9 373 451 53 298 269 133 365 75 229 
363 9 288 60 159 92 293 29 397 396 416 
364 8 227 593 184 586 557 683 700 674 
365 9 53 451 325 257 269 250 373 394 26 
366 7 341 281 418 450 48 480 244 
367 9 546 97 643 584 57 59 339 732 149 
368 9 51 173 126 49 420 199 31 303 142 
369 9 233 351 413 58 43 182 35 434 403 
370 6 324 490 392 699 657 3 
371 9 356 247 720 615 290 555 178 685 56 
372 9 621 636 80 541 736 153 529 2 454 
373 9 451 53 269 298 362 394 365 201 257 
374 9 661 28 40 590 123 36 72 311 260 
375 9 59 584 732 166 503 339 97 299 149 
376 9 124 76 283 711 203 456 55 350 426 
377 9 44 223 516 315 606 25 140 105 242 
378 8 120 678 457 638 481 582 702 587 
379 9 433 138 303 238 142 365 53 173 362 
380 9 304 231 347 202 89 449 146 8 79 
381 9 707 87 566 536 399 588 656 416 396 
382 9 47 39 6 550 574 218 571 188 78 
383 9 558 569 448 275 271 169 432 342 435 
384 7 318 10 30 713 65 492 244 
385 9 528 259 360 2 553 541 621 95 454 
386 9 424 83 52 116 200 91 98 444 280 
387 9 254 17 191 96 156 343 705 88 439 
388 9 105 151 197 615 262 224 459 85 516 
389 9 175 421 328 411 181 157 444 116 134 
390 9 258 74 284 94 282 397 179 321 152 
391 9 493 410 579 68 462 113 723 666 618 
392 9 490 3 657 699 340 144 687 533 148 
393 7 738 70 252 690 717 163 19 
394 9 201 269 298 183 451 257 373 53 26 
395 9 686 524 190 299 166 350 289 183 55 
396 9 416 399 536 566 45 326 293 16 29 
397 9 92 74 327 282 159 390 29 363 288 
398 9 242 316 438 291 220 119 44 377 611 
399 9 536 566 396 416 16 588 293 649 45 
400 9 64 199 31 127 49 185 417 348 337 
401 9 222 69 132 73 226 423 443 61 352 
402 9 135 146 425 79 164 139 305 285 89 
403 9 58 513 256 434 111 413 295 164 233 
404 9 194 485 716 512 537 77 286 712 320 
405 9 152 323 83 179 424 134 386 258 116 
406 9 312 189 121 34 88 191 13 439 271 
407 8 72 123 311 334 661 217 590 40 
408 9 241 66 174 670 494 607 637 733 110 
409 9 353 270 21 437 267 150 345 625 239 
410 9 493 391 579 462 68 113 723 666 618 
411 9 175 389 421 328 116 444 181 134 83 
412 9 32 421 157 389 328 175 181 214 614 
413 9 434 233 182 58 351 43 369 331 35 
414 9 415 278 141 338 23 253 20 46 265 
415 9 278 338 414 141 253 23 38 265 46 
416 9 396 45 399 536 566 326 650 29 234 
417 9 185 31 348 127 199 400 449 49 431 
418 8 48 341 480 366 450 281 244 535 
419 9 8 264 89 71 111 139 231 295 256 
420 9 126 441 368 51 246 250 337 427 158 
421 9 389 175 328 181 411 157 412 444 116 
422 9 664 509 109 662 526 680 622 476 609 
423 9 352 443 61 287 313 222 401 69 130 
424 9 83 386 116 52 91 200 444 411 280 
425 9 164 402 135 139 146 79 89 111 8 
426 7 456 608 484 677 143 376 523 
427 9 158 246 250 325 26 257 289 183 190 
428 8 11 322 209 487 473 731 307 220 
429 8 672 585 240 334 4 689 510 491 
430 9 177 560 468 193 106 336 505 128 228 
431 9 101 142 238 417 185 303 31 51 49 
432 9 13 439 705 271 169 342 88 383 448 
433 9 379 138 303 53 365 362 238 451 142 
434 9 413 58 513 182 233 331 403 682 43 
435 9 154 100 569 176 36 558 275 448 383 
436 9 300 445 554 685 555 114 290 459 224 
437 9 345 239 625 409 270 237 21 353 290 
438 9 316 119 398 611 307 220 11 487 242 
439 9 13 432 705 271 88 169 342 191 86 
440 9 84 167 150 267 9 21 205 270 154 
441 9 503 420 59 246 458 158 289 375 427 
442 9 623 171 466 603 112 515 498 292 457 
443 9 423 352 61 313 130 359 226 294 401 
444 9 116 219 91 175 280 411 389 78 421 
445 9 114 300 290 685 555 436 239 247 437 
446 5 701 108 642 724 592 
447 6 595 161 488 525 545 624 
448 9 558 569 383 169 271 275 342 435 36 
449 9 202 348 347 417 127 185 285 380 304 
450 9 48 535 366 418 281 341 15 480 483 
451 9 373 53 269 298 365 362 394 257 201 
452 9 145 701 696 108 469 659 724 651 673 
453 7 573 507 617 495 172 703 545 
454 9 80 95 621 153 562 162 553 372 528 
455 4 357 532 168 297 
456 7 426 608 484 376 677 711 143 
457 9 120 603 378 582 638 481 678 587 178 
458 9 336 128 57 560 671 468 519 441 106 
459 9 224 388 554 291 105 516 151 436 555 
460 6 602 651 22 469 724 635 
461 5 93 645 41 693 722 
462 9 113 723 410 666 493 618 391 273 652 
463 9 673 659 12 668 631 192 520 145 706 
464 7 276 538 22 718 551 504 460 
465 7 726 675 467 90 215 314 613 
466 9 103 568 104 442 308 623 628 129 192 
467 9 215 137 726 506 465 559 90 549 477 
468 9 106 430 560 128 177 700 671 336 572 
469 6 651 724 452 701 145 602 
470 8 730 488 545 703 482 161 495 595 
471 6 592 642 676 108 696 737 
472 9 155 625 176 237 270 154 21 345 100 
473 9 41 428 209 67 575 722 93 731 322 
474 9 33 594 634 196 68 640 612 579 113 
475 7 297 168 478 534 532 518 357 
476 9 18 583 109 526 170 664 509 422 725 
477 8 279 697 613 506 90 559 467 726 
478 4 534 475 297 168 
479 9 496 77 537 605 719 716 525 556 286 
480 8 418 48 341 450 366 244 535 281 
481 8 587 582 378 120 678 457 706 515 
482 3 730 470 161 
483 9 15 535 343 156 450 63 48 17 281 
484 8 608 677 125 660 426 552 263 688 
485 9 194 404 512 320 148 533 144 340 547 
486 5 714 694 620 42 630 
487 8 428 220 11 322 209 307 354 119 
488 9 545 703 161 595 470 617 495 730 453 
489 9 163 252 32 188 70 614 393 717 412 
490 8 392 657 3 699 687 340 144 370 
491 9 129 260 590 28 308 104 240 334 72 
492 9 329 213 10 212 384 346 330 318 65 
493 9 410 391 579 68 462 113 723 666 618 
494 9 670 607 639 66 241 408 225 174 110 
495 9 266 172 507 703 453 545 488 470 730 
496 9 479 77 537 719 605 716 525 286 556 
497 4 601 630 42 208 
498 9 292 112 171 544 308 442 466 623 260 
499 4 543 565 610 19 
500 7 115 355 577 589 502 641 30 
501 7 550 186 571 540 39 629 708 
502 5 577 355 713 500 30 
503 9 59 375 441 584 246 166 367 289 732 
504 8 276 464 718 565 538 22 721 551 
505 9 193 228 177 68 430 579 391 493 410 
506 6 559 137 548 467 477 279 
507 7 172 453 573 495 266 665 617 
508 8 632 521 698 576 198 67 575 570 
509 9 664 109 422 662 680 526 609 622 476 
510 5 710 672 585 82 580 
511 8 729 170 563 583 691 725 647 18 
512 9 194 485 404 597 320 716 148 286 533 
513 9 434 58 403 413 233 182 331 682 369 
514 8 216 317 263 715 619 523 143 552 
515 9 192 12 706 582 623 587 631 481 463 
516 9 44 377 223 105 224 315 242 140 388 
517 9 640 612 616 594 207 54 634 99 302 
518 6 532 168 297 475 357 478 
519 9 671 700 57 643 674 586 106 546 593 
520 8 734 737 668 463 696 145 673 452 
521 9 632 508 698 576 575 67 570 531 198 
522 6 704 221 649 16 667 293 
523 8 715 143 263 317 619 216 514 552 
524 9 395 686 350 55 76 299 190 124 166 
525 7 719 77 286 447 496 479 605 
526 9 422 664 109 509 476 662 680 18 539 
527 6 684 85 551 702 600 262 
528 9 385 2 259 360 553 541 621 736 454 
529 6 736 636 541 542 2 372 
530 5 733 658 110 241 564 
531 6 570 576 67 521 693 575 
532 7 168 297 518 475 357 534 455 
533 9 148 144 320 340 485 194 3 547 63 
534 4 478 475 297 168 
535 9 450 15 48 483 281 366 418 480 341 
536 9 566 399 396 16 588 416 293 649 87 
537 9 716 479 77 496 712 404 719 286 605 
538 6 464 22 551 276 718 460 
539 6 526 422 664 476 680 109 
540 6 708 186 564 629 268 501 
541 9 736 636 372 2 621 529 80 153 542 
542 6 598 529 2 147 648 736 
543 7 610 230 653 19 499 721 360 
544 9 100 260 292 498 112 36 171 308 28 
545 9 703 488 161 470 595 495 617 730 453 
546 9 643 367 97 160 519 692 50 674 57 
547 9 63 144 194 485 320 533 712 148 404 
548 6 559 573 506 137 453 507 
549 5 215 137 665 467 506 
550 9 39 571 501 574 47 186 382 540 708 
551 6 538 276 684 464 527 22 
552 8 660 332 263 125 514 688 523 715 
553 9 360 95 230 385 528 454 610 19 543 
554 9 436 459 224 555 685 300 445 291 114 
555 9 685 300 445 290 114 436 371 615 247 
556 4 605 479 496 77 
557 8 184 364 227 586 593 647 674 683 
558 9 448 569 383 275 271 169 435 342 36 
559 6 506 548 137 467 477 279 
560 9 430 177 468 336 128 193 106 228 505 
561 9 178 638 56 603 457 720 120 195 378 
562 9 162 656 153 358 245 454 80 236 707 
563 8 691 647 50 511 692 674 184 557 
564 3 708 540 186 
565 4 635 718 499 22 
566 9 536 399 396 16 588 416 649 87 293 
567 5 654 679 709 81 626 
568 8 103 104 466 129 628 308 240 668 
569 9 558 448 383 275 435 271 169 36 342 
570 7 531 67 575 576 693 521 632 
571 9 39 550 574 501 47 186 637 540 581 
572 8 683 669 593 604 106 227 586 391 
573 7 453 507 548 617 172 495 665 
574 9 571 47 39 581 550 637 658 501 174 
575 9 67 570 521 632 531 508 473 576 698 
576 7 531 521 570 632 508 67 575 
577 7 502 355 500 30 713 115 589 
578 9 735 14 646 81 626 695 727 627 709 
579 9 391 493 410 68 462 113 723 666 618 
580 4 710 599 361 82 
581 9 637 174 574 66 47 408 241 658 571 
582 9 481 587 120 457 378 515 678 603 706 
583 9 18 170 476 725 729 109 511 509 664 
584 9 97 732 339 149 375 367 59 546 503 
585 8 672 429 4 187 510 689 240 82 
586 9 593 683 364 700 227 184 557 106 674 
587 9 481 582 706 515 378 120 631 678 192 
588 9 16 667 87 649 566 536 221 399 704 
589 3 641 27 500 
590 9 28 123 72 334 407 661 374 491 40 
591 3 266 172 495 
592 6 642 471 676 108 696 446 
593 9 586 683 364 227 700 184 557 106 572 
594 9 640 33 634 474 612 196 517 616 54 
595 7 161 447 488 545 703 470 617 
596 3 174 690 66 
597 6 5 512 655 194 485 187 
598 4 648 147 249 542 
599 7 361 82 580 710 655 187 5 
600 7 684 527 102 551 262 276 197 
601 5 630 42 497 208 620 
602 6 460 651 469 22 724 631 
603 9 457 120 623 582 638 561 378 178 442 
604 7 669 727 695 578 735 14 572 
605 5 556 479 496 525 77 
606 8 25 251 243 315 354 223 377 122 
607 8 639 670 110 494 241 408 225 66 
608 7 484 677 125 426 660 688 552 
609 7 662 509 725 109 664 622 422 
610 8 19 230 543 360 553 653 95 499 
611 9 119 307 438 235 731 11 316 663 487 
612 9 640 517 594 33 616 634 54 474 99 
613 8 90 697 279 477 726 255 675 314 
614 9 188 78 219 444 489 280 175 421 412 
615 9 151 262 388 85 356 371 197 555 105 
616 9 54 207 517 728 640 27 634 196 633 
617 9 453 573 488 545 703 161 507 495 595 
618 9 666 723 652 273 462 695 727 113 14 
619 9 317 216 715 143 523 514 263 149 339 
620 5 486 714 630 42 601 
621 9 80 372 541 636 153 736 454 2 529 
622 7 680 662 422 509 664 109 609 
623 9 442 603 515 457 582 192 120 466 12 
624 5 617 447 595 161 488 
625 9 237 472 155 345 437 270 239 21 176 
626 9 81 646 627 679 709 578 735 14 654 
627 8 626 81 679 14 578 646 735 695 
628 8 668 103 734 520 463 568 673 737 
629 6 268 540 708 677 186 501 
630 5 601 42 497 208 620 
631 9 706 12 659 673 192 463 145 651 515 
632 9 521 508 698 576 67 575 570 198 531 
633 6 54 627 273 728 652 196 
634 9 196 594 54 474 640 273 616 113 633 
635 3 718 565 22 
636 8 736 541 372 529 621 2 80 153 
637 9 581 658 408 174 66 574 733 241 571 
638 9 178 120 378 561 457 678 702 603 720 
639 7 607 670 110 494 225 241 408 
640 9 612 517 594 616 634 33 54 196 474 
641 2 589 27 
642 6 592 471 676 108 446 696 
643 9 546 367 519 692 674 160 671 50 57 
644 5 255 314 90 613 675 
645 4 461 93 693 41 
646 9 81 626 709 735 578 654 14 679 627 
647 5 691 563 557 184 511 
648 5 598 249 147 542 251 
649 9 221 16 704 667 588 522 293 536 566 
650 9 326 29 45 234 327 301 416 136 396 
651 7 469 724 602 460 452 145 659 
652 9 273 618 113 666 723 462 695 727 14 
653 9 721 230 543 610 360 504 210 19 499 
654 8 709 646 81 567 626 679 735 578 
655 7 5 187 597 82 599 361 4 
656 9 358 162 236 562 245 707 381 277 153 
657 8 3 490 699 392 687 340 144 148 
658 9 733 637 241 408 530 564 66 110 174 
659 9 673 145 631 463 452 12 706 651 696 
660 8 552 332 125 688 263 514 484 170 
661 9 40 123 311 72 374 407 590 28 217 
662 9 509 422 664 680 109 622 609 526 476 
663 9 235 731 198 611 307 119 698 11 575 
664 9 509 422 109 662 526 680 476 622 609 
665 6 172 507 137 266 549 453 
666 9 618 723 462 727 652 695 273 113 14 
667 6 588 221 704 649 16 87 
668 8 520 734 463 737 628 673 659 145 
669 8 604 727 695 723 666 14 578 618 
670 9 607 494 241 639 408 110 66 174 225 
671 9 519 700 57 106 586 128 643 468 593 
672 7 429 585 240 510 4 334 689 
673 9 463 659 12 631 145 192 668 452 706 
674 9 692 50 184 557 563 364 586 700 519 
675 5 465 726 314 90 613 
676 5 642 471 592 446 108 
677 7 608 484 629 268 125 426 688 
678 8 378 702 120 481 457 582 638 587 
679 7 626 81 627 709 567 646 654 
680 8 662 622 422 509 664 109 526 609 
681 9 99 206 344 330 302 517 612 65 212 
682 9 331 346 182 43 413 434 35 212 213 
683 9 593 586 227 364 572 700 184 106 557 
684 6 527 551 85 702 600 678 
685 9 555 300 445 290 114 436 371 247 615 
686 9 395 524 299 166 190 289 375 183 350 
687 5 699 657 3 490 217 
688 9 125 332 660 552 18 539 476 170 484 
689 7 4 687 187 585 217 429 334 
690 4 717 596 393 163 
691 5 647 563 511 557 184 
692 9 50 674 160 563 643 184 557 691 647 
693 4 461 645 93 41 
694 7 486 714 42 118 630 601 620 
695 9 727 14 578 618 666 723 735 669 626 
696 9 108 701 452 145 737 592 520 659 724 
697 7 279 477 613 90 506 255 559 
698 8 508 632 198 521 576 575 67 570 
699 5 657 687 3 490 392 
700 9 519 586 671 593 106 683 364 674 227 
701 8 452 696 108 145 724 469 446 651 
702 8 678 378 638 684 527 120 720 457 
703 9 545 488 161 470 495 595 617 453 730 
704 5 221 649 667 522 16 
705 9 439 13 432 169 342 271 88 86 254 
706 9 631 12 192 515 587 659 673 463 481 
707 9 381 656 562 358 87 162 153 566 236 
708 6 540 186 564 268 629 501 
709 9 654 646 81 626 679 567 735 578 627 
710 5 580 82 510 599 361 
711 8 232 218 6 376 203 283 456 426 
712 8 537 479 716 496 77 404 547 556 
713 4 30 502 355 577 
714 4 486 694 620 42 
715 8 523 143 263 317 619 216 514 552 
716 9 537 77 286 496 404 479 719 712 525 
717 5 690 163 393 596 489 
718 7 22 464 635 538 565 276 460 
719 8 525 77 286 496 479 716 537 605 
720 9 356 178 638 371 561 702 85 378 678 
721 8 653 210 504 543 230 102 276 140 
722 7 93 41 461 645 518 209 693 
723 9 666 618 462 113 652 727 273 695 410 
724 5 469 651 701 452 145 
725 9 583 609 18 109 476 170 509 511 664 
726 9 465 90 675 467 613 314 215 279 477 
727 9 695 14 666 618 578 669 723 735 652 
728 6 27 54 616 207 633 641 
729 9 170 511 583 18 332 725 476 563 50 
730 7 470 482 545 488 703 161 495 
731 9 307 11 235 428 473 611 119 663 487 
732 9 339 584 149 97 375 59 299 619 166 
733 9 658 530 241 408 110 637 670 607 66 
734 7 520 737 668 463 628 696 145 
735 9 578 646 14 81 626 695 727 709 627 
736 8 636 541 372 529 621 2 80 153 
737 7 520 734 668 696 108 145 452 
738 9 393 70 245 19 95 252 610 553 32 
DEPOT_SECTION
   1
   -1
EOF
