NAME :  X-n957-kX-w382-c7.cctp
COMMENT : 	Adapted by Maziero, Usberti and Cavellucci from the Uchoa, Pecin, Pessoa, Poggi, Subramanian, and Vidal (2013)
TYPE :  CCTP
DIMENSION :    808
EDGE_WEIGHT_TYPE : 	EUC_2D	
CAPACITY : 	11
VERTICES_WITHIN_COVERAGE :  7
VERTICES_WITH_DEMAND : 	382
NODE_COORD_SECTION
1 737 450
2 235 789
3 340 234
4 346 320
5 406 309
6 556 636
7 872 923
8 937 83
9 9 321
10 558 18
11 63 833
12 250 509
13 143 192
14 624 286
15 364 117
16 332 953
17 235 142
18 590 430
19 303 692
20 936 665
21 39 410
22 247 581
23 986 739
24 11 283
25 138 747
26 837 511
27 596 206
28 218 339
29 443 922
30 555 133
31 896 306
32 415 752
33 691 216
34 51 0
35 726 19
36 166 333
37 951 932
38 928 807
39 505 590
40 236 284
41 115 882
42 238 887
43 729 26
44 94 697
45 409 899
46 993 715
47 473 607
48 414 55
49 884 327
50 651 407
51 891 372
52 570 733
53 919 529
54 629 220
55 711 630
56 141 492
57 720 382
58 794 51
59 745 451
60 409 990
61 825 781
62 966 938
63 378 175
64 859 269
65 596 131
66 419 557
67 77 908
68 679 268
69 726 860
70 382 728
71 885 15
72 258 313
73 734 905
74 533 912
75 924 636
76 694 621
77 469 223
78 507 707
79 892 168
80 281 800
81 607 285
82 388 354
83 568 781
84 22 348
85 153 579
86 218 236
87 308 904
88 119 154
89 939 105
90 489 374
91 547 736
92 480 1000
93 124 883
94 647 930
95 295 741
96 213 53
97 701 446
98 589 708
99 644 147
100 133 377
101 983 343
102 169 651
103 262 450
104 255 422
105 115 640
106 693 344
107 896 910
108 298 531
109 573 416
110 416 512
111 870 50
112 185 436
113 656 268
114 53 522
115 587 165
116 542 762
117 995 809
118 266 878
119 27 812
120 196 522
121 45 164
122 174 729
123 252 311
124 681 621
125 594 478
126 848 361
127 897 253
128 729 354
129 255 410
130 811 703
131 677 991
132 781 909
133 971 632
134 540 824
135 887 144
136 475 860
137 509 336
138 967 433
139 897 98
140 157 676
141 971 727
142 972 381
143 658 504
144 375 214
145 280 526
146 895 158
147 196 779
148 379 223
149 692 470
150 22 395
151 119 604
152 622 843
153 289 811
154 98 365
155 111 426
156 261 101
157 483 818
158 820 480
159 433 961
160 656 421
161 511 273
162 334 794
163 426 686
164 870 112
165 941 978
166 744 498
167 7 346
168 168 877
169 166 244
170 604 430
171 176 452
172 522 306
173 912 406
174 423 564
175 505 779
176 101 383
177 729 307
178 162 515
179 647 869
180 784 983
181 496 811
182 736 39
183 833 529
184 646 367
185 922 294
186 513 535
187 373 331
188 471 694
189 39 149
190 813 538
191 153 115
192 244 505
193 716 286
194 409 228
195 140 484
196 652 239
197 141 628
198 30 924
199 877 307
200 586 723
201 336 615
202 856 584
203 984 221
204 641 671
205 648 704
206 19 309
207 661 125
208 614 194
209 253 864
210 106 841
211 187 687
212 5 289
213 657 83
214 658 58
215 419 839
216 519 347
217 191 864
218 666 486
219 288 276
220 562 646
221 516 725
222 75 785
223 309 966
224 743 856
225 121 698
226 286 258
227 70 635
228 376 539
229 824 834
230 650 350
231 742 277
232 977 647
233 268 698
234 973 145
235 569 655
236 765 22
237 427 869
238 11 869
239 377 793
240 162 897
241 102 444
242 979 386
243 69 483
244 294 395
245 424 536
246 37 705
247 126 782
248 490 30
249 348 771
250 808 469
251 107 512
252 782 207
253 161 793
254 859 469
255 148 763
256 403 723
257 978 760
258 214 132
259 467 387
260 292 262
261 238 846
262 853 27
263 855 506
264 591 902
265 213 742
266 203 364
267 183 3
268 143 608
269 501 152
270 649 492
271 904 31
272 997 741
273 527 299
274 26 402
275 543 506
276 902 548
277 47 419
278 125 226
279 206 608
280 811 668
281 643 265
282 189 736
283 79 287
284 382 630
285 225 604
286 412 843
287 924 756
288 474 356
289 533 721
290 445 101
291 579 994
292 652 658
293 633 914
294 889 206
295 464 243
296 680 735
297 420 998
298 798 490
299 75 518
300 27 680
301 118 804
302 181 428
303 489 91
304 367 977
305 777 679
306 501 137
307 856 6
308 75 999
309 777 984
310 171 874
311 909 569
312 730 509
313 326 596
314 59 533
315 455 853
316 612 163
317 959 409
318 987 154
319 883 195
320 207 6
321 39 831
322 227 416
323 657 701
324 703 976
325 260 286
326 6 135
327 821 740
328 491 397
329 140 716
330 6 773
331 497 447
332 666 487
333 529 74
334 860 929
335 384 223
336 524 854
337 102 833
338 653 843
339 260 234
340 66 997
341 864 478
342 425 897
343 482 914
344 497 805
345 646 13
346 670 113
347 483 458
348 722 56
349 611 456
350 832 655
351 275 331
352 851 924
353 746 341
354 811 324
355 950 762
356 697 467
357 368 215
358 458 65
359 174 245
360 277 138
361 624 145
362 80 463
363 696 41
364 309 279
365 985 212
366 934 241
367 839 676
368 717 623
369 752 11
370 732 768
371 5 440
372 125 793
373 556 154
374 137 547
375 178 892
376 363 804
377 855 769
378 269 726
379 415 353
380 961 560
381 432 998
382 197 594
383 354 413
384 655 357
385 903 500
386 446 77
387 710 425
388 883 381
389 776 9
390 286 208
391 119 538
392 267 810
393 924 550
394 207 306
395 734 468
396 654 618
397 102 700
398 196 533
399 978 464
400 987 161
401 342 874
402 501 638
403 105 260
404 557 72
405 246 754
406 577 758
407 200 110
408 107 621
409 501 789
410 581 925
411 672 281
412 333 221
413 366 691
414 871 557
415 759 559
416 384 926
417 512 969
418 29 740
419 361 929
420 874 282
421 769 858
422 878 141
423 820 64
424 429 224
425 611 820
426 26 93
427 268 308
428 426 545
429 28 441
430 669 276
431 519 784
432 445 780
433 762 46
434 935 724
435 937 750
436 390 916
437 934 288
438 435 47
439 990 14
440 830 399
441 490 787
442 564 416
443 748 774
444 566 767
445 873 118
446 626 559
447 833 478
448 82 836
449 311 362
450 718 313
451 975 337
452 148 207
453 986 476
454 769 67
455 114 335
456 28 562
457 59 461
458 12 780
459 154 192
460 27 360
461 787 422
462 206 469
463 774 765
464 521 751
465 499 129
466 52 528
467 304 554
468 502 257
469 131 279
470 960 233
471 408 79
472 917 541
473 195 837
474 163 907
475 282 530
476 506 298
477 295 775
478 179 898
479 196 516
480 754 367
481 53 627
482 252 558
483 122 892
484 657 277
485 267 505
486 234 594
487 197 863
488 512 375
489 239 454
490 505 354
491 500 422
492 707 336
493 273 546
494 527 276
495 322 525
496 91 411
497 85 871
498 688 231
499 526 472
500 196 877
501 172 870
502 584 428
503 476 354
504 180 863
505 473 213
506 422 21
507 192 866
508 218 531
509 330 99
510 608 516
511 435 353
512 408 228
513 241 919
514 80 811
515 513 278
516 429 712
517 330 226
518 247 375
519 619 32
520 671 277
521 382 441
522 403 542
523 521 294
524 522 435
525 473 216
526 224 863
527 183 428
528 293 641
529 568 173
530 529 560
531 532 163
532 760 446
533 240 624
534 431 401
535 719 272
536 493 338
537 513 305
538 58 940
539 569 412
540 357 402
541 495 188
542 618 412
543 194 844
544 416 250
545 788 91
546 658 479
547 231 504
548 93 683
549 648 191
550 155 877
551 692 379
552 291 501
553 65 935
554 308 1000
555 655 499
556 750 582
557 488 236
558 505 403
559 566 428
560 68 979
561 199 868
562 177 583
563 246 760
564 233 820
565 450 497
566 369 620
567 98 932
568 164 880
569 378 219
570 183 868
571 528 489
572 228 852
573 381 89
574 355 930
575 458 212
576 228 583
577 481 409
578 516 526
579 250 804
580 209 808
581 275 671
582 170 388
583 514 280
584 692 415
585 405 186
586 494 319
587 527 341
588 514 583
589 208 584
590 625 472
591 280 735
592 368 535
593 3 597
594 74 556
595 644 366
596 125 280
597 491 334
598 306 641
599 516 417
600 728 321
601 163 510
602 325 804
603 634 395
604 497 506
605 354 927
606 264 442
607 292 250
608 102 989
609 113 287
610 93 921
611 501 576
612 670 319
613 500 304
614 479 583
615 74 907
616 88 945
617 139 808
618 540 167
619 619 292
620 678 278
621 410 380
622 447 579
623 214 521
624 596 421
625 711 456
626 333 359
627 668 356
628 225 531
629 320 932
630 566 207
631 238 331
632 344 596
633 544 305
634 316 530
635 666 352
636 671 214
637 508 266
638 389 596
639 408 282
640 198 849
641 439 346
642 186 797
643 407 355
644 184 615
645 642 467
646 226 880
647 252 556
648 192 502
649 362 596
650 123 748
651 405 524
652 604 519
653 578 394
654 290 691
655 16 824
656 664 191
657 482 371
658 508 82
659 478 725
660 521 464
661 115 585
662 461 356
663 630 209
664 499 288
665 503 407
666 643 278
667 670 494
668 270 798
669 212 485
670 84 435
671 608 283
672 474 478
673 613 272
674 275 474
675 549 526
676 229 882
677 253 521
678 63 939
679 622 245
680 656 232
681 253 812
682 171 909
683 454 558
684 176 526
685 397 522
686 660 200
687 574 213
688 319 535
689 688 407
690 470 141
691 475 401
692 131 896
693 606 292
694 623 382
695 509 413
696 626 343
697 300 624
698 178 795
699 321 965
700 437 899
701 470 151
702 343 576
703 643 266
704 242 679
705 592 292
706 398 315
707 356 814
708 333 236
709 508 179
710 460 532
711 267 520
712 618 473
713 237 292
714 564 407
715 477 269
716 480 478
717 0 879
718 568 415
719 520 320
720 644 280
721 299 943
722 642 304
723 410 533
724 699 373
725 320 373
726 266 512
727 451 452
728 661 386
729 155 908
730 504 387
731 329 539
732 583 527
733 198 544
734 387 439
735 599 274
736 554 410
737 649 140
738 715 73
739 664 345
740 214 857
741 270 955
742 182 583
743 70 547
744 751 545
745 325 263
746 587 472
747 331 307
748 159 909
749 386 644
750 656 400
751 260 910
752 467 416
753 632 287
754 292 527
755 473 358
756 44 941
757 323 246
758 683 364
759 289 536
760 156 911
761 183 553
762 514 281
763 293 971
764 171 190
765 146 893
766 244 521
767 340 856
768 516 521
769 596 289
770 366 504
771 391 390
772 602 631
773 453 376
774 448 189
775 530 131
776 509 482
777 340 432
778 242 924
779 186 848
780 658 496
781 452 224
782 401 652
783 145 832
784 254 592
785 477 236
786 150 541
787 224 670
788 125 870
789 649 282
790 594 407
791 501 372
792 634 289
793 608 220
794 618 428
795 532 276
796 47 856
797 300 609
798 348 569
799 351 637
800 708 471
801 448 523
802 320 640
803 451 379
804 616 295
805 249 810
806 299 505
807 550 289
808 347 720
DEMAND_SECTION
2 1
3 1
4 1
5 1
6 1
7 1
8 1
9 1
10 1
11 1
12 1
13 1
14 1
15 1
16 1
17 1
18 1
19 1
20 1
21 1
22 1
23 1
24 1
25 1
26 1
27 1
28 1
29 1
30 1
31 1
32 1
33 1
34 1
35 1
36 1
37 1
38 1
39 1
40 1
41 1
42 1
43 1
44 1
45 1
46 1
47 1
48 1
49 1
50 1
51 1
52 1
53 1
54 1
55 1
56 1
57 1
58 1
59 1
60 1
61 1
62 1
63 1
64 1
65 1
66 1
67 1
68 1
69 1
70 1
71 1
72 1
73 1
74 1
75 1
76 1
77 1
78 1
79 1
80 1
81 1
82 1
83 1
84 1
85 1
86 1
87 1
88 1
89 1
90 1
91 1
92 1
93 1
94 1
95 1
96 1
97 1
98 1
99 1
100 1
101 1
102 1
103 1
104 1
105 1
106 1
107 1
108 1
109 1
110 1
111 1
112 1
113 1
114 1
115 1
116 1
117 1
118 1
119 1
120 1
121 1
122 1
123 1
124 1
125 1
126 1
127 1
128 1
129 1
130 1
131 1
132 1
133 1
134 1
135 1
136 1
137 1
138 1
139 1
140 1
141 1
142 1
143 1
144 1
145 1
146 1
147 1
148 1
149 1
150 1
151 1
152 1
153 1
154 1
155 1
156 1
157 1
158 1
159 1
160 1
161 1
162 1
163 1
164 1
165 1
166 1
167 1
168 1
169 1
170 1
171 1
172 1
173 1
174 1
175 1
176 1
177 1
178 1
179 1
180 1
181 1
182 1
183 1
184 1
185 1
186 1
187 1
188 1
189 1
190 1
191 1
192 1
193 1
194 1
195 1
196 1
197 1
198 1
199 1
200 1
201 1
202 1
203 1
204 1
205 1
206 1
207 1
208 1
209 1
210 1
211 1
212 1
213 1
214 1
215 1
216 1
217 1
218 1
219 1
220 1
221 1
222 1
223 1
224 1
225 1
226 1
227 1
228 1
229 1
230 1
231 1
232 1
233 1
234 1
235 1
236 1
237 1
238 1
239 1
240 1
241 1
242 1
243 1
244 1
245 1
246 1
247 1
248 1
249 1
250 1
251 1
252 1
253 1
254 1
255 1
256 1
257 1
258 1
259 1
260 1
261 1
262 1
263 1
264 1
265 1
266 1
267 1
268 1
269 1
270 1
271 1
272 1
273 1
274 1
275 1
276 1
277 1
278 1
279 1
280 1
281 1
282 1
283 1
284 1
285 1
286 1
287 1
288 1
289 1
290 1
291 1
292 1
293 1
294 1
295 1
296 1
297 1
298 1
299 1
300 1
301 1
302 1
303 1
304 1
305 1
306 1
307 1
308 1
309 1
310 1
311 1
312 1
313 1
314 1
315 1
316 1
317 1
318 1
319 1
320 1
321 1
322 1
323 1
324 1
325 1
326 1
327 1
328 1
329 1
330 1
331 1
332 1
333 1
334 1
335 1
336 1
337 1
338 1
339 1
340 1
341 1
342 1
343 1
344 1
345 1
346 1
347 1
348 1
349 1
350 1
351 1
352 1
353 1
354 1
355 1
356 1
357 1
358 1
359 1
360 1
361 1
362 1
363 1
364 1
365 1
366 1
367 1
368 1
369 1
370 1
371 1
372 1
373 1
374 1
375 1
376 1
377 1
378 1
379 1
380 1
381 1
382 1
383 1
COVERAGE_SECTION
2 7 579 805 681 563 564 580 668 
3 7 708 517 412 757 745 357 144 
4 7 747 187 626 706 82 364 449 
5 7 706 639 187 379 643 82 641 
6 7 220 235 772 402 588 39 98 
7 7 334 352 107 37 165 132 62 
8 7 89 139 271 234 164 445 111 
9 7 206 167 84 212 24 460 150 
10 7 404 333 519 248 658 345 303 
11 7 448 321 514 796 337 119 210 
12 7 192 677 766 726 485 547 711 
13 7 459 452 764 278 88 169 359 
14 7 619 753 792 804 671 81 673 
15 7 573 509 471 63 48 585 290 
16 7 699 629 223 574 605 721 419 
17 7 258 360 407 156 764 390 191 
18 7 502 624 170 109 790 559 718 
19 7 654 581 233 378 591 95 598 
20 7 75 232 133 434 141 46 435 
21 7 277 274 150 429 371 460 670 
22 5 784 486 576 482 647 
23 7 272 141 257 46 355 435 434 
24 7 212 206 9 167 84 283 460 
25 7 650 255 329 247 122 372 253 
26 7 183 263 447 158 190 341 298 
27 5 793 208 687 630 663 
28 7 631 266 394 123 518 72 713 
29 7 700 342 159 343 45 436 237 
30 7 373 775 618 531 65 529 115 
31 7 199 49 185 420 437 64 127 
32 7 256 70 432 516 239 163 659 
33 7 498 636 686 656 680 196 549 
34 7 426 267 326 189 191 320 121 
35 7 43 182 369 348 363 236 433 
36 7 266 394 28 455 100 582 469 
37 7 62 165 107 7 334 352 38 
38 7 355 287 435 117 257 377 434 
39 7 588 611 614 47 530 402 186 
40 7 713 325 123 72 394 427 631 
41 5 93 483 788 692 497 
42 7 676 646 209 526 118 513 751 
43 7 35 182 369 348 236 363 433 
44 7 397 548 225 329 246 650 105 
45 7 342 436 700 237 416 29 286 
46 7 23 141 272 257 434 355 435 
47 7 614 39 622 402 611 588 683 
48 7 438 471 506 386 358 573 290 
49 7 199 31 51 420 126 185 388 
50 6 750 160 603 728 542 689 
51 7 388 173 126 49 31 199 440 
52 7 200 91 406 98 444 289 116 
53 7 472 393 276 385 311 380 414 
54 7 663 793 679 196 208 680 549 
55 7 368 76 124 396 556 292 204 
56 7 195 601 178 251 684 786 391 
57 7 724 551 128 480 689 758 584 
58 7 423 454 433 545 236 389 369 
59 7 532 395 625 800 97 387 166 
60 7 297 381 159 304 416 92 29 
61 7 377 327 229 463 443 130 370 
62 7 37 165 107 7 334 352 117 
63 7 585 144 357 569 148 335 15 
64 7 420 127 199 31 49 185 294 
65 7 361 115 316 30 373 529 99 
66 7 174 428 245 522 723 683 622 
67 7 615 610 553 567 678 538 497 
68 7 620 520 430 411 113 484 789 
69 7 224 421 73 132 338 179 443 
70 7 256 808 413 32 516 249 163 
71 7 271 307 262 111 423 139 8 
72 7 123 427 351 325 631 713 40 
73 7 69 132 224 421 324 309 94 
74 7 410 343 264 336 417 136 134 
75 7 20 133 232 311 380 202 393 
76 7 124 55 368 396 292 556 204 
77 7 525 505 785 575 781 295 557 
78 7 221 289 659 188 464 91 116 
79 7 146 135 319 422 294 445 164 
80 7 668 153 392 477 681 579 805 
81 7 671 693 769 804 619 673 735 
82 7 643 187 379 621 771 706 511 
83 7 444 406 116 52 431 91 134 
84 7 460 167 9 206 150 274 212 
85 7 562 742 268 374 661 786 761 
86 7 339 359 40 169 713 325 764 
87 7 629 721 401 751 118 605 574 
88 7 13 191 459 452 764 278 121 
89 7 8 139 234 135 445 146 164 
90 7 657 791 730 288 328 488 755 
91 7 289 52 116 464 221 444 406 
92 7 417 381 297 159 60 29 343 
93 5 41 483 788 692 765 
94 7 293 179 264 410 131 324 338 
95 7 591 378 477 19 654 233 405 
96 7 320 267 407 156 258 191 17 
97 7 625 356 387 149 800 584 395 
98 7 200 52 91 406 235 289 205 
99 7 737 361 207 316 346 549 656 
100 7 176 154 582 455 155 496 36 
101 7 451 142 242 317 437 185 138 
102 7 140 197 644 211 268 105 279 
103 6 606 489 674 104 129 322 
104 7 129 606 103 322 489 244 518 
105 7 408 197 151 268 227 548 102 
106 7 492 758 627 635 739 724 612 
107 7 7 334 352 37 62 165 229 
108 7 754 759 475 634 145 688 467 
109 7 718 539 442 714 559 502 736 
110 7 651 685 723 245 522 428 801 
111 7 262 71 271 307 423 139 164 
112 7 527 302 171 462 322 582 669 
113 7 484 281 703 430 666 789 520 
114 7 466 314 299 743 594 243 456 
115 7 529 316 373 65 208 27 361 
116 7 464 444 91 83 431 406 52 
117 7 257 355 38 272 23 435 141 
118 7 209 42 751 676 646 261 526 
119 7 655 321 458 11 330 796 514 
120 7 479 398 623 648 684 733 508 
121 7 189 326 426 88 278 13 452 
122 7 282 329 25 265 255 211 650 
123 7 72 427 631 713 325 351 40 
124 6 76 396 55 368 292 204 
125 7 746 712 349 590 510 652 18 
126 7 388 440 51 49 354 199 31 
127 7 420 366 64 185 294 437 31 
128 7 353 480 492 57 600 724 106 
129 7 104 322 606 518 103 244 489 
130 7 280 327 367 305 350 463 61 
131 7 324 94 293 291 309 73 180 
132 7 73 421 224 352 69 180 309 
133 7 232 75 20 380 46 311 141 
134 7 336 431 181 344 83 409 157 
135 7 422 146 79 445 164 139 319 
136 7 315 157 237 336 181 343 700 
137 7 216 536 490 597 587 719 586 
138 7 317 399 453 242 142 173 101 
139 7 164 445 8 89 135 422 111 
140 7 102 211 225 329 197 105 122 
141 7 23 46 272 257 434 355 435 
142 7 242 317 101 451 138 173 51 
143 7 555 780 270 667 332 218 546 
144 7 569 357 148 335 512 194 63 
145 7 475 754 759 711 108 726 493 
146 7 79 135 422 319 445 294 164 
147 7 642 698 580 253 2 265 282 
148 7 569 335 144 357 512 194 3 
149 7 356 800 625 97 218 332 667 
150 7 274 21 277 460 429 84 371 
151 7 661 408 268 197 105 85 227 
152 7 425 338 179 264 293 83 134 
153 7 80 392 668 477 681 602 579 
154 7 176 455 100 496 155 460 670 
155 7 241 496 670 176 362 100 154 
156 7 360 17 258 407 96 509 15 
157 7 181 344 441 409 136 175 315 
158 7 447 250 298 26 254 263 341 
159 7 381 60 297 29 416 92 436 
160 7 50 750 603 689 728 584 542 
161 7 515 583 637 762 494 468 664 
162 7 602 249 707 376 239 477 153 
163 7 516 782 256 188 749 413 70 
164 7 445 139 422 135 146 79 111 
165 7 37 62 107 7 334 352 180 
166 7 312 395 800 59 744 625 532 
167 7 84 460 9 206 150 212 274 
168 7 310 568 501 550 570 375 504 
169 7 359 452 278 469 86 459 764 
170 7 624 18 794 502 542 790 349 
171 7 112 302 527 462 195 669 648 
172 7 273 537 523 719 476 613 633 
173 7 388 51 317 138 142 242 126 
174 7 66 428 245 622 522 683 723 
175 7 409 431 441 344 464 181 116 
176 7 154 496 100 155 455 670 241 
177 7 450 600 193 231 492 535 353 
178 7 601 684 786 56 648 479 120 
179 7 338 152 293 94 425 264 69 
180 7 309 132 324 352 73 334 7 
181 7 344 157 409 441 175 431 134 
182 7 43 35 348 433 369 236 363 
183 7 26 190 263 414 158 447 298 
184 7 595 384 230 728 627 635 694 
185 7 437 31 199 127 420 49 366 
186 7 578 768 530 604 675 275 611 
187 7 82 4 706 5 643 379 747 
188 7 659 78 163 516 221 402 289 
189 7 121 326 426 88 13 278 191 
190 7 183 26 298 263 158 415 414 
191 7 407 88 258 459 764 13 17 
192 7 12 547 766 677 485 726 711 
193 7 535 177 450 231 600 620 68 
194 7 512 424 544 335 148 569 144 
195 7 56 601 178 251 171 241 648 
196 7 680 281 703 113 54 636 679 
197 7 268 105 151 408 102 644 85 
198 7 756 538 678 553 615 67 717 
199 7 31 49 420 64 185 127 437 
200 7 98 52 406 91 444 289 116 
201 7 313 632 799 802 649 566 797 
202 7 414 311 276 183 190 26 350 
203 7 365 470 366 400 318 234 437 
204 7 292 205 323 396 772 98 124 
205 7 323 204 296 292 98 200 52 
206 7 9 212 24 84 167 460 283 
207 7 346 737 99 213 361 316 65 
208 7 27 663 793 54 316 549 115 
209 7 118 261 42 572 526 676 646 
210 7 337 448 788 497 301 514 783 
211 7 140 102 787 122 282 329 704 
212 7 24 206 9 167 84 283 460 
213 7 214 346 207 363 737 738 519 
214 7 213 363 345 519 346 738 348 
215 7 286 237 315 342 136 45 239 
216 6 587 137 490 719 536 488 
217 7 507 487 561 570 504 500 640 
218 7 332 667 546 780 555 270 143 
219 7 260 226 364 607 325 427 745 
220 7 235 6 772 402 98 588 39 
221 7 289 78 464 91 659 116 52 
222 7 514 301 11 247 372 448 119 
223 7 699 763 721 16 554 629 741 
224 7 69 421 73 132 443 229 370 
225 7 397 329 44 548 140 650 25 
226 7 260 607 219 364 339 325 745 
227 7 481 408 105 548 151 300 44 
228 6 592 522 685 651 723 770 
229 7 61 421 377 224 463 132 327 
230 7 384 739 635 184 595 627 696 
231 7 535 193 177 450 600 68 353 
232 7 133 20 75 46 141 380 434 
233 7 654 378 581 704 19 591 95 
234 7 318 400 89 365 8 203 146 
235 7 220 6 772 98 200 402 204 
236 7 369 389 433 182 43 35 58 
237 7 342 286 215 315 700 45 136 
238 7 717 796 655 321 198 119 11 
239 7 376 707 249 162 602 32 286 
240 7 474 748 729 682 760 765 375 
241 7 155 670 362 496 457 243 195 
242 7 142 317 101 138 451 173 399 
243 7 362 457 299 114 251 466 670 
244 7 725 449 129 104 518 626 606 
245 7 428 723 66 522 651 110 801 
246 7 300 418 44 548 397 330 227 
247 7 372 301 255 617 650 25 253 
248 7 358 658 438 333 303 386 10 
249 7 162 239 376 602 707 808 477 
250 7 158 298 447 26 254 461 532 
251 7 391 299 56 195 374 243 743 
252 7 231 33 535 498 64 319 193 
253 7 698 642 617 255 372 247 147 
254 7 341 447 263 158 26 250 385 
255 7 25 247 650 253 372 122 698 
256 7 70 516 32 163 413 808 432 
257 7 23 272 355 141 435 46 117 
258 7 17 407 156 191 360 764 96 
259 7 691 773 803 657 90 328 577 
260 7 226 607 219 364 745 757 325 
261 6 572 526 209 564 740 646 
262 7 307 111 71 423 271 58 389 
263 7 26 341 183 447 254 158 385 
264 7 410 293 74 94 179 152 336 
265 7 282 405 563 122 147 2 378 
266 7 28 582 518 36 631 322 394 
267 7 320 96 407 191 156 34 258 
268 7 197 151 85 661 408 562 644 
269 7 306 465 709 701 531 690 541 
270 7 555 780 143 546 218 332 667 
271 7 71 111 262 307 8 139 89 
272 7 23 46 257 141 355 435 434 
273 7 523 172 537 633 476 719 762 
274 7 150 21 277 429 460 371 84 
275 6 675 571 768 578 499 186 
276 7 472 311 393 53 414 385 202 
277 7 21 274 429 150 670 457 496 
278 7 452 13 403 169 459 359 469 
279 7 382 285 644 589 486 576 742 
280 7 350 367 130 305 327 202 368 
281 7 703 113 666 720 484 789 753 
282 7 122 265 147 211 255 25 329 
283 7 609 403 596 469 455 206 24 
284 7 749 566 782 799 638 649 201 
285 7 486 279 576 533 589 382 784 
286 7 215 237 315 45 342 239 700 
287 7 435 355 434 38 257 141 23 
288 7 755 503 662 657 90 536 597 
289 7 221 91 78 464 52 116 200 
290 7 386 358 471 303 690 48 438 
291 7 410 417 94 264 74 293 131 
292 7 204 396 323 205 124 76 772 
293 7 94 264 179 410 152 338 131 
294 7 319 79 127 146 366 135 422 
295 6 785 77 781 557 525 715 
296 7 323 205 370 204 443 292 98 
297 7 381 60 159 304 92 29 416 
298 7 250 158 447 26 190 183 166 
299 7 114 314 466 743 251 243 594 
300 7 246 481 418 227 548 44 397 
301 7 372 617 247 337 210 514 783 
302 7 527 112 171 582 322 462 489 
303 7 658 465 358 333 290 386 306 
304 7 16 60 419 699 574 605 416 
305 7 280 130 350 367 327 55 368 
306 7 465 269 775 690 701 531 709 
307 7 262 71 111 271 423 58 389 
308 7 340 560 608 616 538 678 553 
309 7 180 324 132 73 352 131 334 
310 7 168 501 568 570 504 550 375 
311 7 276 393 472 414 53 380 202 
312 7 166 395 744 800 356 149 625 
313 7 632 201 702 797 798 649 697 
314 7 466 114 743 299 594 456 243 
315 7 136 237 215 286 157 700 342 
316 7 361 115 208 65 99 737 529 
317 7 138 242 142 173 399 101 453 
318 7 400 234 365 203 89 470 8 
319 7 294 79 146 135 422 127 366 
320 7 267 96 407 156 191 258 17 
321 7 119 11 655 796 448 514 238 
322 7 104 129 489 606 518 527 112 
323 7 205 204 296 292 98 200 396 
324 7 131 94 309 73 180 293 132 
325 7 427 40 713 123 72 219 226 
326 7 189 426 121 88 34 13 24 
327 7 130 61 377 463 367 280 305 
328 7 558 577 665 691 730 90 695 
329 7 225 25 122 650 397 140 255 
330 7 458 418 119 655 321 222 246 
331 7 347 491 524 660 716 599 695 
332 7 218 667 546 780 555 270 143 
333 7 658 404 303 775 248 10 465 
334 7 352 7 107 132 37 180 165 
335 7 148 569 144 357 194 512 544 
336 7 134 136 181 157 344 74 315 
337 7 210 448 514 301 11 497 783 
338 7 179 152 425 293 69 264 94 
339 7 226 607 390 86 260 219 325 
340 7 308 560 608 616 538 678 756 
341 7 254 263 447 26 158 385 250 
342 7 700 45 237 29 436 416 315 
343 7 29 700 74 136 342 417 315 
344 7 181 409 157 441 175 431 134 
345 7 519 214 363 213 35 43 348 
346 7 207 213 737 99 214 361 738 
347 7 331 716 672 727 776 660 491 
348 7 738 182 363 43 35 433 454 
349 7 712 590 170 125 746 794 18 
350 7 367 280 130 305 202 327 75 
351 7 427 72 123 631 325 449 518 
352 7 334 7 107 132 180 229 309 
353 7 128 480 600 177 492 450 57 
354 7 126 353 199 480 49 64 420 
355 7 435 287 257 141 434 23 38 
356 7 149 800 625 97 218 332 395 
357 7 144 569 148 335 3 412 517 
358 7 386 438 290 303 48 248 471 
359 7 169 86 452 278 469 764 459 
360 7 156 17 258 509 390 407 15 
361 7 99 316 737 65 115 207 208 
362 7 457 243 670 241 155 496 277 
363 7 348 43 35 738 182 214 213 
364 7 219 745 260 226 607 747 757 
365 7 203 470 400 318 366 234 437 
366 7 470 127 437 185 203 294 365 
367 7 350 280 130 305 327 75 202 
368 7 55 76 124 556 396 292 415 
369 7 236 389 35 43 182 433 348 
370 7 443 463 296 224 69 327 61 
371 7 429 274 21 277 150 457 243 
372 7 247 301 617 253 255 783 650 
373 7 30 618 529 531 115 775 65 
374 7 786 391 85 178 661 684 601 
375 7 478 240 168 568 682 310 474 
376 7 707 239 162 249 602 767 286 
377 7 61 327 287 229 130 463 38 
378 7 591 233 95 405 563 654 19 
379 7 643 511 641 82 621 706 771 
380 7 393 472 53 311 276 133 385 
381 7 297 60 159 92 304 29 417 
382 7 589 279 742 562 644 285 576 
383 7 540 777 521 734 771 725 626 
384 7 230 635 184 627 595 739 758 
385 7 53 472 341 263 276 254 393 
386 7 358 290 438 471 48 303 506 
387 7 584 97 689 625 57 59 356 
388 7 51 173 126 49 440 199 31 
389 7 236 369 433 58 43 182 35 
390 7 339 607 517 412 226 757 260 
391 7 374 251 786 661 299 594 178 
392 7 668 681 80 579 805 153 564 
393 7 472 53 276 311 380 414 385 
394 7 713 28 40 631 123 36 72 
395 7 59 625 800 166 532 356 97 
396 6 124 76 292 772 204 55 
397 7 44 225 548 329 650 25 140 
398 7 120 733 479 684 508 623 761 
399 7 453 138 317 242 142 385 53 
400 7 318 234 365 203 89 470 146 
401 7 767 87 605 574 419 629 707 
402 7 47 39 6 588 614 220 611 
403 7 596 609 469 283 278 169 452 
404 7 333 658 10 30 775 65 303 
405 7 563 265 378 2 591 579 668 
406 7 444 83 52 116 200 91 98 
407 7 258 17 191 96 156 360 764 
408 7 105 151 197 661 268 227 481 
409 7 175 441 344 431 181 157 464 
410 7 264 74 293 94 291 417 179 
411 7 520 430 620 68 484 113 789 
412 7 517 3 708 757 357 144 745 
413 7 808 70 256 749 782 799 163 
414 7 202 276 311 183 472 263 393 
415 7 744 556 190 312 166 368 298 
416 7 436 419 574 605 45 342 304 
417 7 92 74 343 291 159 410 29 
418 7 246 330 458 300 222 119 44 
419 7 574 605 416 436 16 629 304 
420 7 64 199 31 127 49 185 437 
421 7 224 69 132 73 229 443 463 
422 7 135 146 445 79 164 139 319 
423 7 58 545 262 454 111 433 307 
424 7 194 512 781 544 575 77 295 
425 7 152 338 83 179 444 134 406 
426 7 326 189 121 34 88 191 13 
427 7 72 123 325 351 713 219 631 
428 7 245 66 174 723 522 651 683 
429 7 371 277 21 457 274 150 362 
430 7 520 411 620 484 68 113 789 
431 7 175 409 441 344 116 464 181 
432 7 32 441 157 409 344 175 181 
433 7 454 236 182 58 369 43 389 
434 7 435 287 141 355 23 257 20 
435 7 287 355 434 141 257 23 38 
436 7 416 45 419 574 605 342 700 
437 7 185 31 366 127 199 420 470 
438 7 48 358 506 386 471 290 248 
439 7 8 271 89 71 111 139 234 
440 7 126 461 388 51 250 254 354 
441 7 409 175 344 181 431 157 432 
442 6 718 539 109 714 559 736 
443 7 370 463 61 296 327 224 421 
444 7 83 406 116 52 91 200 464 
445 7 164 422 135 139 146 79 89 
446 4 652 510 732 143 
447 7 158 250 254 341 26 263 298 
448 7 11 337 210 514 497 796 321 
449 7 725 626 244 351 4 747 540 
450 7 177 600 492 193 106 353 535 
451 7 101 142 242 437 185 317 31 
452 7 13 459 764 278 169 359 88 
453 7 399 138 317 53 385 380 242 
454 7 433 58 545 182 236 348 423 
455 7 154 100 609 176 36 596 283 
456 7 314 466 593 743 594 114 299 
457 7 362 243 670 429 277 241 21 
458 7 330 119 418 655 321 222 11 
459 7 13 452 764 278 88 169 359 
460 7 84 167 150 274 9 21 206 
461 7 532 440 59 250 480 158 298 
462 7 669 171 489 648 112 547 527 
463 7 443 370 61 327 130 377 229 
464 7 116 221 91 175 289 431 409 
465 7 306 269 690 775 701 303 531 
466 7 114 314 299 743 594 456 243 
467 3 759 108 688 
468 4 637 161 515 557 
469 7 596 609 403 169 278 283 359 
470 7 203 366 365 437 127 185 294 
471 7 48 573 386 438 290 358 15 
472 7 393 53 276 311 385 380 414 
473 5 543 640 779 487 217 
474 6 748 682 729 760 240 478 
475 6 145 759 754 108 493 711 
476 5 613 537 664 523 172 
477 7 80 95 668 153 602 162 591 
478 7 375 682 240 474 568 748 168 
479 7 120 648 398 623 684 508 733 
480 7 353 128 57 600 724 492 551 
481 7 227 408 593 300 105 548 151 
482 3 647 22 493 
483 4 93 692 41 788 
484 7 113 789 430 720 520 666 411 
485 6 726 711 12 677 192 552 
486 7 285 576 22 784 589 279 533 
487 7 561 217 507 500 640 570 504 
488 6 791 730 490 90 216 558 
489 7 103 606 104 462 322 669 674 
490 7 216 137 791 536 488 597 90 
491 7 695 665 599 558 577 331 524 
492 7 106 450 600 128 177 758 724 
493 3 475 759 145 
494 6 795 515 583 762 161 523 
495 4 634 688 731 108 
496 7 155 670 176 241 277 154 21 
497 7 41 448 210 67 615 788 93 
498 7 33 636 680 196 68 686 656 
499 5 660 571 776 524 275 
500 7 561 507 217 487 570 504 375 
501 7 310 168 504 570 568 550 217 
502 7 18 624 109 559 170 718 539 
503 7 288 755 662 657 536 90 597 
504 7 570 217 501 507 310 779 487 
505 6 525 77 575 785 781 557 
506 7 438 48 358 471 386 248 573 
507 7 217 487 561 570 500 504 640 
508 7 628 623 398 120 733 479 766 
509 7 15 573 360 156 471 63 48 
510 6 652 732 125 712 446 590 
511 7 641 379 662 643 773 803 621 
512 7 194 424 544 335 148 569 144 
513 3 778 751 42 
514 7 448 222 11 337 301 210 321 
515 7 583 762 161 637 494 664 523 
516 7 163 256 32 188 70 659 413 
517 7 412 708 3 757 745 357 607 
518 7 129 266 631 28 322 104 244 
519 7 345 214 10 213 404 363 346 
520 7 430 411 620 68 484 113 789 
521 3 734 383 777 
522 7 723 651 685 66 245 428 228 
523 7 273 172 537 762 476 583 515 
524 6 599 491 695 331 660 665 
525 6 505 77 575 785 781 557 
526 7 572 740 646 676 261 561 487 
527 7 302 112 171 582 322 462 489 
528 6 598 697 802 797 581 201 
529 6 115 373 618 630 531 687 
530 7 588 186 611 578 39 675 768 
531 7 618 373 709 775 269 529 30 
532 7 59 395 461 625 250 166 387 
533 6 285 486 784 279 576 22 
534 5 621 803 773 259 752 
535 7 193 231 177 68 450 620 411 
536 5 597 137 586 490 503 
537 6 172 476 613 523 273 719 
538 7 678 553 756 616 198 67 615 
539 7 718 109 442 714 736 559 653 
540 7 383 777 771 521 725 734 626 
541 3 709 505 269 
542 6 794 170 603 624 790 694 
543 6 640 473 779 487 217 507 
544 7 194 512 424 639 335 781 148 
545 7 454 58 423 433 236 182 348 
546 7 218 332 270 780 667 555 645 
547 7 192 12 766 623 669 628 677 
548 7 44 397 225 105 227 329 246 
549 7 686 656 663 636 208 54 680 
550 7 568 168 310 501 765 240 375 
551 7 724 758 57 689 728 627 106 
552 5 806 485 754 145 726 
553 7 678 538 756 616 615 67 610 
554 5 763 223 699 16 721 
555 7 780 143 270 332 667 218 546 
556 7 415 744 368 55 76 312 190 
557 5 785 77 295 468 525 
558 7 665 695 328 730 599 491 577 
559 7 442 718 109 539 502 714 736 
560 7 340 308 608 616 538 678 553 
561 7 487 507 217 500 570 640 740 
562 7 742 382 85 589 761 644 279 
563 7 405 2 265 378 591 579 668 
564 6 805 681 579 261 580 2 
565 7 801 672 710 716 110 727 245 
566 7 284 649 799 749 638 201 632 
567 4 610 616 67 553 
568 7 168 310 550 501 240 375 570 
569 7 148 144 335 357 512 194 3 
570 7 504 217 507 501 310 487 500 
571 6 499 776 275 660 768 604 
572 6 261 526 740 209 646 640 
573 7 471 15 48 509 290 386 438 
574 7 605 419 416 16 629 436 304 
575 7 781 505 77 525 774 424 785 
576 6 486 22 589 285 784 279 
577 7 691 328 752 665 491 558 259 
578 7 768 186 604 675 275 530 571 
579 7 805 681 392 2 668 564 80 
580 6 642 564 2 147 473 698 
581 7 654 233 704 19 528 598 787 
582 7 100 266 302 527 112 36 171 
583 7 762 515 161 494 637 523 664 
584 7 689 387 97 160 551 750 50 
585 7 63 144 194 512 335 569 774 
586 4 597 613 536 137 
587 4 216 137 719 490 
588 7 39 611 530 614 47 186 402 
589 6 382 576 279 285 742 486 
590 7 712 645 349 270 125 546 746 
591 7 378 95 233 405 563 477 654 
592 6 228 770 685 522 651 731 
593 7 456 481 227 594 743 314 466 
594 7 743 314 466 299 114 456 391 
595 7 184 384 230 627 635 694 728 
596 7 469 609 403 283 278 169 455 
597 4 536 586 137 490 
598 6 528 802 697 797 201 581 
599 7 695 665 491 558 524 328 730 
600 7 450 177 492 353 128 193 106 
601 7 178 684 56 648 479 786 120 
602 7 162 707 153 376 249 477 80 
603 5 694 50 542 750 728 
604 6 768 776 578 186 716 571 
605 7 574 419 416 16 629 436 699 
606 7 103 104 489 129 674 322 244 
607 7 226 260 219 757 364 745 339 
608 4 308 560 340 616 
609 7 596 469 403 283 455 278 169 
610 4 567 67 615 616 
611 7 39 588 614 530 47 186 683 
612 5 739 722 635 106 230 
613 5 476 537 586 664 172 
614 7 611 47 39 622 588 683 710 
615 7 67 610 553 678 567 538 497 
616 6 567 553 610 678 538 67 
617 6 301 372 783 253 247 698 
618 7 531 373 529 709 30 775 269 
619 7 804 14 693 81 671 753 792 
620 7 411 520 430 68 484 113 789 
621 6 771 643 379 534 82 511 
622 7 683 174 614 66 47 428 245 
623 7 508 628 120 479 398 547 733 
624 7 18 170 502 790 794 109 542 
625 7 97 800 356 149 395 387 59 
626 7 725 449 4 187 540 747 244 
627 7 635 739 384 758 230 184 595 
628 7 508 623 766 547 398 120 677 
629 7 16 721 87 699 605 574 223 
630 2 687 27 
631 7 28 123 72 351 427 713 394 
632 7 313 649 702 201 798 566 799 
633 3 807 273 172 
634 4 688 495 731 108 
635 7 627 739 384 230 758 184 595 
636 7 686 33 680 498 656 196 549 
637 6 161 468 515 583 762 494 
638 7 649 566 284 632 174 749 66 
639 5 5 544 706 194 512 
640 6 543 473 779 487 217 507 
641 7 511 662 379 643 773 803 288 
642 5 698 147 253 580 473 
643 7 379 82 621 511 641 771 706 
644 7 279 382 742 562 102 589 268 
645 7 590 546 712 270 218 332 349 
646 7 676 42 526 740 572 500 561 
647 3 482 493 22 
648 7 479 120 669 623 684 601 398 
649 7 632 566 638 702 798 201 313 
650 7 25 255 247 329 372 225 397 
651 7 685 723 110 522 245 428 228 
652 5 510 732 125 446 712 
653 5 714 539 790 109 718 
654 7 19 233 581 378 591 704 95 
655 7 119 321 458 238 796 11 330 
656 7 686 549 636 33 663 680 54 
657 7 90 755 288 503 791 259 662 
658 7 303 333 465 404 358 775 248 
659 7 188 78 221 464 516 289 175 
660 5 499 776 571 331 524 
661 7 151 268 408 85 374 391 197 
662 7 755 288 503 773 641 803 511 
663 7 54 208 549 793 686 27 680 
664 7 476 613 515 583 762 161 537 
665 7 558 695 491 328 599 730 577 
666 7 720 789 703 281 484 753 792 
667 7 332 218 780 143 555 546 270 
668 7 80 392 579 681 153 805 477 
669 7 462 648 547 479 623 192 120 
670 7 241 496 155 362 457 277 243 
671 7 81 693 673 735 769 619 804 
672 7 716 347 565 727 776 604 331 
673 6 671 81 735 14 619 693 
674 4 103 552 485 606 
675 6 275 578 768 732 186 530 
676 6 646 42 526 740 209 572 
677 7 766 12 711 726 192 485 145 
678 7 553 538 756 616 67 615 610 
679 6 54 673 281 793 703 196 
680 7 196 636 54 498 686 281 663 
681 7 805 579 392 564 668 2 80 
682 7 474 748 478 240 760 729 375 
683 7 622 710 428 174 66 614 801 
684 7 178 120 398 601 479 733 761 
685 7 651 723 110 522 228 245 592 
686 7 656 549 636 663 680 33 54 
687 2 630 27 
688 5 634 495 731 108 467 
689 7 584 387 551 750 728 160 724 
690 7 701 306 465 269 290 303 541 
691 7 577 259 328 752 665 90 558 
692 4 483 93 765 41 
693 7 81 671 769 804 619 705 14 
694 3 603 595 184 
695 7 599 665 558 491 328 524 730 
696 2 230 595 
697 6 797 528 598 802 201 313 
698 6 642 253 147 580 617 255 
699 7 223 16 763 721 629 554 304 
700 7 342 29 45 237 343 315 436 
701 6 690 269 306 465 774 541 
702 7 798 632 313 649 201 731 467 
703 7 281 666 113 720 789 484 753 
704 7 787 233 581 654 378 533 211 
705 6 769 693 81 671 735 804 
706 7 5 187 639 82 643 379 641 
707 7 376 162 239 602 249 767 401 
708 7 3 517 757 412 745 357 607 
709 3 541 269 531 
710 7 801 683 245 428 565 604 66 
711 7 726 145 677 485 475 12 766 
712 7 590 349 125 645 746 270 546 
713 7 40 123 325 72 394 427 631 
714 6 539 442 718 736 109 653 
715 3 468 295 664 
716 6 672 347 776 604 331 565 
717 7 238 796 198 655 321 119 756 
718 7 539 442 109 714 559 736 502 
719 5 172 537 137 273 587 
720 7 666 789 484 792 703 753 281 
721 7 629 223 763 699 741 16 87 
722 5 792 753 789 720 14 
723 7 651 522 245 685 428 110 66 
724 7 551 758 57 106 627 128 689 
725 7 449 626 244 540 383 4 351 
726 6 485 711 12 677 145 192 
727 5 347 672 716 752 565 
728 7 750 50 184 595 603 384 627 
729 6 760 748 474 240 682 765 
730 6 488 791 328 558 90 665 
731 5 688 495 634 467 108 
732 5 652 510 675 275 125 
733 6 398 761 120 508 479 623 
734 2 521 383 
735 4 671 81 673 769 
736 6 714 442 539 718 109 559 
737 7 99 207 361 346 316 549 656 
738 7 348 363 182 43 433 454 35 
739 7 635 627 230 384 612 758 184 
740 6 526 572 487 640 561 217 
741 4 763 721 223 778 
742 7 562 382 589 85 761 644 279 
743 7 594 314 466 299 114 456 391 
744 7 415 556 312 166 190 298 395 
745 7 757 364 708 3 260 607 517 
746 6 125 349 712 590 18 502 
747 7 4 364 745 187 626 219 449 
748 6 474 729 760 240 682 765 
749 7 284 782 566 799 638 413 649 
750 7 50 728 160 603 689 184 595 
751 5 513 778 42 118 676 
752 7 577 691 259 328 491 665 534 
753 7 792 14 619 666 720 789 804 
754 7 108 759 475 145 806 634 552 
755 7 288 503 662 657 90 773 536 
756 7 538 678 198 553 616 560 615 
757 7 708 745 3 517 412 607 260 
758 7 551 627 724 635 106 739 384 
759 5 475 754 108 145 493 
760 5 729 748 474 240 682 
761 6 733 398 684 742 562 120 
762 7 583 515 161 494 523 637 664 
763 6 223 741 699 721 554 16 
764 7 459 13 452 169 359 278 88 
765 6 692 240 729 550 748 760 
766 7 677 12 192 547 628 711 726 
767 7 401 707 602 376 87 162 153 
768 6 578 186 604 275 675 571 
769 6 705 693 81 671 735 804 
770 2 592 228 
771 5 621 82 540 643 534 
772 6 235 220 6 396 204 292 
773 7 803 259 662 755 288 511 657 
774 7 575 505 781 525 77 424 585 
775 7 30 306 465 531 373 269 618 
776 6 499 571 660 604 716 347 
777 3 383 540 521 
778 3 513 751 42 
779 7 543 640 473 504 217 487 507 
780 7 555 143 270 332 667 218 546 
781 7 575 77 295 525 424 505 785 
782 7 749 284 163 566 413 799 638 
783 6 617 301 210 253 337 788 
784 4 22 486 576 285 
785 6 557 77 295 525 505 781 
786 7 374 178 684 391 601 761 85 
787 7 704 211 533 581 233 102 279 
788 6 93 41 483 692 550 765 
789 7 720 666 484 113 703 792 281 
790 7 624 653 18 109 502 170 539 
791 7 488 90 730 490 657 328 216 
792 7 753 14 720 666 619 722 789 
793 6 27 54 663 208 679 687 
794 7 170 542 624 18 349 790 502 
795 5 494 583 515 762 161 
796 7 321 11 238 448 497 655 119 
797 5 697 313 528 598 201 
798 7 702 632 649 313 731 592 228 
799 7 566 201 802 284 749 632 649 
800 7 356 625 149 97 395 59 312 
801 7 710 565 245 428 110 683 723 
802 7 598 697 528 201 799 797 313 
803 7 773 259 662 534 755 511 657 
804 7 619 693 14 81 671 753 792 
805 7 681 579 392 564 668 2 80 
806 4 552 754 108 145 
807 3 633 795 273 
808 7 413 70 249 19 95 256 654 
DEPOT_SECTION
   1
   -1
EOF
