NAME :  X-n916-kX-w183-c9.cctp
COMMENT : 	Adapted by Maziero, Usberti and Cavellucci from the Uchoa, Pecin, Pessoa, Poggi, Subramanian, and Vidal (2013)
TYPE :  CCTP
DIMENSION :    711
EDGE_WEIGHT_TYPE : 	EUC_2D	
CAPACITY : 	33
VERTICES_WITHIN_COVERAGE :  9
VERTICES_WITH_DEMAND : 	183
NODE_COORD_SECTION
1 0 0
2 471 44
3 63 475
4 766 504
5 895 595
6 816 377
7 462 590
8 997 596
9 775 993
10 16 97
11 839 348
12 558 896
13 423 912
14 169 411
15 75 602
16 402 52
17 388 208
18 202 39
19 510 841
20 555 484
21 920 633
22 369 718
23 432 696
24 624 872
25 472 323
26 753 701
27 584 440
28 292 665
29 202 310
30 764 255
31 662 486
32 822 575
33 469 13
34 640 165
35 814 886
36 554 82
37 336 745
38 950 229
39 142 835
40 407 932
41 69 205
42 86 764
43 202 165
44 376 632
45 639 987
46 775 98
47 503 855
48 38 960
49 215 73
50 566 78
51 4 517
52 44 457
53 676 337
54 338 568
55 623 911
56 626 931
57 97 43
58 799 942
59 725 430
60 93 953
61 264 347
62 986 595
63 631 614
64 331 362
65 158 793
66 760 436
67 115 641
68 307 764
69 469 817
70 315 388
71 906 830
72 564 25
73 88 246
74 671 892
75 181 139
76 723 784
77 609 798
78 174 403
79 76 671
80 984 939
81 830 579
82 3 893
83 176 164
84 625 158
85 249 590
86 663 347
87 21 500
88 501 372
89 572 218
90 483 270
91 604 201
92 548 281
93 205 745
94 125 178
95 870 931
96 276 846
97 759 839
98 79 105
99 218 992
100 277 797
101 545 62
102 161 102
103 1 827
104 719 128
105 80 366
106 16 732
107 24 521
108 848 600
109 585 594
110 618 577
111 44 300
112 489 239
113 479 978
114 768 731
115 274 30
116 546 837
117 890 640
118 594 308
119 878 716
120 498 448
121 145 96
122 54 935
123 473 5
124 906 899
125 277 752
126 435 254
127 630 686
128 905 275
129 521 401
130 850 425
131 374 186
132 712 433
133 814 730
134 740 622
135 681 74
136 120 490
137 297 816
138 376 534
139 982 560
140 1 332
141 815 625
142 356 868
143 659 994
144 804 110
145 415 517
146 106 844
147 549 366
148 57 742
149 848 739
150 381 700
151 442 808
152 867 408
153 67 930
154 763 186
155 581 91
156 416 56
157 729 620
158 163 73
159 160 129
160 468 902
161 694 730
162 319 644
163 831 476
164 863 921
165 524 71
166 299 197
167 193 823
168 18 360
169 987 845
170 998 548
171 302 506
172 432 229
173 550 142
174 637 527
175 168 0
176 178 804
177 888 448
178 270 481
179 250 421
180 410 125
181 373 134
182 275 772
183 965 25
184 858 502
185 587 967
186 178 710
187 331 4
188 811 598
189 560 886
190 712 512
191 216 974
192 528 75
193 840 109
194 980 512
195 90 78
196 788 322
197 665 990
198 400 702
199 131 24
200 238 610
201 392 541
202 40 394
203 713 806
204 823 571
205 863 568
206 145 20
207 509 893
208 629 447
209 717 78
210 525 774
211 695 620
212 721 979
213 957 457
214 594 451
215 514 110
216 899 994
217 772 937
218 877 942
219 533 82
220 399 742
221 273 688
222 360 780
223 650 339
224 272 771
225 362 515
226 716 823
227 307 627
228 787 639
229 28 212
230 38 119
231 130 518
232 535 632
233 832 952
234 874 955
235 106 653
236 440 485
237 73 329
238 934 692
239 638 325
240 126 820
241 382 958
242 884 840
243 706 90
244 424 652
245 216 964
246 841 543
247 863 886
248 361 490
249 266 457
250 179 817
251 430 197
252 512 412
253 111 1
254 811 631
255 366 758
256 227 575
257 398 905
258 897 410
259 285 104
260 245 215
261 569 401
262 159 310
263 20 90
264 212 39
265 13 641
266 855 610
267 95 571
268 780 936
269 63 84
270 240 801
271 977 62
272 405 258
273 995 89
274 334 695
275 265 783
276 988 790
277 68 368
278 497 712
279 676 581
280 625 400
281 791 162
282 351 55
283 572 827
284 584 930
285 482 749
286 110 723
287 230 362
288 942 467
289 540 63
290 202 848
291 161 162
292 272 788
293 137 87
294 177 274
295 324 842
296 229 434
297 916 866
298 634 157
299 42 213
300 655 154
301 460 506
302 21 698
303 435 615
304 120 425
305 54 726
306 475 624
307 923 980
308 391 94
309 463 618
310 568 659
311 999 831
312 719 93
313 796 547
314 123 595
315 515 939
316 550 757
317 898 486
318 695 337
319 40 727
320 217 284
321 910 245
322 536 956
323 262 332
324 91 91
325 697 755
326 894 726
327 919 962
328 909 22
329 253 535
330 703 346
331 416 895
332 330 596
333 475 780
334 365 803
335 844 845
336 802 755
337 77 246
338 266 819
339 759 835
340 71 176
341 244 82
342 564 436
343 749 216
344 30 624
345 677 208
346 980 257
347 582 317
348 421 870
349 183 454
350 442 766
351 875 497
352 217 979
353 867 873
354 280 473
355 582 382
356 35 597
357 527 786
358 991 617
359 448 513
360 581 780
361 415 498
362 964 211
363 886 296
364 696 784
365 102 90
366 227 699
367 76 258
368 705 580
369 752 531
370 246 128
371 834 350
372 838 453
373 809 825
374 468 650
375 523 626
376 110 964
377 422 180
378 940 246
379 513 333
380 446 78
381 992 939
382 58 941
383 24 763
384 17 536
385 70 381
386 142 464
387 621 976
388 878 960
389 286 774
390 349 202
391 841 520
392 134 20
393 107 804
394 278 847
395 103 639
396 555 920
397 427 289
398 987 735
399 608 750
400 471 58
401 482 339
402 319 913
403 966 994
404 288 458
405 225 777
406 501 384
407 3 25
408 259 851
409 632 304
410 180 66
411 300 608
412 591 113
413 569 817
414 165 31
415 137 397
416 820 139
417 858 354
418 846 618
419 0 438
420 308 337
421 772 594
422 684 931
423 76 667
424 750 130
425 538 354
426 725 339
427 758 410
428 664 460
429 90 978
430 898 281
431 480 247
432 441 215
433 77 906
434 30 919
435 481 281
436 680 2
437 262 513
438 291 346
439 297 568
440 248 393
441 41 933
442 32 959
443 790 155
444 351 192
445 402 223
446 125 815
447 542 231
448 356 901
449 50 932
450 456 587
451 249 311
452 993 242
453 499 264
454 801 81
455 740 343
456 22 856
457 120 843
458 285 767
459 62 901
460 923 284
461 647 167
462 284 481
463 69 955
464 226 446
465 681 214
466 10 764
467 303 406
468 306 364
469 443 329
470 256 544
471 99 834
472 246 156
473 244 466
474 744 203
475 795 267
476 484 108
477 152 734
478 403 167
479 80 925
480 918 400
481 122 356
482 970 207
483 481 228
484 159 405
485 73 851
486 142 807
487 631 386
488 927 39
489 374 989
490 269 417
491 568 286
492 936 279
493 869 414
494 197 686
495 187 768
496 369 80
497 166 764
498 908 249
499 224 440
500 337 486
501 74 791
502 53 1000
503 787 73
504 787 362
505 750 177
506 547 281
507 24 961
508 887 262
509 687 320
510 156 826
511 310 852
512 297 604
513 122 849
514 500 280
515 308 485
516 216 326
517 788 310
518 120 859
519 50 951
520 521 285
521 566 179
522 51 802
523 234 720
524 602 414
525 568 274
526 363 614
527 262 418
528 266 562
529 21 904
530 978 188
531 464 235
532 436 737
533 85 979
534 883 290
535 553 441
536 118 745
537 494 238
538 348 368
539 281 341
540 437 236
541 231 337
542 479 274
543 589 30
544 486 301
545 261 354
546 169 825
547 934 247
548 491 210
549 547 203
550 266 398
551 810 114
552 366 344
553 121 678
554 458 199
555 150 301
556 520 532
557 185 796
558 184 339
559 113 864
560 254 377
561 785 101
562 944 220
563 392 85
564 223 275
565 72 966
566 451 269
567 272 419
568 213 987
569 435 278
570 590 292
571 816 399
572 10 893
573 932 281
574 431 819
575 915 417
576 248 506
577 507 957
578 610 313
579 104 710
580 445 305
581 91 921
582 530 28
583 772 457
584 568 311
585 420 267
586 721 109
587 649 30
588 792 295
589 817 187
590 310 398
591 108 980
592 113 943
593 627 268
594 469 247
595 293 476
596 48 802
597 299 571
598 247 818
599 485 205
600 319 377
601 212 832
602 506 64
603 277 359
604 325 320
605 720 133
606 82 861
607 585 222
608 496 113
609 131 436
610 280 364
611 175 812
612 678 290
613 960 590
614 927 210
615 287 535
616 494 399
617 563 224
618 227 316
619 234 332
620 345 175
621 125 846
622 420 185
623 904 280
624 63 942
625 234 500
626 64 844
627 16 979
628 746 95
629 110 822
630 874 368
631 735 65
632 343 882
633 273 905
634 16 952
635 698 290
636 797 162
637 836 112
638 392 244
639 822 706
640 567 222
641 569 663
642 254 984
643 939 225
644 252 380
645 64 517
646 875 542
647 786 222
648 205 294
649 189 798
650 93 968
651 296 871
652 497 523
653 329 391
654 80 869
655 548 355
656 630 125
657 322 213
658 897 281
659 474 446
660 221 764
661 390 957
662 435 336
663 862 457
664 144 827
665 131 239
666 396 258
667 484 279
668 252 836
669 413 905
670 223 490
671 775 116
672 932 226
673 807 379
674 254 997
675 332 319
676 808 87
677 549 147
678 517 226
679 456 720
680 185 820
681 18 846
682 50 970
683 370 207
684 46 964
685 541 303
686 206 314
687 877 322
688 533 279
689 307 397
690 390 508
691 561 527
692 709 161
693 47 963
694 786 186
695 960 209
696 698 347
697 923 254
698 408 243
699 677 170
700 510 245
701 39 922
702 37 1000
703 112 334
704 133 830
705 107 466
706 798 121
707 224 769
708 503 237
709 294 796
710 113 820
711 996 220
DEMAND_SECTION
2 8
3 6
4 7
5 6
6 10
7 10
8 5
9 7
10 8
11 8
12 6
13 6
14 6
15 6
16 5
17 8
18 6
19 10
20 9
21 8
22 9
23 6
24 10
25 10
26 6
27 6
28 6
29 9
30 9
31 10
32 9
33 6
34 5
35 5
36 6
37 10
38 8
39 5
40 6
41 9
42 8
43 7
44 8
45 6
46 7
47 6
48 5
49 7
50 9
51 8
52 8
53 10
54 8
55 7
56 10
57 6
58 5
59 6
60 10
61 7
62 6
63 7
64 8
65 9
66 9
67 9
68 6
69 10
70 7
71 9
72 5
73 7
74 9
75 6
76 5
77 9
78 6
79 5
80 5
81 5
82 7
83 10
84 10
85 6
86 9
87 7
88 10
89 10
90 7
91 10
92 7
93 9
94 5
95 9
96 8
97 7
98 8
99 10
100 10
101 7
102 10
103 6
104 6
105 5
106 10
107 10
108 6
109 5
110 7
111 7
112 5
113 5
114 7
115 9
116 9
117 8
118 5
119 7
120 9
121 7
122 7
123 9
124 5
125 9
126 5
127 6
128 6
129 8
130 10
131 7
132 8
133 9
134 10
135 6
136 8
137 7
138 6
139 7
140 5
141 5
142 6
143 8
144 10
145 10
146 8
147 10
148 9
149 6
150 10
151 5
152 5
153 7
154 5
155 10
156 6
157 8
158 8
159 5
160 9
161 6
162 7
163 7
164 6
165 9
166 8
167 10
168 10
169 6
170 9
171 9
172 5
173 5
174 8
175 10
176 6
177 8
178 5
179 7
180 5
181 5
182 10
183 9
184 10
COVERAGE_SECTION
2 9 400 33 123 602 380 156 165 582 192 
3 9 52 645 705 87 136 107 51 419 304 
4 9 369 583 313 190 66 163 391 59 246 
5 9 205 266 21 117 108 418 646 613 81 
6 9 673 571 371 504 11 417 130 630 152 
7 9 450 309 306 303 374 375 244 652 359 
8 9 62 358 613 139 170 21 194 5 238 
9 9 58 212 217 268 233 234 388 197 422 
10 9 263 230 269 98 407 324 195 365 340 
11 8 371 417 6 630 673 687 504 571 
12 9 189 396 284 207 116 315 322 55 47 
13 9 669 331 40 257 348 160 661 241 448 
14 9 78 484 415 349 609 304 386 499 296 
15 9 267 356 395 314 344 67 235 423 79 
16 9 156 563 308 496 282 380 2 400 180 
17 9 683 445 131 638 390 622 444 698 251 
18 9 264 410 49 414 158 175 206 341 392 
19 9 47 116 69 207 357 283 413 189 210 
20 9 535 691 342 214 27 556 120 652 208 
21 9 117 5 613 238 266 358 62 418 108 
22 9 150 198 220 255 274 37 222 23 532 
23 9 198 679 532 244 150 220 374 22 278 
24 9 55 74 56 189 283 12 284 77 413 
25 9 401 544 469 580 662 379 435 667 542 
26 9 114 161 133 639 228 336 325 134 157 
27 9 214 342 535 524 261 208 20 280 355 
28 9 221 162 227 274 411 512 366 200 332 
29 9 686 648 516 618 320 558 619 541 564 
30 8 475 647 343 588 474 517 154 196 
31 9 428 174 208 190 132 214 59 27 280 
32 9 204 81 188 108 246 313 205 266 418 
33 9 123 2 400 582 602 156 380 16 165 
34 9 461 298 84 300 699 656 91 345 465 
35 9 247 335 353 58 164 268 373 217 233 
36 9 50 219 101 289 192 155 165 412 215 
37 9 255 68 222 22 274 458 389 125 220 
38 9 562 643 672 378 695 362 547 482 614 
39 9 664 704 510 621 240 457 513 446 486 
40 9 13 257 669 661 241 331 448 348 489 
41 9 299 340 229 337 73 367 94 665 230 
42 9 501 148 536 393 286 305 522 596 579 
43 9 83 75 291 472 159 370 260 102 94 
44 9 526 244 162 332 303 150 227 54 198 
45 9 143 387 197 185 56 422 55 284 212 
46 9 561 671 503 628 144 454 706 676 551 
47 9 19 207 116 69 160 189 12 357 283 
48 8 442 684 693 507 519 682 634 441 
49 9 341 264 18 410 158 102 370 414 115 
50 9 36 155 101 289 219 192 165 412 72 
51 9 107 384 87 645 3 52 419 356 267 
52 9 3 419 87 202 645 705 107 51 385 
53 9 86 318 509 696 223 330 239 612 426 
54 9 332 597 439 138 526 411 512 225 201 
55 9 56 24 284 74 422 387 12 185 189 
56 9 55 284 387 185 45 422 24 74 143 
57 9 195 199 253 392 365 324 206 269 293 
58 9 268 217 233 9 35 164 95 234 218 
59 9 132 66 427 583 428 190 31 4 330 
60 8 650 376 592 463 429 565 533 479 
61 9 545 323 539 603 610 438 560 541 619 
62 9 8 358 613 139 170 21 194 5 117 
63 9 110 109 279 211 127 310 641 368 174 
64 9 538 600 468 653 70 420 552 590 604 
65 9 486 176 611 557 497 649 250 510 546 
66 9 583 427 59 132 571 4 673 504 372 
67 7 395 235 553 314 423 79 15 
68 9 458 389 125 182 37 709 224 292 100 
69 9 151 333 574 19 47 350 357 285 210 
70 7 590 600 689 653 467 468 64 
71 9 242 297 353 335 124 247 169 276 311 
72 9 543 582 101 289 50 36 165 192 219 
73 9 337 367 665 41 299 229 111 340 94 
74 9 422 24 55 56 226 284 203 197 387 
75 9 159 83 291 43 102 121 370 472 94 
76 9 203 364 325 226 161 339 97 114 336 
77 9 360 413 283 399 316 116 24 357 210 
78 8 14 484 415 349 609 304 499 296 
79 9 423 235 395 553 579 67 305 302 286 
80 9 381 403 327 307 124 169 297 216 218 
81 9 32 204 188 108 205 246 266 418 313 
82 7 572 529 434 456 701 681 441 
83 9 291 75 43 159 94 102 472 121 370 
84 9 298 34 461 300 656 91 699 412 521 
85 9 200 256 528 470 512 439 597 411 329 
86 9 223 53 239 318 696 509 330 487 409 
87 9 107 51 384 645 3 52 419 705 356 
88 9 406 616 129 401 252 379 425 147 655 
89 7 640 617 607 549 447 91 521 
90 9 542 667 435 453 514 431 594 544 112 
91 9 607 89 640 521 617 84 34 298 461 
92 7 506 688 491 525 685 520 584 
93 8 660 495 707 405 523 497 186 366 
94 9 291 83 340 159 665 41 75 73 43 
95 9 164 218 234 388 233 247 124 327 353 
96 9 394 408 668 338 651 511 137 598 295 
97 9 339 226 373 203 76 35 364 335 336 
98 9 324 269 365 195 230 263 293 10 57 
99 6 568 352 191 245 674 642 
100 9 292 709 275 182 338 389 224 137 458 
101 9 289 192 36 165 219 50 582 602 72 
102 9 121 159 293 158 410 75 291 365 49 
103 8 681 456 596 522 466 626 82 572 
104 9 605 586 424 692 312 243 628 209 671 
105 9 277 385 237 481 703 202 168 415 304 
106 9 319 383 466 302 305 148 42 596 522 
107 9 384 51 87 645 3 52 356 419 267 
108 9 266 418 81 205 32 188 204 141 5 
109 9 110 63 232 310 375 641 691 174 556 
110 9 109 63 174 279 691 368 211 310 641 
111 9 237 367 140 337 168 73 277 105 703 
112 9 537 431 483 708 594 700 531 453 548 
113 9 577 315 322 160 40 13 207 661 396 
114 9 26 336 133 639 76 161 325 149 364 
115 9 341 187 264 18 49 259 282 410 370 
116 9 283 413 19 47 189 357 12 210 207 
117 9 21 5 266 418 108 238 141 119 205 
118 9 347 570 578 584 491 409 525 239 593 
119 9 326 149 639 238 133 117 336 21 418 
120 9 659 252 616 129 535 406 20 342 236 
121 9 293 102 158 159 365 410 324 75 195 
122 9 449 382 624 441 153 519 701 463 479 
123 9 33 2 400 582 602 156 380 165 16 
124 9 297 247 353 95 164 218 242 234 327 
125 9 458 182 224 389 68 275 292 100 709 
126 9 540 585 566 569 172 698 272 531 594 
127 9 641 310 399 63 161 211 325 109 360 
128 9 623 430 658 460 508 498 534 363 573 
129 9 252 406 616 88 147 261 425 535 120 
130 9 493 152 372 663 571 177 258 163 6 
131 9 683 444 17 390 620 478 445 622 377 
132 9 59 66 427 428 583 31 190 208 330 
133 9 639 336 149 114 119 26 326 228 373 
134 9 157 421 211 228 368 254 141 188 279 
135 9 243 209 312 586 587 631 104 628 605 
136 8 705 231 386 609 3 645 304 349 
137 9 709 100 338 394 96 295 292 511 389 
138 9 201 225 690 145 248 54 361 500 359 
139 9 170 62 613 8 194 358 5 21 288 
140 9 168 111 237 202 277 385 105 367 419 
141 9 254 188 228 418 108 266 81 32 421 
142 9 632 448 295 511 257 402 651 348 331 
143 9 197 45 387 212 422 56 185 55 284 
144 9 551 706 561 676 454 671 46 637 416 
145 8 361 690 201 359 236 138 301 225 
146 9 471 457 513 621 518 559 629 710 606 
147 9 655 425 355 261 129 88 379 406 584 
148 9 305 319 42 383 106 466 501 286 302 
149 9 133 119 639 326 336 114 373 238 26 
150 9 198 22 220 274 23 255 37 244 532 
151 9 574 69 350 333 348 285 532 19 47 
152 9 493 130 258 630 177 575 663 480 571 
153 9 624 122 382 479 449 463 433 441 581 
154 9 505 694 474 343 281 443 636 647 589 
155 9 50 412 36 101 219 289 192 165 173 
156 9 16 380 563 308 496 400 2 282 33 
157 9 134 211 368 421 228 279 254 26 188 
158 9 410 102 121 293 414 18 49 159 206 
159 9 75 102 291 121 83 293 43 158 94 
160 9 207 13 331 669 348 47 315 577 40 
161 9 325 364 76 26 114 127 203 399 226 
162 9 227 28 411 512 332 274 526 44 221 
163 9 372 663 184 391 351 130 583 177 246 
164 9 95 218 247 234 388 233 124 353 35 
165 9 192 219 289 602 101 36 215 50 582 
166 8 657 390 620 444 260 472 683 131 
167 9 680 250 601 611 176 546 649 290 557 
168 9 140 202 277 385 105 237 111 419 703 
169 9 311 276 297 71 80 381 124 242 398 
170 9 139 194 8 62 613 358 288 213 5 
171 8 515 462 595 615 354 500 178 437 
172 9 540 432 126 698 445 251 531 272 554 
173 8 677 521 215 412 36 155 549 608 
174 9 31 110 279 428 190 691 208 109 368 
175 9 206 414 392 199 18 253 264 410 158 
176 9 611 557 250 649 680 65 546 167 510 
177 9 663 258 317 493 575 130 152 372 351 
178 8 354 462 249 595 404 473 437 576 
179 8 527 490 567 296 440 550 499 464 
180 8 308 181 478 563 377 380 496 622 
181 9 180 308 478 620 131 563 496 444 377 
182 9 224 389 458 275 292 125 100 709 68 
183 4 271 488 328 273 
184 9 351 391 163 317 646 246 663 372 177 
185 9 387 284 322 56 45 396 55 12 143 
186 7 494 477 93 366 497 523 495 
187 9 282 115 496 16 156 563 308 259 341 
188 9 32 81 141 204 254 108 421 418 266 
189 9 12 396 284 116 207 283 47 24 19 
190 9 369 4 31 368 428 174 279 132 583 
191 5 352 245 568 99 642 
192 9 165 219 289 101 602 36 50 215 582 
193 4 637 551 144 416 
194 8 170 139 288 213 613 62 8 317 
195 9 324 365 269 98 57 293 121 230 199 
196 8 517 588 504 455 371 475 11 673 
197 9 143 45 387 212 422 56 185 55 74 
198 9 150 23 22 220 532 244 679 255 274 
199 9 392 206 253 414 57 175 158 293 410 
200 9 85 256 528 512 411 470 227 439 597 
201 9 138 145 690 225 361 54 248 359 236 
202 9 385 277 168 105 419 52 140 237 3 
203 9 226 76 364 325 339 97 161 114 74 
204 9 32 81 188 246 313 108 205 266 418 
205 9 646 246 81 108 204 5 32 266 391 
206 9 392 199 414 175 253 57 158 410 18 
207 9 47 160 315 12 189 19 396 577 116 
208 9 214 428 524 27 280 31 487 342 261 
209 8 312 243 631 586 628 135 104 605 
210 9 357 316 285 333 360 413 116 278 19 
211 9 157 368 279 134 63 421 110 127 228 
212 9 9 197 422 143 217 268 45 58 74 
213 7 288 575 194 317 480 177 258 
214 9 27 342 208 524 535 20 261 280 355 
215 9 608 476 219 192 165 602 173 36 677 
216 9 307 327 388 234 218 403 95 233 164 
217 9 268 58 9 233 35 212 422 164 95 
218 9 95 234 388 164 233 327 124 216 247 
219 9 192 165 289 36 101 602 50 215 608 
220 9 255 532 22 198 150 350 222 23 679 
221 9 28 366 523 274 125 162 227 494 458 
222 9 255 334 37 220 68 22 709 295 137 
223 9 86 239 53 409 509 318 578 696 487 
224 9 182 275 389 458 292 125 100 709 68 
225 9 138 248 690 500 201 145 361 54 171 
226 9 203 76 364 339 97 325 74 373 161 
227 9 411 162 512 332 28 526 597 439 54 
228 9 254 141 421 188 134 157 418 26 108 
229 9 299 41 340 337 367 73 111 230 94 
230 9 10 263 98 269 324 195 340 365 41 
231 5 136 386 705 267 645 
232 9 375 310 641 306 109 374 309 7 278 
233 9 58 234 95 164 218 388 268 217 35 
234 9 388 218 95 164 233 216 327 307 124 
235 8 395 67 553 423 79 579 15 314 
236 6 361 301 359 145 659 690 
237 9 105 277 703 111 385 481 168 367 140 
238 9 326 21 119 117 398 358 149 5 613 
239 9 223 409 578 86 53 118 509 612 347 
240 9 446 704 710 629 664 486 39 457 393 
241 9 661 489 40 257 669 13 448 331 402 
242 9 71 353 335 297 247 124 373 35 164 
243 9 312 209 586 135 631 104 628 605 424 
244 9 303 374 23 44 309 198 306 150 450 
245 4 191 352 568 99 
246 9 391 204 205 646 32 81 184 313 108 
247 9 353 164 124 335 95 35 242 297 218 
248 6 500 225 690 138 515 361 
249 7 354 404 178 473 462 595 567 
250 9 611 680 176 546 167 649 557 510 65 
251 8 622 377 432 554 172 445 478 540 
252 9 129 616 406 120 88 535 659 342 261 
253 9 199 392 206 57 175 414 195 158 365 
254 9 141 228 188 418 108 266 421 81 32 
255 9 222 37 220 22 334 68 150 198 274 
256 5 85 200 528 470 329 
257 9 669 331 13 40 348 448 661 241 142 
258 8 575 480 493 152 177 630 130 663 
259 9 370 341 472 115 49 282 496 181 620 
260 6 166 472 564 43 320 657 
261 9 355 342 524 147 27 535 129 655 214 
262 9 555 558 294 29 686 648 703 481 516 
263 9 10 230 269 98 407 195 324 365 57 
264 9 18 49 410 414 341 175 158 115 206 
265 9 344 356 302 423 79 15 319 395 106 
266 9 108 418 81 5 141 205 117 188 32 
267 9 15 314 645 231 356 395 67 235 344 
268 9 217 58 233 9 35 212 164 95 234 
269 9 98 195 324 365 230 263 10 57 293 
270 7 598 405 275 338 292 707 100 
271 3 273 183 488 
272 8 666 698 585 638 126 445 569 397 
273 3 271 183 488 
274 9 22 150 37 28 162 221 198 255 227 
275 8 292 224 182 100 389 458 270 709 
276 9 311 169 398 71 297 238 326 242 119 
277 9 105 385 202 237 168 481 703 111 415 
278 9 285 679 532 23 210 374 316 333 350 
279 9 368 211 63 110 157 174 134 190 369 
280 9 487 524 208 355 261 27 214 86 223 
281 8 636 443 694 589 154 416 706 505 
282 9 496 16 563 187 308 156 115 181 259 
283 9 413 116 77 360 189 357 19 24 12 
284 9 396 185 56 12 55 189 322 387 24 
285 9 333 679 278 350 532 210 357 316 69 
286 7 579 536 477 553 42 148 305 
287 8 541 560 644 619 545 440 61 516 
288 7 213 317 177 575 194 480 258 
289 9 101 192 165 219 36 50 602 582 72 
290 6 601 167 680 250 546 611 
291 9 83 75 159 94 43 102 121 293 665 
292 8 275 100 182 224 389 709 458 338 
293 9 121 102 158 365 324 159 195 410 57 
294 9 648 555 262 320 29 564 686 665 516 
295 9 511 137 651 142 632 394 96 709 334 
296 9 499 464 179 473 527 490 249 440 567 
297 9 124 71 242 353 247 169 335 164 95 
298 9 84 34 461 300 656 699 91 412 345 
299 9 229 41 340 337 367 73 111 94 665 
300 9 461 34 298 699 84 656 692 345 465 
301 8 359 236 652 145 361 659 556 120 
302 9 106 319 305 148 265 79 423 383 466 
303 9 309 450 7 244 306 374 44 526 23 
304 9 609 415 705 484 386 14 78 136 385 
305 9 319 148 106 302 383 42 579 286 466 
306 9 309 374 7 303 450 375 244 232 23 
307 9 327 216 403 388 234 218 95 80 381 
308 9 563 496 180 16 181 156 282 380 478 
309 9 306 7 303 374 450 244 375 232 23 
310 9 641 232 375 109 127 63 278 110 306 
311 9 169 276 297 71 398 381 80 124 242 
312 9 243 209 586 628 631 104 605 135 424 
313 9 204 32 246 81 369 4 391 188 421 
314 9 267 67 395 15 235 231 553 423 356 
315 9 577 322 396 207 113 160 12 189 284 
316 9 210 357 360 399 413 285 278 77 283 
317 9 351 177 184 663 288 646 213 391 163 
318 9 696 330 53 509 426 86 223 455 635 
319 9 305 148 106 302 383 466 42 579 79 
320 8 564 648 29 686 618 294 451 516 
321 7 498 697 547 508 672 128 378 
322 9 315 577 396 185 284 113 12 207 189 
323 9 61 539 545 451 619 541 603 438 610 
324 9 365 195 98 269 293 57 121 230 102 
325 9 161 364 76 203 226 114 26 399 127 
326 9 119 149 238 639 133 117 398 336 21 
327 9 307 216 388 234 218 403 95 124 80 
328 2 488 183 
329 9 470 437 576 528 615 625 256 670 85 
330 9 696 318 426 53 509 455 86 223 635 
331 9 669 13 257 348 40 160 448 142 661 
332 9 54 411 512 526 227 597 439 162 44 
333 9 285 350 69 151 210 357 532 574 679 
334 9 222 255 295 37 142 574 137 68 220 
335 9 353 242 373 247 35 71 297 164 124 
336 9 133 114 149 639 373 26 76 119 339 
337 9 73 367 41 299 665 229 111 340 94 
338 9 598 668 100 96 394 137 270 292 408 
339 9 97 226 373 203 76 35 364 335 336 
340 9 41 299 94 229 230 337 98 73 367 
341 9 49 370 259 264 18 115 410 472 158 
342 9 535 27 214 261 524 20 129 252 355 
343 9 474 154 647 505 30 694 281 465 692 
344 9 265 356 15 423 79 302 395 235 267 
345 9 465 699 461 34 692 300 298 474 84 
346 4 452 711 38 378 
347 9 118 584 570 578 491 685 525 92 506 
348 9 331 669 13 257 574 160 40 142 151 
349 9 386 499 464 14 296 78 670 484 609 
350 9 532 333 151 285 679 220 574 69 23 
351 9 184 317 391 663 646 163 177 246 372 
352 6 191 568 99 245 642 674 
353 9 247 335 242 124 164 297 35 71 95 
354 6 462 178 595 404 249 515 
355 9 261 147 524 655 280 487 425 342 27 
356 9 344 15 265 384 267 107 395 423 79 
357 9 210 316 333 413 116 360 19 285 283 
358 9 8 62 613 139 170 21 238 5 117 
359 8 301 236 145 361 652 690 201 659 
360 9 77 316 413 399 283 357 210 116 19 
361 7 145 690 236 359 301 201 138 
362 8 695 482 562 38 530 643 711 672 
363 6 534 430 658 623 128 687 
364 9 76 203 325 226 161 339 97 77 114 
365 9 324 195 98 293 269 121 57 102 158 
366 9 523 494 221 186 93 660 707 28 125 
367 9 337 73 41 111 299 665 229 237 340 
368 9 279 211 157 134 190 369 421 63 174 
369 9 4 190 313 421 368 583 204 32 188 
370 9 472 259 341 43 49 75 83 159 166 
371 9 11 417 6 673 630 504 687 571 196 
372 9 163 663 130 177 493 184 152 351 571 
373 9 335 339 97 35 336 353 242 247 226 
374 9 306 309 244 303 23 7 375 450 278 
375 9 232 306 310 641 374 309 109 7 450 
376 6 591 650 60 592 429 533 
377 8 622 251 478 432 554 17 445 131 
378 8 547 697 38 643 672 562 321 498 
379 9 401 425 88 655 685 25 544 147 520 
380 9 400 156 2 476 16 563 308 180 608 
381 9 80 403 327 307 169 124 297 216 311 
382 8 624 122 449 519 153 463 441 693 
383 9 466 106 148 319 596 522 305 501 42 
384 9 107 51 87 645 356 3 52 267 15 
385 9 277 105 202 237 168 481 703 304 415 
386 9 609 136 705 349 304 231 14 484 415 
387 9 45 185 143 56 197 284 55 422 322 
388 9 234 218 95 216 327 164 233 307 124 
389 9 458 182 224 292 68 275 709 125 100 
390 9 444 683 620 657 131 17 166 445 638 
391 9 246 184 646 351 163 313 205 204 32 
392 9 199 206 253 414 175 57 158 410 293 
393 9 710 629 446 240 471 486 501 704 146 
394 9 96 408 668 338 651 511 137 598 295 
395 8 67 235 423 79 553 15 314 267 
396 9 12 284 189 322 315 207 185 577 55 
397 8 569 585 580 566 126 272 469 666 
398 9 276 238 326 311 169 119 358 21 71 
399 9 360 77 316 127 413 283 210 161 325 
400 9 2 380 602 33 476 123 156 165 192 
401 9 25 379 88 544 469 662 406 580 425 
402 8 448 632 633 651 142 511 295 241 
403 9 307 327 80 381 216 388 234 218 124 
404 5 354 595 249 462 178 
405 7 707 660 270 93 495 275 649 
406 9 88 616 129 252 425 401 147 379 655 
407 9 263 10 269 57 230 195 98 324 253 
408 9 668 96 394 338 598 651 511 601 137 
409 9 239 578 593 118 223 570 612 347 86 
410 9 158 18 49 414 102 264 121 293 206 
411 9 512 227 332 597 439 162 85 54 528 
412 9 155 656 50 36 173 677 84 298 219 
413 9 283 116 360 77 357 210 316 19 189 
414 9 206 175 392 199 18 410 158 264 253 
415 9 484 304 14 78 609 481 105 386 703 
416 7 551 706 637 144 636 443 193 
417 7 11 630 371 687 6 152 673 
418 9 266 108 141 254 188 81 32 117 204 
419 9 52 202 87 3 51 168 107 385 277 
420 9 438 604 468 539 675 64 603 610 600 
421 9 188 134 228 157 32 141 313 254 204 
422 9 74 56 212 197 55 143 45 387 24 
423 9 79 235 395 553 67 579 302 305 344 
424 9 671 605 104 628 586 46 561 443 505 
425 9 655 147 379 88 406 129 685 355 584 
426 9 455 330 696 318 509 53 635 86 196 
427 9 66 59 583 132 504 673 571 6 455 
428 9 31 208 132 59 190 214 174 280 524 
429 7 533 650 591 565 376 60 463 
430 7 658 623 128 534 363 508 460 
431 9 594 112 537 483 531 90 453 708 542 
432 8 172 251 540 554 531 622 126 377 
433 4 459 479 581 153 
434 9 701 529 441 449 122 572 382 634 82 
435 9 667 542 90 514 544 453 566 431 594 
436 6 587 135 631 209 243 543 
437 9 576 329 625 470 178 615 462 171 354 
438 9 539 420 603 610 468 61 545 323 600 
439 9 597 528 615 512 411 54 332 470 85 
440 8 644 560 550 179 527 490 567 287 
441 9 449 701 122 434 382 519 624 153 48 
442 9 48 507 684 693 634 519 682 627 441 
443 8 281 636 694 416 706 154 589 671 
444 9 390 620 131 683 657 17 166 478 445 
445 9 17 698 638 172 272 666 683 540 251 
446 9 240 710 629 704 486 393 664 39 457 
447 6 617 678 640 549 89 700 
448 9 632 142 402 257 669 40 331 241 661 
449 9 122 441 382 701 624 153 519 434 48 
450 9 7 309 303 306 374 244 359 652 375 
451 6 618 323 619 541 516 61 
452 6 346 711 362 482 38 695 
453 7 514 90 667 542 700 431 435 
454 6 676 503 561 144 46 551 
455 9 426 330 696 318 504 196 509 517 53 
456 6 681 103 572 82 626 529 
457 9 513 621 146 518 704 559 39 471 629 
458 9 389 182 224 125 68 292 275 709 100 
459 5 433 153 479 701 449 
460 6 573 492 623 128 430 658 
461 9 34 300 298 84 699 656 345 91 465 
462 7 354 595 178 404 515 249 171 
463 7 565 624 382 519 693 60 682 
464 9 499 296 473 179 249 349 670 527 490 
465 9 345 699 461 692 34 474 300 343 298 
466 9 383 106 319 148 596 522 305 103 302 
467 4 689 590 70 653 
468 9 600 438 64 70 610 420 603 689 539 
469 5 662 580 25 401 397 
470 9 329 528 437 615 576 256 85 439 625 
471 9 146 629 710 457 513 621 240 393 485 
472 9 370 43 260 259 75 166 83 341 291 
473 9 249 464 178 670 499 296 625 354 576 
474 9 343 154 505 694 647 692 30 281 465 
475 5 588 30 517 647 196 
476 7 608 215 380 602 400 165 192 
477 7 497 186 536 286 495 93 579 
478 9 377 622 131 251 180 17 181 683 445 
479 6 581 153 433 624 382 122 
480 5 575 258 493 152 630 
481 9 703 105 415 277 237 385 262 484 555 
482 7 362 695 530 562 711 38 643 
483 8 112 537 531 431 548 594 599 708 
484 9 14 78 415 609 304 349 386 481 558 
485 5 626 606 654 471 146 
486 9 446 664 65 240 510 704 39 546 710 
487 9 280 524 355 86 223 208 239 261 53 
488 3 328 183 271 
489 9 241 661 40 257 448 13 669 402 331 
490 4 567 527 179 550 
491 9 525 92 506 570 584 685 118 347 688 
492 6 573 460 697 128 547 623 
493 9 152 130 258 177 663 575 630 372 480 
494 7 186 366 523 93 477 221 553 
495 9 497 557 93 649 660 176 707 65 405 
496 9 563 308 282 16 156 181 180 380 187 
497 9 495 65 477 557 649 176 93 486 611 
498 6 321 697 508 128 547 623 
499 9 464 296 179 473 349 527 249 670 490 
500 5 248 515 225 171 595 
501 9 522 596 42 393 629 710 471 148 626 
502 7 702 682 684 693 533 565 48 
503 4 454 676 46 561 
504 9 673 6 196 571 371 455 517 11 427 
505 9 154 474 694 343 281 692 443 424 636 
506 6 92 688 491 525 685 520 
507 9 442 634 48 627 684 693 519 682 441 
508 5 658 128 430 498 623 
509 9 318 53 696 330 612 635 86 223 426 
510 9 664 546 39 704 486 611 250 680 176 
511 9 295 651 394 96 137 632 142 408 338 
512 9 411 227 597 332 439 162 85 528 54 
513 8 621 457 518 146 559 704 39 471 
514 7 453 667 435 90 520 542 544 
515 6 595 171 462 500 354 404 
516 8 618 686 541 619 29 648 558 451 
517 7 196 588 475 504 455 30 371 
518 6 559 513 621 457 146 704 
519 8 693 382 684 48 122 624 449 463 
520 6 688 514 506 92 685 453 
521 8 549 677 89 173 640 91 617 607 
522 8 596 501 626 383 42 485 681 103 
523 9 366 93 660 221 494 707 125 186 405 
524 9 280 27 261 214 355 487 208 342 535 
525 8 491 92 506 570 688 584 685 118 
526 9 44 332 54 162 227 411 512 244 303 
527 4 490 567 179 550 
528 9 470 329 439 85 597 615 256 437 512 
529 7 572 434 82 701 441 449 459 
530 6 482 362 695 711 562 38 
531 9 594 483 431 112 540 432 537 172 126 
532 9 679 350 220 23 285 198 333 150 278 
533 7 429 650 565 591 60 376 463 
534 6 363 430 658 623 128 508 
535 9 342 27 214 20 261 252 129 120 524 
536 7 286 477 42 579 497 393 148 
537 9 112 708 483 431 700 453 678 594 548 
538 8 64 552 600 653 70 468 590 689 
539 8 438 61 603 323 610 545 420 468 
540 9 172 126 432 531 698 594 585 566 445 
541 8 619 516 618 287 323 451 61 545 
542 9 90 435 667 453 514 431 544 566 594 
543 9 72 50 101 289 582 587 155 36 192 
544 9 435 667 514 25 542 90 401 520 453 
545 9 61 603 610 323 539 560 644 438 287 
546 9 250 510 611 680 176 167 664 39 486 
547 8 378 697 672 643 38 321 498 562 
548 5 599 483 537 112 708 
549 6 617 447 640 89 521 678 
550 7 440 490 527 567 644 560 179 
551 8 144 706 637 416 676 561 193 454 
552 4 538 64 675 604 
553 7 235 579 67 395 79 286 423 
554 7 432 251 599 548 531 483 172 
555 9 262 294 703 558 29 648 686 481 665 
556 9 652 691 20 301 359 7 450 120 109 
557 9 649 176 611 250 680 65 167 495 546 
558 8 686 29 516 262 541 618 619 648 
559 6 518 513 146 457 621 606 
560 8 644 440 545 550 287 603 610 61 
561 9 46 671 144 706 454 676 503 551 628 
562 8 643 38 672 695 614 362 378 482 
563 9 308 496 16 156 180 282 181 380 400 
564 7 320 648 29 618 686 451 294 
565 7 463 533 650 429 682 60 693 
566 9 569 126 542 594 397 585 90 435 667 
567 4 490 527 179 550 
568 6 99 352 191 245 642 674 
569 8 397 566 585 126 580 272 540 542 
570 9 118 491 347 525 578 584 92 409 506 
571 9 6 673 130 504 152 371 493 11 372 
572 7 82 529 434 456 701 681 441 
573 5 492 460 128 623 697 
574 9 151 69 348 350 333 334 331 47 222 
575 7 480 258 177 493 152 288 213 
576 9 625 437 329 670 178 470 473 462 354 
577 9 315 322 113 396 207 160 12 185 284 
578 9 118 409 347 570 239 584 223 593 491 
579 7 286 553 536 79 423 305 477 
580 8 397 469 569 25 662 566 544 435 
581 3 479 433 153 
582 9 72 289 101 165 602 192 219 36 543 
583 9 66 4 427 59 163 132 372 571 369 
584 9 347 491 118 685 570 92 506 525 578 
585 9 272 569 126 397 666 698 566 540 638 
586 9 312 104 243 605 628 209 424 631 135 
587 8 436 135 543 209 243 72 155 631 
588 6 517 196 475 30 504 371 
589 7 694 636 281 443 647 416 154 
590 5 689 70 467 653 600 
591 7 376 429 650 533 60 592 565 
592 2 376 60 
593 9 409 570 578 118 612 239 525 491 607 
594 9 431 531 112 483 90 537 566 542 453 
595 6 462 354 515 404 178 171 
596 8 522 501 626 383 103 681 42 466 
597 9 439 512 528 411 615 54 332 470 85 
598 7 270 338 668 408 100 601 275 
599 5 548 483 554 112 537 
600 9 70 653 468 64 590 689 538 467 420 
601 8 290 167 680 250 598 668 649 270 
602 9 165 192 219 289 400 101 2 582 215 
603 8 610 545 61 539 438 468 560 323 
604 6 675 420 64 438 468 552 
605 9 104 586 424 692 312 243 628 505 209 
606 6 654 485 626 146 559 471 
607 7 89 640 617 91 549 447 521 
608 7 476 215 219 165 192 602 400 
609 9 304 386 705 415 484 14 78 136 349 
610 8 603 438 545 61 539 468 560 644 
611 9 250 176 680 546 557 649 167 510 65 
612 9 635 509 53 409 318 239 223 593 86 
613 9 62 8 139 358 170 21 5 194 117 
614 5 672 643 562 38 695 
615 9 470 171 437 329 439 528 597 576 462 
616 7 406 252 129 88 120 659 401 
617 7 640 89 447 607 549 521 678 
618 9 516 619 541 686 451 29 648 320 323 
619 8 541 618 516 451 323 287 686 61 
620 9 444 390 131 683 657 181 166 17 478 
621 8 513 457 518 704 146 39 559 240 
622 9 377 251 478 432 17 554 445 131 172 
623 8 128 430 658 460 534 363 508 573 
624 8 382 122 153 463 449 519 441 479 
625 6 576 670 437 473 329 178 
626 5 485 606 654 471 146 
627 9 507 442 634 48 702 684 682 693 502 
628 9 312 46 586 631 209 424 671 561 243 
629 9 710 240 471 446 393 146 457 704 621 
630 7 417 11 152 371 493 687 258 
631 6 209 312 628 243 586 46 
632 9 142 448 402 295 511 651 257 331 394 
633 5 651 402 408 394 96 
634 9 507 442 48 627 441 684 693 519 434 
635 9 612 509 318 53 330 426 696 86 409 
636 7 281 443 694 589 416 706 154 
637 5 193 551 416 144 676 
638 8 666 698 272 445 17 585 172 683 
639 9 133 149 336 119 114 26 326 228 254 
640 7 617 89 607 447 549 91 521 
641 9 310 232 375 127 109 63 278 399 316 
642 6 674 99 352 191 568 245 
643 8 562 672 38 614 378 547 695 362 
644 8 560 440 550 287 545 610 603 61 
645 9 107 3 87 384 51 136 267 52 231 
646 9 205 246 391 184 351 5 81 204 317 
647 8 694 343 30 154 474 475 589 505 
648 9 29 320 686 564 618 294 516 451 619 
649 8 557 176 611 250 680 167 495 65 
650 7 429 533 60 376 591 565 463 
651 9 511 394 96 295 633 408 402 632 137 
652 9 556 301 359 691 236 20 120 7 450 
653 8 70 600 590 689 64 467 538 468 
654 5 606 485 626 559 146 
655 9 425 147 379 355 584 88 261 347 685 
656 9 298 84 300 34 412 461 155 699 135 
657 7 166 390 444 620 683 131 17 
658 7 430 623 128 534 363 508 460 
659 6 120 252 616 236 301 129 
660 7 707 405 93 495 270 523 649 
661 9 241 40 489 257 13 669 448 331 402 
662 3 469 580 25 
663 9 372 177 130 163 351 493 184 317 152 
664 9 39 704 510 240 486 446 546 621 457 
665 9 73 337 294 367 94 555 41 262 291 
666 8 272 638 698 585 445 126 397 569 
667 9 435 542 90 514 453 544 431 566 594 
668 9 408 598 338 96 394 270 601 100 137 
669 9 331 13 257 40 348 160 448 661 241 
670 6 625 576 473 464 437 178 
671 9 46 561 706 424 144 551 628 443 454 
672 8 643 562 614 38 547 378 321 697 
673 9 6 571 504 371 11 417 427 196 130 
674 6 642 99 352 568 191 245 
675 7 604 420 552 64 438 468 538 
676 5 454 144 503 551 561 
677 7 173 521 215 412 549 608 155 
678 5 708 700 447 537 112 
679 9 532 23 285 278 350 198 220 333 374 
680 9 250 167 611 176 546 649 557 510 601 
681 6 456 103 626 572 82 596 
682 7 684 693 48 519 442 565 463 
683 9 17 131 390 444 445 620 638 657 478 
684 7 693 682 48 519 442 507 463 
685 8 92 506 688 520 584 491 525 379 
686 9 29 516 648 618 320 558 619 541 451 
687 4 363 534 417 11 
688 5 520 506 92 685 514 
689 5 590 467 70 600 653 
690 8 145 361 225 138 201 248 236 500 
691 9 556 20 652 109 110 174 214 535 27 
692 9 605 699 104 505 424 586 300 474 345 
693 8 684 682 48 519 442 463 507 382 
694 8 154 281 636 443 589 647 505 474 
695 8 362 482 562 38 643 530 614 672 
696 9 330 318 53 426 509 86 455 223 635 
697 9 547 321 498 378 128 492 573 672 460 
698 9 272 638 666 445 585 172 126 540 17 
699 9 300 461 692 34 345 465 298 84 605 
700 5 708 537 678 112 453 
701 9 434 441 449 122 529 382 153 459 519 
702 8 502 627 682 684 693 48 442 507 
703 9 481 237 105 555 262 277 385 415 558 
704 9 39 664 240 446 457 621 513 710 510 
705 9 136 386 609 304 3 231 52 645 415 
706 9 144 551 561 671 416 46 443 676 637 
707 7 660 405 93 270 495 275 649 
708 8 537 700 112 678 483 431 453 548 
709 9 100 137 292 389 458 182 275 224 68 
710 9 629 240 446 393 471 704 457 146 621 
711 8 452 482 362 530 695 346 38 562 
DEPOT_SECTION
   1
   -1
EOF
