NAME :  X-n936-kX-w374-c9.cctp
COMMENT : 	Adapted by Maziero, Usberti and Cavellucci from the Uchoa, Pecin, Pessoa, Poggi, Subramanian, and Vidal (2013)
TYPE :  CCTP
DIMENSION :    933
EDGE_WEIGHT_TYPE : 	EUC_2D	
CAPACITY : 	138
VERTICES_WITHIN_COVERAGE :  9
VERTICES_WITH_DEMAND : 	374
NODE_COORD_SECTION
1 500 500
2 971 544
3 564 976
4 266 4
5 395 95
6 316 877
7 963 89
8 496 96
9 274 493
10 516 598
11 338 849
12 58 395
13 923 411
14 670 912
15 576 101
16 902 552
17 888 709
18 703 539
19 10 341
20 55 984
21 420 132
22 870 218
23 933 196
24 123 372
25 973 824
26 253 201
27 84 941
28 792 164
29 702 811
30 263 756
31 161 986
32 322 75
33 969 514
34 140 665
35 313 386
36 53 583
37 836 244
38 450 730
39 642 334
40 907 431
41 570 705
42 587 264
43 703 666
44 877 132
45 138 487
46 275 598
47 2 354
48 538 460
49 716 573
50 65 579
51 505 17
52 544 958
53 175 838
54 838 67
55 122 410
56 126 430
57 598 544
58 299 442
59 224 930
60 593 453
61 764 848
62 485 95
63 130 114
64 832 863
65 659 293
66 259 936
67 615 141
68 808 263
69 970 317
70 815 888
71 405 330
72 64 525
73 588 746
74 170 392
75 681 640
76 223 283
77 109 297
78 675 904
79 576 171
80 484 439
81 329 79
82 504 393
83 676 664
84 124 658
85 749 89
86 162 848
87 521 0
88 1 873
89 72 718
90 983 770
91 104 702
92 47 781
93 706 244
94 626 678
95 370 431
96 776 346
97 259 339
98 579 606
99 719 491
100 777 297
101 45 562
102 662 602
103 502 327
104 218 628
105 581 867
106 517 232
107 524 21
108 348 100
109 84 93
110 118 76
111 544 801
112 990 739
113 980 477
114 267 231
115 774 530
116 45 336
117 390 140
118 93 808
119 377 216
120 998 949
121 645 597
122 554 435
123 973 506
124 405 399
125 778 252
126 935 755
127 130 186
128 405 776
129 20 901
130 349 926
131 874 686
132 212 933
133 313 230
134 239 121
135 180 574
136 620 990
137 797 316
138 876 34
139 481 60
140 501 833
141 315 125
142 856 368
143 158 494
144 304 611
145 916 16
146 606 344
147 48 866
148 557 242
149 348 238
150 881 199
151 942 308
152 367 909
153 567 429
154 263 687
155 80 592
156 917 557
157 229 120
158 663 574
159 661 630
160 969 401
161 193 230
162 820 144
163 330 976
164 363 421
165 24 571
166 799 697
167 693 323
168 519 860
169 487 344
170 497 48
171 803 6
172 933 729
173 50 642
174 137 27
175 668 500
176 679 303
177 387 948
178 770 982
179 751 922
180 911 626
181 874 634
182 775 271
183 464 526
184 358 1
185 87 466
186 360 776
187 678 210
188 831 505
189 310 98
190 60 386
191 211 11
192 717 474
193 27 576
194 239 512
195 339 610
196 480 11
197 427 835
198 590 578
199 288 823
200 164 489
201 900 201
202 632 524
203 738 109
204 893 40
205 540 895
206 212 305
207 323 70
208 363 67
209 646 520
210 9 393
211 128 947
212 353 737
213 216 578
214 25 274
215 195 119
216 221 479
217 456 958
218 94 951
219 14 611
220 398 493
221 271 437
222 376 441
223 33 583
224 899 242
225 773 188
226 860 280
227 149 839
228 813 956
229 773 271
230 863 14
231 216 323
232 808 127
233 287 138
234 529 712
235 538 620
236 631 17
237 35 132
238 332 451
239 373 454
240 607 153
241 941 985
242 573 829
243 434 192
244 138 825
245 627 320
246 883 457
247 383 339
248 206 590
249 924 152
250 717 463
251 340 43
252 870 772
253 363 386
254 862 991
255 375 592
256 766 958
257 679 316
258 931 697
259 11 913
260 611 501
261 310 130
262 867 257
263 728 74
264 698 23
265 898 404
266 438 862
267 452 788
268 397 910
269 786 605
270 745 715
271 69 902
272 660 810
273 521 591
274 713 540
275 916 907
276 513 141
277 354 109
278 596 71
279 280 435
280 563 585
281 740 301
282 476 563
283 906 759
284 494 590
285 834 195
286 765 282
287 488 289
288 568 869
289 997 212
290 702 13
291 175 81
292 125 900
293 290 663
294 852 555
295 71 327
296 84 429
297 982 249
298 611 223
299 731 863
300 442 967
301 40 563
302 703 347
303 661 662
304 773 288
305 638 588
306 678 775
307 824 341
308 729 935
309 650 197
310 415 366
311 134 657
312 542 714
313 154 654
314 624 499
315 960 5
316 522 197
317 935 115
318 338 567
319 621 926
320 554 225
321 976 124
322 422 479
323 892 594
324 605 401
325 963 118
326 68 159
327 499 330
328 218 594
329 790 923
330 296 46
331 623 94
332 14 439
333 49 257
334 454 598
335 398 986
336 195 838
337 540 227
338 718 784
339 409 746
340 35 456
341 762 832
342 592 591
343 196 254
344 394 226
345 418 462
346 409 522
347 753 35
348 202 846
349 916 395
350 830 95
351 24 750
352 976 279
353 865 302
354 343 344
355 409 702
356 301 254
357 578 746
358 767 318
359 259 335
360 349 767
361 571 676
362 744 582
363 380 734
364 366 576
365 64 936
366 248 717
367 531 123
368 176 708
369 479 758
370 82 818
371 922 369
372 684 955
373 942 265
374 374 998
375 717 478
376 367 372
377 781 973
378 81 883
379 536 97
380 787 785
381 26 285
382 491 117
383 949 12
384 80 279
385 916 998
386 715 860
387 463 711
388 385 797
389 196 283
390 602 591
391 728 198
392 577 759
393 204 79
394 251 30
395 746 628
396 334 850
397 338 954
398 308 324
399 969 149
400 705 430
401 22 125
402 610 463
403 922 681
404 439 747
405 13 834
406 946 578
407 713 402
408 491 438
409 893 830
410 558 441
411 525 263
412 517 36
413 571 882
414 643 965
415 120 476
416 377 460
417 787 273
418 849 702
419 340 19
420 635 520
421 607 304
422 779 347
423 603 139
424 55 419
425 928 789
426 487 234
427 404 845
428 108 249
429 971 558
430 983 839
431 466 494
432 788 959
433 726 276
434 0 885
435 504 525
436 759 351
437 132 804
438 680 566
439 801 108
440 90 614
441 69 317
442 666 531
443 638 898
444 319 639
445 358 855
446 345 118
447 501 939
448 809 837
449 271 94
450 184 431
451 577 166
452 249 631
453 37 855
454 225 839
455 257 910
456 163 960
457 336 595
458 591 477
459 638 385
460 398 781
461 801 917
462 980 748
463 13 199
464 629 565
465 518 59
466 171 816
467 386 852
468 861 799
469 527 405
470 520 113
471 959 231
472 927 484
473 320 976
474 460 840
475 638 118
476 343 933
477 4 457
478 535 683
479 30 800
480 496 80
481 243 194
482 461 987
483 374 512
484 630 363
485 845 547
486 434 479
487 162 843
488 50 364
489 555 775
490 171 505
491 869 873
492 15 809
493 700 403
494 597 797
495 795 196
496 237 62
497 682 724
498 335 977
499 569 427
500 379 633
501 481 295
502 215 59
503 651 692
504 560 666
505 157 438
506 769 951
507 824 134
508 850 450
509 348 742
510 730 945
511 703 412
512 773 913
513 769 561
514 538 228
515 229 200
516 806 122
517 711 514
518 834 378
519 173 688
520 879 789
521 548 987
522 961 861
523 634 81
524 876 764
525 230 630
526 466 535
527 536 102
528 133 535
529 784 861
530 602 148
531 134 487
532 940 737
533 815 360
534 821 842
535 512 487
536 38 639
537 8 577
538 278 643
539 79 371
540 126 655
541 627 223
542 336 973
543 74 924
544 350 839
545 9 780
546 57 143
547 66 944
548 814 382
549 74 990
550 707 856
551 447 745
552 71 122
553 820 364
554 254 702
555 943 660
556 632 31
557 820 679
558 873 665
559 101 533
560 456 728
561 726 474
562 436 619
563 806 226
564 458 967
565 771 559
566 24 828
567 761 118
568 7 144
569 263 505
570 419 445
571 3 602
572 423 799
573 89 151
574 604 17
575 397 585
576 480 109
577 215 101
578 269 982
579 134 993
580 905 394
581 185 224
582 304 162
583 234 264
584 878 612
585 620 156
586 303 278
587 44 855
588 533 864
589 718 798
590 64 437
591 743 738
592 455 890
593 760 816
594 87 637
595 834 898
596 185 572
597 599 142
598 76 267
599 648 838
600 715 431
601 170 474
602 439 608
603 847 75
604 991 131
605 987 776
606 783 329
607 921 646
608 411 976
609 638 775
610 423 993
611 684 597
612 329 406
613 293 468
614 875 548
615 784 495
616 549 509
617 197 614
618 357 841
619 191 919
620 829 509
621 176 239
622 292 100
623 710 967
624 381 271
625 133 135
626 807 453
627 467 749
628 369 804
629 549 358
630 228 411
631 422 893
632 412 751
633 982 733
634 589 381
635 860 42
636 78 903
637 569 345
638 122 157
639 894 355
640 395 686
641 527 51
642 769 426
643 966 7
644 336 670
645 648 970
646 669 263
647 345 688
648 334 63
649 804 987
650 665 637
651 632 101
652 772 217
653 445 251
654 807 906
655 251 470
656 484 123
657 98 682
658 843 317
659 959 30
660 262 911
661 871 459
662 728 510
663 334 535
664 348 353
665 946 531
666 118 14
667 291 752
668 938 361
669 85 112
670 874 752
671 566 966
672 680 491
673 130 180
674 558 532
675 228 473
676 177 434
677 499 981
678 937 557
679 170 92
680 484 525
681 689 524
682 479 920
683 617 651
684 609 240
685 773 84
686 857 102
687 619 498
688 13 695
689 905 706
690 446 478
691 555 993
692 112 144
693 815 693
694 826 813
695 634 14
696 774 487
697 313 120
698 277 759
699 391 455
700 817 760
701 787 325
702 286 363
703 189 724
704 517 641
705 701 412
706 39 562
707 722 245
708 100 949
709 98 751
710 928 681
711 508 959
712 247 144
713 101 476
714 46 938
715 395 820
716 592 826
717 410 990
718 693 941
719 60 300
720 220 235
721 801 457
722 868 188
723 509 886
724 171 754
725 631 311
726 773 569
727 572 581
728 938 403
729 334 749
730 317 863
731 410 401
732 967 345
733 923 234
734 609 241
735 13 883
736 155 385
737 486 997
738 463 764
739 698 572
740 356 465
741 694 529
742 893 883
743 608 537
744 876 170
745 293 93
746 620 941
747 217 857
748 971 225
749 607 215
750 566 671
751 829 126
752 353 996
753 38 186
754 356 695
755 68 960
756 688 990
757 569 563
758 819 29
759 397 484
760 91 351
761 258 668
762 486 578
763 599 841
764 637 370
765 743 89
766 93 635
767 287 690
768 846 975
769 738 183
770 78 389
771 404 706
772 195 232
773 537 567
774 81 414
775 721 77
776 618 854
777 512 627
778 448 179
779 334 10
780 995 688
781 613 12
782 725 542
783 171 228
784 663 226
785 867 142
786 161 250
787 485 465
788 913 100
789 880 698
790 213 444
791 360 974
792 485 582
793 336 126
794 35 152
795 205 23
796 77 83
797 498 141
798 990 797
799 261 397
800 838 659
801 706 222
802 136 687
803 92 894
804 869 500
805 878 112
806 744 525
807 96 830
808 725 444
809 10 324
810 781 904
811 995 534
812 915 464
813 679 632
814 419 805
815 338 854
816 400 176
817 536 577
818 535 103
819 8 650
820 94 338
821 812 968
822 206 62
823 711 300
824 367 345
825 817 375
826 215 838
827 482 199
828 538 736
829 437 640
830 546 974
831 185 253
832 381 687
833 639 364
834 888 908
835 12 388
836 624 519
837 965 418
838 130 464
839 985 43
840 445 191
841 36 437
842 869 362
843 449 675
844 980 804
845 54 321
846 901 710
847 582 253
848 813 96
849 295 739
850 726 504
851 888 766
852 485 952
853 617 620
854 47 135
855 699 715
856 990 890
857 951 664
858 274 884
859 677 618
860 270 576
861 812 834
862 13 418
863 309 509
864 727 310
865 788 858
866 580 301
867 414 438
868 712 540
869 48 732
870 490 483
871 636 970
872 30 346
873 841 214
874 962 807
875 947 684
876 440 957
877 990 333
878 417 506
879 149 678
880 153 236
881 396 878
882 984 703
883 373 62
884 334 190
885 543 908
886 988 913
887 575 465
888 600 467
889 989 243
890 463 540
891 40 530
892 522 854
893 870 975
894 643 379
895 884 415
896 124 779
897 402 955
898 466 117
899 547 294
900 383 811
901 380 304
902 73 831
903 299 858
904 730 158
905 674 908
906 309 487
907 739 812
908 546 173
909 734 916
910 220 444
911 293 376
912 670 846
913 87 244
914 559 950
915 716 790
916 891 306
917 842 77
918 277 644
919 589 803
920 450 327
921 179 362
922 31 55
923 824 185
924 545 822
925 863 311
926 683 106
927 158 219
928 823 342
929 733 905
930 794 607
931 661 205
932 888 583
933 208 385
DEMAND_SECTION
2 88
3 98
4 94
5 89
6 83
7 65
8 85
9 66
10 89
11 80
12 58
13 54
14 75
15 60
16 77
17 69
18 79
19 99
20 86
21 63
22 84
23 92
24 87
25 54
26 93
27 58
28 62
29 98
30 50
31 71
32 55
33 61
34 76
35 76
36 88
37 51
38 78
39 71
40 90
41 90
42 87
43 80
44 74
45 83
46 79
47 77
48 58
49 53
50 99
51 62
52 95
53 61
54 84
55 86
56 91
57 79
58 93
59 76
60 88
61 68
62 80
63 59
64 82
65 53
66 67
67 90
68 51
69 99
70 72
71 70
72 85
73 80
74 80
75 81
76 100
77 60
78 74
79 52
80 70
81 70
82 53
83 92
84 55
85 73
86 63
87 55
88 68
89 100
90 69
91 77
92 55
93 68
94 81
95 89
96 70
97 59
98 76
99 51
100 99
101 92
102 78
103 75
104 84
105 98
106 81
107 96
108 99
109 100
110 71
111 50
112 76
113 80
114 55
115 51
116 79
117 62
118 86
119 62
120 79
121 81
122 84
123 72
124 77
125 61
126 64
127 70
128 84
129 90
130 63
131 74
132 92
133 93
134 58
135 99
136 98
137 57
138 50
139 87
140 85
141 62
142 83
143 82
144 89
145 97
146 68
147 52
148 81
149 91
150 64
151 68
152 87
153 85
154 100
155 74
156 66
157 59
158 95
159 67
160 86
161 58
162 92
163 69
164 92
165 64
166 75
167 52
168 91
169 70
170 52
171 66
172 68
173 61
174 72
175 60
176 70
177 83
178 53
179 57
180 70
181 71
182 61
183 86
184 54
185 73
186 79
187 97
188 86
189 75
190 84
191 92
192 87
193 78
194 74
195 50
196 62
197 69
198 92
199 50
200 73
201 100
202 99
203 98
204 63
205 59
206 50
207 97
208 82
209 50
210 74
211 80
212 62
213 66
214 88
215 79
216 94
217 58
218 83
219 51
220 97
221 71
222 94
223 57
224 50
225 60
226 73
227 6
228 4
229 4
230 4
231 1
232 2
233 2
234 1
235 9
236 7
237 4
238 7
239 2
240 8
241 3
242 9
243 7
244 4
245 8
246 2
247 2
248 4
249 1
250 6
251 1
252 3
253 2
254 8
255 5
256 8
257 4
258 1
259 4
260 3
261 6
262 5
263 6
264 3
265 2
266 6
267 3
268 8
269 1
270 6
271 10
272 1
273 7
274 5
275 6
276 1
277 10
278 7
279 8
280 8
281 5
282 5
283 2
284 10
285 1
286 6
287 2
288 4
289 3
290 5
291 7
292 5
293 2
294 3
295 6
296 9
297 2
298 7
299 5
300 8
301 5
302 1
303 8
304 7
305 4
306 5
307 5
308 5
309 3
310 6
311 7
312 4
313 5
314 6
315 8
316 2
317 3
318 6
319 4
320 9
321 2
322 9
323 7
324 10
325 5
326 10
327 6
328 3
329 6
330 7
331 7
332 1
333 8
334 4
335 8
336 9
337 8
338 2
339 8
340 10
341 9
342 1
343 10
344 4
345 5
346 3
347 10
348 3
349 2
350 9
351 5
352 7
353 4
354 7
355 6
356 2
357 6
358 1
359 6
360 8
361 5
362 8
363 2
364 8
365 4
366 7
367 2
368 1
369 1
370 9
371 7
372 7
373 10
374 4
375 1
COVERAGE_SECTION
2 9 429 811 665 33 678 123 406 156 113 
3 9 671 830 521 691 914 52 136 711 677 
4 9 394 330 191 795 496 779 502 419 822 
5 9 883 208 277 21 117 108 446 793 81 
6 9 730 903 396 815 11 858 445 544 618 
7 9 325 321 317 604 788 839 659 399 249 
8 9 62 480 576 382 470 656 898 139 379 
9 9 569 613 655 906 863 194 675 216 221 
10 9 273 284 777 817 235 792 762 773 704 
11 9 396 815 544 445 618 730 6 903 467 
12 9 190 770 424 774 488 539 590 296 835 
13 9 349 728 580 40 265 895 371 837 160 
14 9 905 78 443 718 372 319 746 414 645 
15 9 278 379 527 818 423 597 331 367 530 
16 9 156 614 932 678 323 665 294 406 485 
17 9 846 789 689 131 418 403 258 670 558 
18 9 868 274 741 681 782 517 739 438 49 
19 9 47 809 872 116 488 835 845 210 381 
20 9 549 755 547 714 365 218 27 708 543 
21 9 117 5 816 898 778 243 576 840 656 
22 9 150 873 722 201 224 262 37 285 744 
23 9 201 733 471 249 748 150 224 399 744 
24 9 736 55 760 539 820 770 74 921 56 
25 9 430 874 844 798 522 605 90 425 856 
26 9 481 515 114 720 712 582 583 772 133 
27 9 218 547 708 543 365 755 636 714 271 
28 9 225 495 162 923 232 507 516 285 751 
29 9 589 915 338 907 272 306 550 912 386 
30 9 698 667 849 366 554 154 767 729 199 
31 9 456 579 211 708 619 132 218 59 549 
32 9 207 81 648 189 745 108 251 330 622 
33 9 123 665 2 811 113 429 472 678 156 
34 9 311 879 84 540 313 802 519 657 91 
35 9 911 612 702 664 253 354 799 376 58 
36 9 50 223 101 301 706 193 155 165 537 
37 9 873 68 262 563 22 226 285 417 125 
38 9 560 551 404 387 627 738 369 632 339 
39 9 245 725 833 484 764 146 257 65 894 
40 9 13 265 895 812 246 349 580 728 661 
41 9 312 361 750 504 478 234 357 73 828 
42 9 847 734 684 148 866 421 298 899 320 
43 9 83 75 303 813 650 855 159 859 395 
44 9 785 805 686 744 751 788 249 507 722 
45 9 531 143 415 838 200 601 490 713 528 
46 9 860 144 452 538 918 525 328 444 457 
47 9 19 872 809 835 210 116 488 845 862 
48 9 410 122 535 887 153 499 616 408 787 
49 9 739 362 782 274 868 18 438 611 741 
50 9 36 155 101 301 706 223 193 165 440 
51 9 107 412 87 196 170 641 465 139 480 
52 9 830 914 671 3 521 711 691 447 885 
53 9 487 86 336 466 227 348 244 826 747 
54 9 917 603 350 635 848 686 758 138 439 
55 9 56 24 736 774 296 505 770 74 838 
56 9 55 505 838 296 415 774 676 713 185 
57 9 743 198 757 836 464 202 674 420 260 
58 9 279 613 221 238 906 612 655 9 35 
59 9 132 619 66 455 660 456 858 578 747 
60 9 888 402 887 458 153 499 410 122 260 
61 9 341 529 865 593 299 907 448 386 861 
62 9 8 576 480 382 656 898 139 470 797 
63 9 625 692 110 638 669 679 109 573 291 
64 9 534 70 448 595 861 491 865 529 654 
65 9 176 257 646 725 245 39 167 823 421 
66 9 660 455 59 132 578 858 619 473 163 
67 9 423 240 530 585 597 475 651 451 331 
68 9 417 125 37 182 229 563 304 100 286 
69 9 877 732 151 352 668 373 297 371 889 
70 9 654 595 64 461 810 865 529 329 534 
71 9 247 901 310 824 920 376 664 354 624 
72 9 891 559 101 301 706 50 36 165 713 
73 9 357 392 489 41 828 494 312 919 609 
74 9 736 921 933 450 676 505 24 55 56 
75 9 813 650 159 859 83 303 43 102 611 
76 9 583 206 389 343 231 720 831 772 161 
77 9 384 820 441 598 295 428 719 760 913 
78 9 905 14 443 718 372 319 550 912 929 
79 9 451 908 530 240 597 423 585 67 749 
80 9 408 787 870 82 690 469 535 48 431 
81 9 32 207 648 189 108 208 251 277 745 
82 9 469 408 80 169 629 327 122 103 410 
83 9 303 75 43 650 813 159 503 859 94 
84 9 540 311 34 313 802 879 657 766 594 
85 9 765 203 685 263 775 567 347 439 848 
86 9 487 53 227 244 466 336 348 437 826 
87 9 107 51 412 196 641 170 465 139 480 
88 9 434 735 129 453 259 405 587 147 566 
89 9 869 91 709 657 351 688 92 802 84 
90 9 605 462 798 112 844 633 874 126 532 
91 9 657 802 89 84 709 879 34 540 311 
92 9 479 545 351 492 869 370 566 118 902 
93 9 707 801 433 646 187 784 391 823 931 
94 9 683 503 303 83 361 650 159 853 750 
95 9 164 222 239 416 699 740 238 867 253 
96 9 422 436 606 701 358 137 533 928 307 
97 9 359 702 231 911 398 206 799 76 933 
98 9 342 280 727 390 198 853 235 757 817 
99 9 375 850 192 561 662 517 250 672 806 
100 9 304 286 358 182 229 417 137 701 606 
101 9 301 706 36 165 193 223 50 891 537 
102 9 121 859 611 158 159 305 813 650 438 
103 9 327 169 501 287 920 629 899 82 411 
104 9 525 617 452 328 248 213 761 918 538 
105 9 288 413 763 242 776 716 588 205 885 
106 9 514 337 426 411 316 320 148 827 287 
107 9 412 51 87 641 170 465 196 139 480 
108 9 277 446 81 793 32 208 189 207 648 
109 9 796 669 552 110 63 854 546 573 692 
110 9 109 63 796 669 174 679 291 625 666 
111 9 924 489 242 919 392 494 140 716 892 
112 9 633 462 90 882 605 532 780 126 172 
113 9 123 33 472 811 837 665 812 2 160 
114 9 26 356 481 133 583 720 515 586 76 
115 9 565 806 513 615 726 696 662 782 850 
116 9 845 872 295 488 441 19 809 719 47 
117 9 21 816 5 277 446 793 108 243 778 
118 9 370 807 902 437 896 244 92 709 227 
119 9 344 149 816 884 624 243 133 840 653 
120 9 886 856 241 275 522 385 430 834 742 
121 9 305 102 158 464 853 159 859 611 390 
122 9 410 153 499 48 887 469 60 458 888 
123 9 33 113 811 665 2 472 429 678 812 
124 9 731 310 867 253 95 164 376 570 222 
125 9 182 229 417 68 286 304 652 563 100 
126 9 532 172 283 425 462 851 90 633 605 
127 9 673 638 927 692 625 573 880 783 428 
128 9 460 632 388 572 339 814 900 186 404 
129 9 259 735 434 88 147 714 271 453 587 
130 9 476 152 397 177 542 791 268 163 498 
131 9 789 558 17 418 846 689 800 403 181 
132 9 59 619 66 455 660 456 31 578 747 
133 9 356 149 884 114 586 119 26 582 481 
134 9 157 712 577 449 215 233 393 622 496 
135 9 596 248 213 328 617 528 104 490 525 
136 9 871 414 645 746 3 671 319 691 756 
137 9 701 606 100 358 422 96 304 307 928 
138 9 204 635 230 145 54 603 917 758 686 
139 9 170 480 62 465 8 412 641 51 196 
140 9 892 168 474 588 924 111 723 267 266 
141 9 697 261 793 189 233 446 622 582 745 
142 9 842 518 553 639 825 307 533 928 548 
143 9 200 490 45 601 531 838 415 528 505 
144 9 46 444 195 457 538 918 860 293 318 
145 9 204 383 138 315 659 643 230 635 839 
146 9 484 245 39 637 833 421 764 634 725 
147 9 587 453 378 735 271 902 129 566 405 
148 9 320 337 514 847 42 411 106 684 734 
149 9 119 133 624 344 356 884 586 901 114 
150 9 722 201 22 744 873 224 285 23 733 
151 9 69 373 352 732 916 668 877 371 639 
152 9 130 268 476 881 177 397 445 631 897 
153 9 499 122 410 60 887 48 324 469 888 
154 9 554 761 767 366 293 918 538 452 849 
155 9 50 440 36 766 101 594 223 301 706 
156 9 16 678 406 665 932 614 323 429 2 
157 9 134 577 712 215 393 449 496 233 822 
158 9 438 102 121 305 611 464 739 442 859 
159 9 650 813 859 75 102 303 83 121 611 
160 9 837 728 13 668 349 732 371 580 40 
161 9 772 581 621 783 343 831 720 927 786 
162 9 507 751 232 516 28 439 923 785 848 
163 9 498 542 473 397 752 791 476 374 130 
164 9 95 222 239 253 612 416 238 699 740 
165 9 193 223 537 706 301 101 36 571 219 
166 9 693 557 418 800 270 700 591 131 558 
167 9 257 176 302 823 864 65 39 281 433 
168 9 892 588 723 140 205 924 288 885 413 
169 9 327 103 920 501 82 287 629 469 310 
170 9 139 412 465 641 51 480 107 196 8 
171 9 758 347 230 635 54 138 917 603 685 
172 9 532 126 258 689 846 283 875 710 17 
173 9 536 594 819 766 219 440 155 36 223 
174 9 666 110 291 795 679 191 822 796 502 
175 9 672 209 442 681 420 741 202 314 517 
176 9 257 65 167 823 646 39 725 864 302 
177 9 897 608 791 268 335 130 152 476 717 
178 9 377 256 432 506 649 821 228 510 308 
179 9 909 512 929 308 510 506 810 256 329 
180 9 607 584 323 181 555 932 558 857 403 
181 9 584 558 180 323 800 607 131 932 789 
182 9 229 417 286 304 125 100 68 281 358 
183 9 526 890 680 431 282 435 870 690 878 
184 9 419 779 251 883 208 648 207 330 32 
185 9 713 415 296 590 838 531 774 56 340 
186 9 360 628 388 509 729 460 212 900 128 
187 9 931 784 801 309 93 391 541 646 707 
188 9 620 804 485 615 294 626 721 508 696 
189 9 622 745 697 32 81 141 207 261 108 
190 9 12 770 488 539 424 774 760 835 296 
191 9 795 394 502 822 4 496 393 174 291 
192 9 375 561 250 99 808 850 662 517 672 
193 9 165 223 301 706 537 101 36 571 219 
194 9 569 216 9 675 655 490 213 613 863 
195 9 457 144 444 255 318 364 500 644 575 
196 9 51 170 87 107 412 139 465 641 480 
197 9 427 266 814 474 715 572 467 900 267 
198 9 342 390 727 757 280 98 57 464 743 
199 9 903 730 396 11 815 6 858 544 454 
200 9 143 601 490 45 531 838 415 505 528 
201 9 150 23 22 722 744 733 224 249 873 
202 9 420 836 209 314 743 687 260 442 57 
203 9 765 85 567 263 775 685 904 926 439 
204 9 138 145 635 230 603 54 383 788 917 
205 9 885 588 723 413 288 168 892 105 914 
206 9 231 76 389 583 343 359 97 831 921 
207 9 32 81 648 189 251 330 745 108 208 
208 9 883 648 251 81 108 207 32 5 277 
209 9 420 202 836 442 175 314 687 260 743 
210 9 835 862 47 332 12 488 190 872 19 
211 9 708 218 456 27 579 292 31 543 755 
212 9 509 729 363 360 186 754 647 339 832 
213 9 248 328 596 135 617 104 525 860 46 
214 9 381 333 719 598 809 384 845 441 116 
215 9 577 157 679 393 291 134 712 822 502 
216 9 675 655 910 790 194 569 601 9 490 
217 9 564 876 300 482 852 682 608 610 447 
218 9 708 27 755 547 211 365 543 549 714 
219 9 571 223 537 193 536 819 165 36 173 
220 9 759 878 322 346 483 345 416 486 699 
221 9 279 58 613 655 799 630 910 9 675 
222 9 95 239 416 699 164 740 867 570 238 
223 9 193 165 36 301 706 101 537 50 219 
224 9 733 262 22 201 150 373 226 23 471 
225 9 495 652 28 769 391 563 923 904 285 
226 9 353 262 925 916 658 37 224 68 22 
227 9 487 86 244 53 466 437 336 348 807 
228 9 821 432 649 377 768 329 461 506 256 
229 9 182 286 417 304 125 100 68 281 358 
230 9 138 635 204 758 145 54 171 603 917 
231 9 206 76 359 389 97 921 583 933 343 
232 9 516 507 439 162 751 848 350 28 567 
233 9 261 582 141 697 622 712 745 189 449 
234 9 312 828 478 41 361 504 750 357 387 
235 9 777 704 10 273 98 280 817 504 727 
236 9 695 556 781 574 278 523 264 290 331 
237 9 854 401 794 546 568 552 326 669 753 
238 9 740 58 239 95 164 613 906 222 612 
239 9 416 222 699 740 95 164 759 238 867 
240 9 530 585 67 597 423 451 79 475 651 
241 9 385 120 893 254 275 886 834 768 856 
242 9 716 763 924 919 105 111 288 494 776 
243 9 840 778 816 827 344 653 21 119 117 
244 9 227 437 487 86 466 53 807 118 896 
245 9 725 39 421 146 65 484 833 764 866 
246 9 661 812 508 40 895 804 472 265 13 
247 9 824 71 901 376 664 354 310 253 124 
248 9 328 213 617 596 135 104 525 452 860 
249 9 317 23 399 44 744 325 788 201 785 
250 9 192 561 375 808 99 600 400 850 672 
251 9 648 419 207 208 779 32 81 883 330 
252 9 524 520 851 670 468 283 700 425 694 
253 9 376 164 664 612 824 124 95 354 731 
254 9 893 768 385 821 649 228 241 432 377 
255 9 364 575 457 195 500 318 602 562 663 
256 9 506 377 432 178 510 179 329 308 512 
257 9 176 167 65 823 302 39 725 864 245 
258 9 710 403 875 689 172 846 555 857 532 
259 9 129 434 735 88 714 365 271 147 547 
260 9 687 314 836 202 420 458 743 888 402 
261 9 141 697 233 793 189 582 622 446 745 
262 9 226 37 224 22 353 873 925 916 68 
263 9 775 765 85 203 347 685 567 926 264 
264 9 290 347 263 775 695 556 236 765 85 
265 9 580 895 349 13 40 728 371 639 842 
266 9 197 474 592 631 427 881 467 715 814 
267 9 738 572 814 369 627 404 551 128 197 
268 9 152 631 881 177 897 130 467 476 592 
269 9 930 726 395 513 362 565 800 115 49 
270 9 591 855 166 497 43 693 338 915 380 
271 9 636 378 543 803 365 27 147 547 714 
272 9 599 912 306 609 29 589 915 776 338 
273 9 10 817 284 773 235 762 777 792 280 
274 9 868 18 782 741 517 681 49 662 806 
275 9 834 742 491 522 886 856 409 241 595 
276 9 797 367 470 382 656 818 527 576 908 
277 9 108 446 793 81 141 697 5 208 189 
278 9 331 15 523 651 556 574 781 475 236 
279 9 221 58 613 799 655 238 612 630 9 
280 9 727 757 98 198 817 342 773 390 273 
281 9 864 433 823 286 358 304 100 229 182 
282 9 762 792 890 526 284 183 680 334 435 
283 9 851 126 524 670 425 252 172 520 532 
284 9 792 762 10 273 282 334 777 817 773 
285 9 923 873 722 495 563 22 150 37 744 
286 9 304 229 182 100 417 281 125 358 433 
287 9 501 103 327 411 920 169 426 653 899 
288 9 105 413 588 205 242 763 885 892 716 
289 9 748 889 297 471 23 399 352 373 733 
290 9 264 347 263 775 695 236 556 765 85 
291 9 679 393 822 215 577 502 63 110 496 
292 9 803 211 378 636 708 271 543 27 218 
293 9 538 918 767 761 154 444 644 452 554 
294 9 485 614 932 16 620 188 323 804 584 
295 9 441 845 820 116 719 760 488 539 872 
296 9 774 590 424 185 770 55 56 12 190 
297 9 889 748 471 352 289 373 733 69 151 
298 9 749 541 684 734 847 309 42 784 931 
299 9 386 550 61 929 341 907 529 909 593 
300 9 876 564 217 482 608 610 717 897 852 
301 9 706 101 165 193 223 36 50 891 537 
302 9 167 257 864 823 176 407 436 493 281 
303 9 83 650 75 159 503 813 94 43 683 
304 9 100 286 182 229 417 358 281 125 137 
305 9 121 464 102 158 390 853 342 438 611 
306 9 272 609 338 915 29 589 497 855 599 
307 9 928 533 553 658 825 137 518 701 142 
308 9 510 909 179 929 718 623 506 256 372 
309 9 931 187 784 541 298 749 585 684 734 
310 9 124 731 71 247 376 824 920 253 664 
311 9 540 34 84 313 879 802 657 766 519 
312 9 234 828 41 478 357 361 750 504 73 
313 9 34 311 879 540 84 802 519 368 617 
314 9 687 260 836 420 202 209 402 458 888 
315 9 643 383 659 145 839 204 7 138 230 
316 9 908 106 337 514 827 320 426 148 276 
317 9 788 325 7 249 321 399 805 604 44 
318 9 457 364 663 195 255 144 575 863 483 
319 9 746 443 414 871 14 645 905 78 136 
320 9 337 514 148 106 847 316 411 42 908 
321 9 325 604 399 7 317 249 788 839 23 
322 9 486 345 690 759 878 220 570 699 867 
323 9 932 584 180 16 181 156 614 294 406 
324 9 634 459 499 894 484 764 153 833 60 
325 9 321 317 7 604 399 249 788 839 23 
326 9 546 573 854 794 552 753 237 692 669 
327 9 103 169 501 287 920 629 899 82 411 
328 9 248 213 617 104 525 596 135 452 860 
329 9 461 512 810 654 506 432 179 228 256 
330 9 207 32 648 251 81 745 394 4 419 
331 9 651 523 475 278 15 67 423 597 530 
332 9 477 862 841 340 210 424 590 835 12 
333 9 214 598 381 384 913 719 428 441 845 
334 9 602 562 792 762 282 284 829 575 890 
335 9 717 608 610 374 897 177 791 752 300 
336 9 348 53 826 747 454 466 487 86 227 
337 9 514 320 148 106 316 411 847 426 908 
338 9 915 589 29 907 306 591 593 272 341 
339 9 632 128 404 363 460 551 771 38 355 
340 9 841 332 477 590 424 862 185 296 774 
341 9 61 593 907 529 865 299 448 861 380 
342 9 390 198 98 727 280 757 853 464 305 
343 9 831 772 161 621 389 720 581 786 783 
344 9 119 624 149 816 243 653 840 884 778 
345 9 322 570 486 867 699 759 690 220 416 
346 9 878 220 483 759 322 486 183 690 890 
347 9 263 685 775 85 765 264 290 171 758 
348 9 336 826 747 454 53 86 487 466 227 
349 9 580 13 265 728 371 40 895 668 639 
350 9 848 917 603 686 54 751 439 516 232 
351 9 869 545 92 479 688 89 492 709 566 
352 9 297 373 69 889 151 471 748 877 732 
353 9 925 226 916 658 262 307 928 639 842 
354 9 664 824 376 247 398 253 35 901 911 
355 9 771 640 832 363 339 843 632 38 754 
356 9 586 133 114 149 583 398 26 884 624 
357 9 73 392 489 828 41 312 494 919 234 
358 9 606 701 100 96 137 304 422 281 436 
359 9 97 702 231 398 911 206 799 76 933 
360 9 186 729 509 212 628 363 388 460 900 
361 9 750 504 41 478 312 683 94 234 704 
362 9 49 726 513 565 782 395 739 269 274 
363 9 212 339 509 632 771 355 360 754 186 
364 9 255 318 575 457 195 663 500 483 346 
365 9 547 543 714 27 755 218 271 636 708 
366 9 554 154 30 767 761 698 849 667 703 
367 9 470 818 527 276 379 797 382 8 656 
368 9 519 703 879 802 724 34 313 311 84 
369 9 627 738 551 560 38 267 404 387 828 
370 9 118 902 807 92 437 587 479 244 896 
371 9 668 349 580 639 728 13 265 732 842 
372 9 718 623 756 645 414 14 510 905 308 
373 9 733 352 471 151 297 224 748 889 69 
374 9 752 335 791 717 608 498 542 163 610 
375 9 192 561 99 250 850 662 808 517 672 
376 9 253 664 824 247 354 124 310 164 612 
377 9 178 432 256 506 649 821 228 329 510 
378 9 803 636 271 147 543 587 292 453 902 
379 9 527 818 470 367 8 15 465 480 641 
380 9 700 593 694 341 861 907 448 591 534 
381 9 214 333 719 809 845 598 116 384 441 
382 9 656 576 8 62 797 898 470 276 480 
383 9 315 643 659 145 839 204 138 7 230 
384 9 598 719 77 913 333 441 428 295 845 
385 9 241 893 254 768 275 834 120 821 228 
386 9 550 299 912 929 61 29 907 341 78 
387 9 560 38 551 627 843 404 369 738 355 
388 9 900 628 460 715 128 186 814 572 360 
389 9 76 206 343 831 583 231 621 786 772 
390 9 342 198 98 727 853 305 464 280 121 
391 9 769 801 904 225 707 652 93 187 495 
392 9 357 73 489 494 828 919 111 41 312 
393 9 822 502 577 291 679 496 215 157 134 
394 9 4 496 191 502 795 330 822 449 393 
395 9 269 362 930 43 49 726 75 813 611 
396 9 11 815 544 730 445 618 6 903 467 
397 9 542 476 163 498 473 130 791 752 177 
398 9 354 702 586 664 359 97 911 35 824 
399 9 321 604 325 249 317 23 7 289 788 
400 9 600 511 705 808 493 407 250 192 375 
401 9 237 568 854 794 546 552 326 753 669 
402 9 888 60 458 887 687 260 314 153 499 
403 9 710 258 875 555 689 857 607 846 17 
404 9 551 38 560 632 627 738 339 369 267 
405 9 566 492 453 587 479 88 147 735 434 
406 9 678 429 156 2 665 16 323 932 180 
407 9 493 511 705 400 600 808 302 250 642 
408 9 80 787 870 82 469 48 535 690 431 
409 9 520 468 491 742 425 252 851 524 64 
410 9 122 153 499 48 887 60 469 458 888 
411 9 106 514 148 899 337 287 320 426 501 
412 9 107 641 51 170 465 87 139 196 480 
413 9 288 105 205 885 588 763 242 776 168 
414 9 645 871 746 136 372 319 756 718 14 
415 9 838 531 713 45 185 143 56 200 601 
416 9 239 699 222 740 95 759 220 164 345 
417 9 182 229 304 68 125 286 100 137 358 
418 9 131 789 693 557 17 558 800 166 846 
419 9 779 251 184 648 330 208 207 883 32 
420 9 202 209 836 314 687 260 743 442 175 
421 9 725 245 866 146 42 39 65 637 847 
422 9 96 606 436 701 358 137 533 553 928 
423 9 597 530 67 240 585 451 475 79 15 
424 9 590 12 774 841 296 190 770 340 862 
425 9 126 283 874 851 520 532 409 844 25 
426 9 106 827 653 411 316 514 337 287 840 
427 9 467 197 715 881 266 900 814 445 618 
428 9 913 598 384 880 77 786 927 333 783 
429 9 2 406 678 811 665 33 123 156 16 
430 9 25 522 844 874 798 856 605 90 425 
431 9 690 870 183 486 787 680 526 322 890 
432 9 377 506 256 228 821 178 649 329 461 
433 9 823 281 707 864 93 286 229 182 304 
434 9 88 735 129 259 453 147 405 587 566 
435 9 680 526 535 183 870 890 282 616 431 
436 9 96 422 606 358 701 137 864 281 302 
437 9 244 896 118 227 466 807 487 370 86 
438 9 158 739 611 18 49 442 102 741 868 
439 9 516 848 232 350 751 507 685 162 567 
440 9 766 594 155 50 36 173 540 84 536 
441 9 295 845 719 116 820 384 760 77 872 
442 9 209 681 741 175 420 202 18 438 672 
443 9 319 14 78 905 746 776 599 912 105 
444 9 144 195 644 293 538 918 457 647 46 
445 9 618 544 815 11 396 467 730 881 6 
446 9 793 277 108 141 697 261 189 81 32 
447 9 711 852 682 677 52 217 564 885 723 
448 9 861 534 694 865 64 529 61 341 70 
449 9 622 745 189 134 233 496 157 697 261 
450 9 676 505 790 910 74 601 630 933 736 
451 9 79 530 908 240 597 423 585 67 749 
452 9 525 104 538 918 761 46 328 293 617 
453 9 587 147 566 405 735 88 902 434 129 
454 9 826 747 348 336 53 466 487 86 199 
455 9 660 66 858 59 132 747 619 903 6 
456 9 31 211 579 619 132 708 59 218 292 
457 9 195 318 144 364 255 444 500 663 46 
458 9 888 887 60 402 260 687 314 410 616 
459 9 894 764 833 484 324 634 39 146 493 
460 9 128 388 572 814 632 900 339 628 186 
461 9 329 654 810 512 70 595 228 432 506 
462 9 112 633 90 605 532 882 126 798 172 
463 9 753 794 568 326 333 237 546 854 401 
464 9 305 158 743 121 57 390 198 202 342 
465 9 641 412 170 480 139 107 379 8 51 
466 9 53 487 227 86 336 244 437 348 826 
467 9 427 445 881 618 715 544 900 197 11 
468 9 520 252 524 694 851 409 670 534 700 
469 9 82 122 153 499 410 408 629 80 48 
470 9 367 818 527 379 8 276 382 797 656 
471 9 748 297 889 733 373 289 23 352 224 
472 9 812 123 665 33 246 113 40 804 661 
473 9 163 498 542 397 752 791 476 578 130 
474 9 266 197 140 592 267 814 572 427 168 
475 9 651 331 67 523 423 585 597 240 530 
476 9 130 397 152 542 791 163 498 177 473 
477 9 332 340 841 862 590 210 424 835 891 
478 9 234 504 312 750 361 41 704 828 777 
479 9 492 92 545 566 405 351 902 370 453 
480 9 8 62 139 465 170 576 382 470 641 
481 9 26 515 114 720 712 772 161 581 582 
482 9 564 737 300 217 876 610 677 852 608 
483 9 220 346 759 878 663 740 416 239 322 
484 9 833 764 894 459 39 146 245 324 634 
485 9 294 614 620 188 804 932 16 323 115 
486 9 322 690 345 878 431 570 759 220 867 
487 9 86 53 227 466 244 336 348 437 826 
488 9 190 872 116 539 12 770 295 760 845 
489 9 392 111 357 828 73 919 494 924 242 
490 9 143 200 601 45 531 528 216 838 415 
491 9 742 64 834 595 409 70 534 275 861 
492 9 479 566 405 545 92 453 587 351 902 
493 9 511 705 407 400 600 808 302 250 894 
494 9 919 716 242 392 763 489 609 73 111 
495 9 225 652 923 28 563 285 873 162 769 
496 9 502 822 394 393 577 449 795 191 134 
497 9 855 503 306 83 43 591 270 303 609 
498 9 542 163 473 397 791 752 374 476 130 
499 9 153 122 410 60 887 324 48 469 634 
500 9 255 195 575 832 640 457 644 364 829 
501 9 287 103 327 920 169 411 653 426 899 
502 9 822 496 393 795 577 291 394 191 679 
503 9 94 303 83 497 683 855 650 43 75 
504 9 750 361 478 41 704 235 312 234 683 
505 9 676 450 56 838 601 55 74 200 45 
506 9 256 432 377 178 179 329 512 510 308 
507 9 751 162 232 516 439 350 848 28 785 
508 8 661 246 626 721 895 804 188 40 
509 9 212 729 360 363 186 754 849 647 667 
510 9 308 909 623 179 718 256 506 929 372 
511 9 705 493 407 400 600 808 250 192 302 
512 9 810 329 179 461 654 506 909 929 256 
513 9 565 726 115 362 806 269 782 930 49 
514 9 337 320 106 148 316 411 426 847 908 
515 9 481 26 720 161 772 114 581 712 343 
516 9 232 439 507 751 162 848 350 28 567 
517 9 662 850 741 99 681 18 274 868 782 
518 8 825 548 553 142 533 307 842 928 
519 9 368 879 802 313 703 34 311 84 540 
520 9 252 468 524 851 670 283 409 425 694 
521 9 691 830 3 671 52 914 677 711 737 
522 9 430 25 856 874 886 844 275 798 742 
523 9 331 651 475 278 556 926 15 67 236 
524 9 252 670 851 520 283 468 17 425 700 
525 9 104 452 617 328 248 761 918 538 213 
526 9 890 183 680 282 435 431 762 792 870 
527 9 818 379 470 367 8 15 276 480 382 
528 9 559 45 143 490 531 200 415 135 596 
529 9 865 61 448 341 861 70 534 810 64 
530 9 240 597 423 67 585 451 79 475 15 
531 9 45 415 838 143 200 713 601 490 528 
532 9 172 126 283 258 462 633 689 846 112 
533 9 553 825 928 307 548 518 422 96 142 
534 9 861 448 64 694 865 529 70 61 491 
535 9 870 787 48 435 616 431 680 408 80 
536 9 173 819 219 594 571 766 223 36 440 
537 9 165 193 571 223 706 219 301 101 36 
538 9 918 293 452 761 144 444 46 154 767 
539 9 770 760 190 488 12 820 774 24 295 
540 9 84 311 34 313 879 802 657 766 594 
541 9 298 749 684 734 309 784 931 187 847 
542 9 498 163 473 397 791 752 476 374 130 
543 9 365 27 636 547 271 714 218 803 708 
544 9 618 11 445 396 815 467 628 730 900 
545 9 479 492 351 92 566 405 869 453 370 
546 9 854 326 794 237 552 573 401 669 753 
547 9 365 755 27 714 543 218 708 20 271 
548 8 825 553 518 533 928 307 142 422 
549 9 20 755 218 547 708 27 365 714 579 
550 9 386 299 912 29 907 929 61 78 589 
551 9 404 38 560 627 738 369 632 339 387 
552 9 669 546 854 109 573 237 326 796 692 
553 9 533 825 548 518 928 307 142 422 96 
554 9 366 154 761 767 293 30 849 698 667 
555 7 857 875 607 710 403 258 180 
556 9 236 695 781 574 523 278 331 264 651 
557 9 693 800 166 418 131 558 789 181 17 
558 9 131 181 789 800 418 17 403 607 689 
559 9 528 72 531 713 50 45 415 891 101 
560 9 38 387 551 627 404 738 369 339 632 
561 9 192 375 250 99 808 850 662 517 600 
562 9 602 829 334 575 843 500 792 284 762 
563 9 495 37 652 68 873 125 285 923 225 
564 9 217 300 482 876 852 737 677 610 608 
565 9 513 726 115 362 806 269 782 930 49 
566 9 405 492 479 453 587 147 902 545 88 
567 9 203 85 765 685 439 516 232 904 28 
568 9 401 794 237 854 546 753 463 326 552 
569 9 9 194 655 863 675 613 216 906 221 
570 9 867 345 699 322 486 222 690 416 731 
571 9 219 537 193 223 165 819 536 36 301 
572 9 814 128 267 460 715 197 388 900 632 
573 9 326 692 546 552 638 669 854 625 673 
574 9 781 236 695 556 278 523 331 107 641 
575 9 255 364 602 500 562 334 318 457 195 
576 9 382 62 656 898 8 480 797 470 276 
577 9 157 393 215 134 822 502 291 496 679 
578 9 66 473 163 498 542 59 660 455 397 
579 9 31 456 211 708 218 549 27 755 20 
580 9 349 265 13 371 895 728 40 639 668 
581 9 161 772 783 621 927 831 343 880 786 
582 9 233 261 141 884 697 793 446 712 622 
583 9 76 720 343 389 114 206 772 831 161 
584 9 181 323 932 180 558 607 800 294 614 
585 9 240 67 530 423 597 475 451 79 309 
586 9 356 398 133 114 149 583 359 97 354 
587 9 453 147 566 405 902 735 378 88 129 
588 9 168 892 205 723 288 413 924 140 885 
589 9 915 338 29 907 306 593 341 272 550 
590 9 424 296 841 774 340 185 12 332 770 
591 9 270 855 338 915 497 380 589 166 907 
592 9 266 631 682 474 723 881 268 197 447 
593 9 341 907 61 380 589 865 529 915 338 
594 9 766 440 173 84 540 155 657 536 311 
595 9 70 654 64 461 491 329 810 834 534 
596 9 135 248 213 328 617 528 104 490 525 
597 9 423 530 240 67 585 451 79 475 15 
598 9 384 913 333 428 719 77 441 214 381 
599 9 912 272 776 763 716 29 443 550 609 
600 9 400 808 511 705 407 250 493 192 561 
601 9 200 143 490 45 505 531 676 838 450 
602 9 562 334 829 575 792 762 282 284 500 
603 9 917 54 350 686 635 848 805 138 751 
604 9 321 399 325 7 317 249 289 788 23 
605 9 90 798 462 844 112 874 633 25 126 
606 9 701 96 422 137 358 100 436 304 928 
607 9 180 555 403 857 710 875 181 258 558 
608 9 717 335 610 897 300 876 177 374 217 
609 9 306 272 494 919 73 392 599 357 497 
610 9 717 608 335 300 482 876 897 564 217 
611 9 859 102 739 158 438 813 121 49 159 
612 9 35 164 253 238 58 911 95 376 664 
613 9 906 58 9 279 221 655 238 863 569 
614 9 294 16 485 932 156 804 323 620 188 
615 9 696 115 721 620 188 626 806 662 850 
616 9 674 535 435 48 887 458 757 773 57 
617 9 104 248 328 525 213 135 596 452 313 
618 9 544 445 11 815 396 467 628 900 715 
619 9 132 59 456 455 747 211 292 66 660 
620 9 188 485 804 615 294 115 696 721 614 
621 9 783 581 831 161 786 772 880 343 927 
622 9 745 189 449 697 141 261 233 32 81 
623 9 372 510 718 756 308 909 256 179 506 
624 9 901 149 344 119 71 653 247 824 586 
625 9 63 692 638 673 573 127 669 679 110 
626 8 721 508 642 696 615 188 620 661 
627 9 369 738 551 560 38 404 387 267 632 
628 9 900 388 186 715 460 618 544 360 128 
629 9 637 634 469 103 82 327 146 169 899 
630 9 933 910 790 799 450 221 676 279 74 
631 9 268 881 592 266 427 467 152 197 682 
632 9 339 128 404 460 363 551 38 771 355 
633 9 112 462 882 90 532 605 780 172 126 
634 9 324 146 637 484 629 459 764 499 153 
635 9 138 230 54 204 603 917 758 686 350 
636 9 271 803 378 543 365 27 547 292 714 
637 9 629 146 634 866 421 899 245 484 324 
638 9 692 673 625 127 573 63 326 669 552 
639 9 842 371 142 580 668 349 265 916 925 
640 9 832 355 771 754 363 647 500 843 644 
641 9 465 412 107 170 51 480 139 379 87 
642 8 721 626 808 600 407 696 548 250 
643 9 315 383 659 839 145 204 7 138 230 
644 9 647 754 444 293 832 767 500 195 640 
645 9 414 871 136 372 746 756 319 718 14 
646 9 65 784 176 93 187 257 801 707 823 
647 9 754 644 832 212 640 509 444 363 767 
648 9 207 32 81 251 208 883 108 189 330 
649 9 821 377 228 432 178 768 256 506 254 
650 9 159 813 75 859 303 83 102 611 121 
651 9 331 475 523 67 278 423 926 597 15 
652 9 225 495 563 125 391 769 182 229 28 
653 9 426 287 344 501 243 840 827 624 778 
654 9 461 70 329 810 595 512 64 228 529 
655 9 675 216 9 569 221 910 613 194 279 
656 9 382 576 898 797 62 8 276 470 480 
657 9 91 84 802 540 89 311 34 594 766 
658 9 925 353 307 928 226 137 916 533 553 
659 9 383 643 315 839 145 7 204 138 788 
660 9 455 66 858 59 132 6 903 747 578 
661 9 246 508 804 812 40 895 188 265 472 
662 9 850 517 99 806 782 274 375 868 561 
663 9 318 863 483 364 906 457 255 9 740 
664 9 354 824 376 253 247 35 398 612 901 
665 9 2 678 33 123 429 156 406 16 811 
666 9 174 110 796 109 795 291 191 679 922 
667 9 849 698 30 729 366 509 360 554 767 
668 9 371 732 349 728 639 580 160 13 151 
669 9 552 109 796 573 546 692 854 63 110 
670 9 524 252 851 283 520 17 468 846 789 
671 9 3 914 830 52 521 691 711 136 746 
672 9 175 681 99 375 517 741 192 442 209 
673 9 127 638 692 625 927 573 880 783 326 
674 9 616 757 773 57 743 817 727 280 435 
675 9 216 655 910 790 194 569 9 221 601 
676 9 450 505 790 601 74 910 56 736 630 
677 9 737 711 852 482 447 564 830 217 521 
678 9 156 406 665 429 16 2 33 932 323 
679 9 291 393 215 63 577 822 110 502 625 
680 9 183 435 526 890 431 282 870 535 762 
681 9 741 18 442 517 868 274 175 672 782 
682 9 447 852 592 217 723 711 564 876 300 
683 9 94 853 303 159 650 361 503 750 98 
684 9 734 298 541 749 847 42 148 784 320 
685 9 85 765 567 439 848 203 263 516 775 
686 9 805 350 603 917 44 751 54 785 848 
687 9 314 260 836 420 202 209 458 402 888 
688 9 819 869 351 536 89 173 219 545 657 
689 9 846 17 789 258 403 710 172 131 532 
690 9 486 322 431 345 878 787 570 870 759 
691 9 521 3 830 671 52 914 677 711 136 
692 9 638 625 573 63 673 669 127 326 552 
693 9 557 166 418 800 131 558 789 700 270 
694 9 861 448 534 468 380 64 700 520 865 
695 9 236 556 781 574 264 523 290 278 331 
696 9 615 721 115 626 806 561 662 850 99 
697 9 141 261 189 793 622 233 446 745 108 
698 9 30 667 849 366 729 554 199 767 360 
699 9 416 239 222 345 867 570 759 95 740 
700 9 380 252 694 670 468 524 166 418 693 
701 9 606 137 358 422 96 100 436 304 307 
702 9 911 35 97 359 799 398 354 612 664 
703 9 368 724 519 366 879 802 554 34 313 
704 9 777 235 10 478 273 504 284 750 361 
705 9 511 493 407 400 600 808 250 192 302 
706 9 301 101 165 193 223 36 50 891 537 
707 9 93 801 433 391 125 187 646 823 229 
708 9 218 27 211 547 755 543 365 549 636 
709 9 896 89 91 869 118 92 437 370 657 
710 9 403 258 875 555 857 689 607 846 172 
711 9 447 677 852 52 830 737 521 682 564 
712 9 134 157 233 481 577 449 26 215 515 
713 9 185 415 838 531 45 296 56 590 559 
714 9 365 547 543 755 27 259 271 129 20 
715 9 900 388 427 814 628 467 197 572 460 
716 9 763 242 919 494 776 105 924 288 111 
717 9 335 610 608 897 374 300 876 177 482 
718 9 372 623 308 14 510 905 78 909 756 
719 9 441 845 295 384 381 598 116 214 333 
720 9 772 161 343 583 515 581 831 621 26 
721 8 626 696 615 642 508 188 620 661 
722 9 150 744 22 201 285 873 923 785 44 
723 9 168 205 588 892 885 682 140 447 592 
724 9 703 368 896 466 437 519 709 802 244 
725 9 245 39 421 65 146 257 176 484 866 
726 9 513 565 362 269 115 930 806 782 49 
727 9 280 198 757 342 98 390 817 773 57 
728 9 13 349 160 837 580 371 265 40 668 
729 9 509 212 360 186 849 667 363 698 754 
730 9 6 903 396 815 11 544 445 618 858 
731 9 124 310 867 570 253 95 164 222 376 
732 9 877 69 668 151 371 160 728 352 349 
733 9 224 373 471 23 201 748 22 150 262 
734 9 684 298 541 749 847 42 148 784 320 
735 9 434 88 129 259 453 147 587 405 566 
736 9 74 921 24 55 505 933 56 450 676 
737 9 677 482 564 711 852 217 300 447 876 
738 9 627 369 551 267 404 38 560 387 572 
739 9 49 438 611 18 158 274 868 782 741 
740 9 239 416 238 222 699 95 164 759 220 
741 9 681 18 868 274 517 442 782 175 662 
742 9 834 491 275 409 595 64 522 70 534 
743 9 57 836 202 420 464 260 314 687 209 
744 9 722 150 785 44 201 22 285 249 923 
745 9 622 189 449 32 697 207 81 141 261 
746 9 319 414 871 645 443 136 14 671 914 
747 9 348 826 454 336 53 86 487 466 858 
748 9 471 889 297 289 23 373 733 352 224 
749 9 298 541 684 734 847 309 42 79 320 
750 9 361 504 478 41 312 234 683 704 235 
751 9 507 162 232 516 350 439 848 686 785 
752 9 374 791 498 542 163 473 397 335 717 
753 9 463 794 326 546 568 854 237 573 401 
754 9 647 832 644 640 212 363 509 771 355 
755 9 547 365 27 20 218 549 714 708 543 
756 9 623 372 645 718 414 871 510 136 308 
757 9 727 280 198 773 674 57 342 817 390 
758 9 171 54 635 230 917 603 138 347 350 
759 9 220 322 345 699 878 416 483 486 239 
760 9 820 539 295 24 441 770 488 190 116 
761 9 154 918 293 538 554 767 452 525 366 
762 9 792 284 282 10 273 334 890 526 817 
763 9 716 776 242 105 919 288 494 599 413 
764 9 833 484 894 459 39 146 324 634 245 
765 9 85 203 263 775 685 567 347 439 926 
766 9 594 440 84 540 173 155 311 657 536 
767 9 154 293 554 761 366 918 538 849 644 
768 9 254 893 821 228 649 432 377 461 385 
769 9 391 904 225 652 801 28 495 707 187 
770 9 190 539 12 774 424 488 296 760 24 
771 9 355 640 832 363 339 632 754 38 404 
772 9 161 581 621 343 831 783 720 786 927 
773 9 817 273 280 757 10 727 674 284 762 
774 9 296 770 424 590 12 190 55 539 56 
775 9 263 765 85 203 926 685 347 567 264 
776 9 763 599 716 105 443 242 288 912 413 
777 9 704 235 10 273 284 792 762 817 478 
778 9 840 243 827 816 21 797 898 426 656 
779 9 419 184 251 330 648 207 208 883 32 
780 7 882 633 875 857 112 555 462 
781 9 574 236 695 556 278 523 331 264 107 
782 9 274 868 18 806 517 49 662 741 850 
783 9 621 581 927 880 161 772 786 831 343 
784 9 931 187 309 541 646 801 93 298 684 
785 9 44 744 805 686 751 507 722 162 249 
786 9 880 621 783 831 927 343 581 161 772 
787 9 870 80 408 431 535 690 48 486 680 
788 9 317 805 44 7 249 325 686 785 204 
789 9 131 17 846 689 418 558 403 258 710 
790 9 910 450 675 216 630 676 655 601 505 
791 9 752 542 498 374 163 397 177 335 473 
792 9 762 284 282 10 334 273 890 526 817 
793 9 446 141 697 277 261 108 189 81 582 
794 9 237 854 546 568 401 326 753 552 463 
795 9 191 502 822 394 496 393 4 291 174 
796 9 109 669 552 110 922 854 63 546 237 
797 9 276 656 382 470 576 367 898 8 62 
798 9 844 605 90 874 25 430 462 112 425 
799 9 630 911 221 279 702 35 933 97 58 
800 9 557 558 693 181 418 131 166 789 584 
801 9 93 707 187 391 784 931 769 646 433 
802 9 879 34 311 84 540 91 519 313 657 
803 9 378 636 271 292 543 27 365 147 547 
804 9 188 620 661 246 614 485 508 294 812 
805 9 44 686 785 788 603 917 350 751 317 
806 9 662 782 850 115 274 517 868 99 18 
807 9 370 118 902 244 437 227 378 587 896 
808 9 600 250 400 561 192 375 511 705 407 
809 9 19 872 47 116 381 845 214 719 488 
810 9 512 329 461 654 179 70 529 865 929 
811 9 2 33 429 123 665 113 678 406 156 
812 9 472 246 40 661 13 804 895 265 728 
813 9 75 859 650 159 83 102 303 611 43 
814 9 572 715 197 128 460 388 900 267 427 
815 9 11 396 544 445 618 730 6 903 467 
816 9 117 243 119 840 21 778 344 884 446 
817 9 773 273 280 10 727 757 235 284 674 
818 9 527 379 470 367 8 15 276 480 382 
819 9 536 219 173 688 571 223 537 193 594 
820 9 760 295 441 539 845 77 24 116 488 
821 9 228 649 432 377 768 178 506 256 329 
822 9 502 393 496 291 795 577 679 191 394 
823 9 864 433 167 281 176 257 302 65 93 
824 9 247 664 354 376 71 253 901 310 398 
825 8 548 553 533 518 928 307 142 422 
826 9 454 348 747 336 53 466 487 86 227 
827 9 426 840 778 316 106 243 797 514 337 
828 9 312 234 357 489 41 392 73 478 369 
829 9 562 602 843 334 500 640 355 575 832 
830 9 521 52 3 691 671 914 711 677 447 
831 9 343 621 772 161 786 581 783 389 880 
832 9 640 754 771 355 647 363 644 500 212 
833 9 764 484 894 459 39 146 245 324 634 
834 9 742 275 491 595 893 64 70 409 768 
835 9 210 862 47 488 872 12 19 190 332 
836 9 202 420 314 209 260 687 743 57 442 
837 9 160 728 13 349 40 113 668 371 580 
838 9 415 531 45 713 56 505 143 601 200 
839 9 659 643 315 383 7 145 325 321 317 
840 9 243 778 827 816 426 653 344 21 119 
841 9 340 332 424 590 862 477 12 296 774 
842 9 142 639 518 580 553 307 928 265 925 
843 9 829 387 355 560 38 640 771 562 602 
844 9 798 874 25 605 90 430 425 462 522 
845 9 441 116 295 719 872 488 820 809 381 
846 9 689 17 789 258 131 403 172 710 532 
847 9 42 148 684 734 320 298 749 866 337 
848 9 350 439 516 232 751 917 54 507 603 
849 9 667 698 30 729 767 366 509 554 212 
850 9 662 99 517 375 806 561 192 274 782 
851 9 524 252 283 670 520 468 425 126 17 
852 9 447 711 217 564 677 682 482 737 876 
853 9 683 390 121 305 342 98 159 102 198 
854 9 237 546 794 401 552 326 568 669 573 
855 9 497 270 43 591 503 83 306 303 338 
856 9 886 522 430 120 25 275 844 874 798 
857 7 555 875 710 403 607 258 780 
858 9 660 455 903 6 730 66 199 747 454 
859 9 813 159 75 102 611 650 121 83 158 
860 9 46 144 213 328 452 248 525 538 918 
861 9 448 534 694 865 64 529 61 341 70 
862 9 332 210 835 841 477 424 340 12 590 
863 9 906 663 9 613 569 238 740 318 483 
864 9 281 823 433 167 358 302 286 257 176 
865 9 529 61 448 861 341 534 70 64 810 
866 9 421 899 42 637 847 146 245 725 148 
867 9 570 345 699 731 222 124 322 416 239 
868 9 274 18 782 741 517 681 49 662 739 
869 9 89 351 92 688 709 545 91 479 657 
870 9 787 535 431 680 80 435 690 408 183 
871 9 414 645 136 746 319 372 756 718 14 
872 9 116 19 488 47 809 845 295 835 441 
873 9 285 22 37 923 563 722 150 495 262 
874 9 844 25 798 425 430 605 90 522 126 
875 8 710 857 258 555 403 882 607 172 
876 9 300 217 564 608 482 897 610 717 852 
877 9 69 732 151 352 668 160 371 373 297 
878 9 346 220 322 759 486 690 483 345 431 
879 9 34 802 313 311 519 84 540 368 91 
880 9 786 927 783 621 581 831 161 772 343 
881 9 467 631 268 427 152 445 266 197 618 
882 8 780 633 112 875 462 857 258 532 
883 9 208 251 648 5 108 81 207 277 32 
884 9 582 133 119 149 793 261 816 141 233 
885 9 205 413 723 588 914 288 52 447 168 
886 9 856 120 522 275 430 241 25 742 834 
887 9 458 60 888 410 402 48 122 153 499 
888 9 402 458 60 887 260 687 314 410 153 
889 9 297 748 289 471 352 373 733 23 69 
890 9 526 183 282 680 435 762 431 792 346 
891 9 72 101 706 301 165 193 223 36 50 
892 9 168 588 140 723 924 205 288 413 111 
893 9 254 768 385 821 228 649 834 241 275 
894 9 459 764 833 484 324 39 146 634 245 
895 9 265 40 580 349 13 246 661 508 142 
896 9 437 709 118 244 724 370 807 466 227 
897 9 177 608 335 717 876 300 610 268 791 
898 9 576 656 382 62 8 797 21 480 276 
899 9 866 411 42 148 847 103 637 287 327 
900 9 388 715 628 460 814 427 618 128 467 
901 9 624 247 71 824 354 664 376 310 149 
902 9 370 807 118 587 147 453 566 378 479 
903 9 730 6 396 858 199 815 11 544 445 
904 9 769 391 203 567 225 28 801 765 926 
905 9 78 14 443 718 372 319 929 308 909 
906 9 863 613 9 238 58 569 740 663 279 
907 9 593 589 341 915 338 29 61 299 386 
908 9 79 451 316 276 367 320 337 514 797 
909 9 929 179 308 510 512 718 506 810 256 
910 9 790 675 630 216 450 655 676 221 601 
911 9 702 35 799 612 97 359 398 354 279 
912 9 599 272 550 29 386 776 78 443 905 
913 9 428 598 384 333 77 719 880 214 127 
914 9 52 671 3 830 521 691 885 711 205 
915 9 338 589 29 907 306 593 272 591 341 
916 9 353 925 226 639 658 151 262 842 224 
917 9 603 54 350 686 848 635 805 439 751 
918 9 538 293 452 761 444 144 154 46 767 
919 9 494 716 242 763 489 111 392 924 609 
920 9 169 71 501 327 103 310 287 247 901 
921 9 74 736 933 231 24 206 450 630 676 
922 9 796 109 401 237 552 669 854 110 546 
923 9 285 495 873 28 162 722 563 225 507 
924 9 111 242 892 588 140 168 716 489 919 
925 9 353 658 916 226 307 842 928 262 639 
926 9 475 775 651 203 263 523 331 765 85 
927 9 783 880 581 621 786 161 772 127 831 
928 9 307 533 553 658 825 137 518 701 548 
929 9 909 179 308 510 512 299 386 810 718 
930 9 269 726 395 513 565 362 800 557 294 
931 9 309 187 784 541 801 298 749 646 93 
932 9 323 584 16 614 156 294 180 181 678 
933 9 630 921 74 450 736 799 676 790 910 
DEPOT_SECTION
   1
   -1
EOF
