NAME :  X-n979-kX-w391-c7.cctp
COMMENT : 	Adapted by Maziero, Usberti and Cavellucci from the Uchoa, Pecin, Pessoa, Poggi, Subramanian, and Vidal (2013)
TYPE :  CCTP
DIMENSION :    955
EDGE_WEIGHT_TYPE : 	EUC_2D	
CAPACITY : 	998
VERTICES_WITHIN_COVERAGE :  7
VERTICES_WITH_DEMAND : 	391
NODE_COORD_SECTION
1 0 0
2 236 951
3 735 289
4 841 735
5 846 821
6 907 810
7 55 136
8 699 326
9 731 899
10 739 753
11 807 828
12 775 783
13 891 689
14 62 93
15 780 220
16 799 739
17 661 348
18 865 688
19 12 4
20 829 827
21 845 896
22 136 243
23 878 584
24 908 794
25 820 771
26 895 788
27 747 915
28 860 746
29 829 754
30 94 149
31 940 847
32 884 747
33 226 904
34 738 802
35 194 98
36 789 744
37 929 895
38 864 696
39 84 161
40 764 615
41 283 937
42 776 807
43 877 427
44 828 266
45 297 994
46 665 900
47 15 93
48 100 956
49 850 790
50 854 794
51 898 679
52 948 888
53 731 282
54 60 87
55 826 362
56 716 264
57 885 814
58 932 825
59 308 926
60 225 130
61 853 861
62 794 753
63 771 729
64 264 853
65 780 693
66 837 723
67 895 849
68 746 715
69 736 862
70 734 730
71 616 228
72 7 80
73 93 860
74 860 765
75 877 734
76 819 798
77 706 922
78 861 714
79 710 149
80 268 903
81 783 808
82 811 865
83 231 950
84 929 771
85 717 857
86 767 755
87 250 924
88 972 543
89 114 955
90 931 866
91 796 414
92 708 270
93 893 755
94 175 956
95 928 757
96 712 401
97 911 968
98 73 240
99 273 9
100 729 595
101 35 166
102 144 36
103 855 718
104 246 872
105 145 125
106 828 875
107 991 591
108 256 913
109 916 785
110 572 373
111 794 708
112 293 607
113 954 807
114 929 743
115 766 280
116 649 291
117 467 677
118 754 655
119 739 882
120 914 788
121 840 785
122 688 415
123 872 383
124 100 253
125 825 737
126 934 881
127 61 122
128 805 306
129 723 293
130 210 984
131 871 845
132 263 916
133 689 176
134 916 696
135 267 798
136 709 162
137 778 748
138 868 711
139 888 705
140 275 849
141 721 780
142 39 209
143 725 784
144 732 339
145 153 957
146 228 685
147 133 309
148 968 772
149 856 654
150 9 152
151 241 951
152 713 376
153 838 377
154 876 764
155 597 423
156 114 992
157 877 851
158 919 703
159 904 766
160 72 31
161 466 393
162 781 784
163 901 846
164 832 916
165 82 123
166 854 803
167 860 788
168 886 728
169 721 227
170 821 575
171 833 775
172 740 699
173 815 870
174 987 925
175 912 794
176 52 131
177 278 957
178 978 690
179 771 292
180 823 346
181 707 335
182 169 906
183 735 870
184 881 748
185 286 992
186 852 889
187 795 680
188 234 986
189 950 871
190 93 187
191 242 902
192 166 240
193 831 436
194 826 244
195 913 959
196 762 783
197 899 829
198 838 765
199 175 829
200 869 785
201 953 964
202 866 944
203 936 737
204 819 800
205 159 845
206 226 948
207 900 582
208 716 261
209 724 340
210 882 786
211 37 115
212 76 158
213 932 900
214 933 720
215 16 220
216 697 613
217 794 288
218 843 826
219 944 819
220 182 953
221 871 819
222 795 277
223 27 151
224 90 898
225 837 658
226 48 57
227 335 937
228 768 713
229 620 617
230 870 923
231 703 796
232 784 302
233 626 928
234 847 721
235 27 180
236 791 822
237 836 834
238 840 350
239 267 903
240 865 981
241 887 753
242 213 883
243 132 331
244 99 100
245 976 899
246 678 226
247 906 926
248 716 733
249 866 711
250 268 882
251 904 726
252 867 615
253 929 807
254 625 238
255 237 947
256 209 895
257 766 806
258 464 628
259 723 817
260 756 859
261 149 12
262 46 127
263 648 763
264 709 1000
265 829 844
266 973 811
267 689 268
268 13 80
269 896 935
270 754 764
271 942 954
272 716 719
273 813 654
274 834 758
275 207 941
276 756 865
277 265 892
278 757 729
279 915 874
280 184 925
281 6 88
282 913 733
283 853 309
284 875 839
285 32 84
286 715 176
287 834 807
288 847 710
289 444 396
290 914 878
291 856 642
292 226 73
293 968 877
294 781 749
295 922 793
296 821 387
297 110 34
298 134 191
299 672 327
300 879 696
301 624 939
302 813 750
303 908 891
304 818 143
305 938 847
306 869 297
307 814 792
308 980 924
309 637 554
310 642 92
311 978 788
312 942 817
313 752 219
314 182 910
315 935 940
316 14 181
317 873 727
318 896 683
319 571 612
320 938 763
321 219 930
322 697 393
323 818 777
324 741 316
325 760 270
326 291 911
327 998 998
328 774 940
329 901 284
330 838 610
331 702 710
332 837 729
333 863 747
334 110 210
335 941 368
336 840 786
337 955 703
338 27 249
339 885 720
340 726 72
341 927 828
342 936 839
343 67 303
344 6 173
345 450 456
346 814 755
347 916 839
348 267 996
349 885 921
350 835 904
351 19 162
352 169 925
353 697 124
354 503 227
355 762 808
356 995 982
357 625 396
358 278 907
359 789 275
360 661 251
361 35 134
362 169 67
363 909 870
364 731 272
365 880 876
366 17 50
367 40 968
368 912 691
369 895 657
370 970 746
371 227 938
372 789 714
373 831 793
374 628 75
375 44 140
376 833 331
377 819 774
378 863 563
379 7 208
380 251 969
381 877 878
382 929 741
383 857 859
384 828 756
385 982 730
386 176 937
387 861 803
388 828 850
389 142 224
390 785 320
391 732 656
392 702 411
393 885 900
394 89 906
395 259 902
396 896 852
397 124 963
398 685 731
399 88 97
400 763 297
401 855 747
402 161 273
403 202 878
404 171 74
405 237 989
406 780 303
407 886 835
408 189 960
409 823 650
410 123 142
411 846 781
412 866 728
413 692 575
414 816 730
415 670 282
416 844 756
417 220 944
418 773 798
419 879 728
420 183 931
421 807 714
422 185 301
423 797 735
424 934 784
425 667 332
426 24 204
427 901 705
428 845 758
429 692 835
430 195 161
431 984 717
432 878 867
433 65 312
434 167 965
435 21 154
436 262 49
437 804 363
438 513 373
439 886 775
440 754 423
441 289 968
442 685 588
443 821 861
444 232 876
445 877 928
446 868 130
447 802 662
448 152 128
449 913 784
450 45 151
451 648 249
452 662 246
453 174 343
454 902 811
455 287 979
456 874 872
457 759 909
458 170 875
459 871 772
460 231 949
461 757 759
462 830 706
463 73 64
464 181 209
465 346 925
466 781 691
467 939 690
468 696 707
469 776 662
470 696 935
471 914 713
472 569 224
473 835 929
474 716 466
475 814 851
476 949 924
477 760 725
478 918 734
479 801 957
480 980 884
481 881 597
482 922 516
483 937 722
484 42 137
485 788 704
486 239 159
487 823 797
488 477 752
489 989 733
490 785 161
491 901 843
492 617 720
493 968 847
494 816 769
495 16 117
496 850 917
497 835 817
498 568 403
499 688 214
500 968 840
501 831 736
502 338 911
503 926 697
504 260 801
505 760 280
506 328 778
507 853 694
508 825 825
509 966 756
510 918 833
511 880 747
512 869 741
513 861 227
514 675 706
515 682 353
516 783 872
517 684 255
518 8 275
519 95 811
520 719 331
521 852 809
522 287 911
523 849 735
524 908 743
525 842 941
526 773 87
527 829 790
528 116 68
529 0 210
530 832 798
531 172 794
532 990 962
533 720 777
534 785 786
535 769 726
536 286 795
537 33 167
538 882 887
539 783 578
540 925 840
541 48 159
542 8 59
543 719 304
544 53 77
545 792 744
546 934 879
547 823 685
548 857 240
549 850 780
550 116 45
551 624 288
552 197 910
553 164 904
554 870 767
555 844 854
556 277 820
557 805 821
558 878 755
559 916 435
560 146 86
561 856 887
562 110 922
563 931 578
564 672 355
565 732 259
566 317 931
567 973 525
568 905 720
569 39 229
570 257 153
571 950 721
572 814 742
573 82 116
574 767 838
575 176 916
576 184 928
577 150 211
578 726 634
579 710 884
580 850 733
581 964 690
582 863 307
583 212 235
584 275 975
585 935 759
586 770 210
587 588 740
588 988 760
589 804 712
590 23 152
591 783 812
592 212 922
593 820 750
594 608 976
595 842 734
596 939 896
597 987 811
598 810 778
599 909 838
600 759 793
601 211 892
602 1 392
603 827 748
604 685 761
605 774 211
606 804 287
607 770 312
608 763 294
609 839 263
610 723 658
611 72 220
612 268 921
613 12 122
614 892 897
615 101 42
616 797 844
617 39 252
618 957 295
619 120 148
620 836 712
621 750 802
622 929 621
623 764 839
624 833 737
625 706 702
626 846 867
627 850 818
628 774 522
629 789 290
630 658 197
631 857 742
632 932 844
633 183 127
634 235 950
635 237 941
636 868 831
637 878 677
638 826 794
639 643 146
640 284 964
641 990 710
642 923 535
643 828 780
644 251 928
645 774 334
646 996 821
647 951 836
648 195 927
649 985 682
650 35 186
651 803 801
652 689 269
653 734 819
654 917 615
655 856 239
656 30 129
657 683 678
658 814 773
659 660 351
660 178 887
661 672 213
662 868 873
663 859 867
664 800 771
665 769 706
666 692 282
667 976 867
668 938 693
669 716 682
670 980 804
671 726 598
672 609 290
673 168 990
674 777 711
675 200 890
676 818 877
677 981 802
678 959 768
679 258 768
680 796 724
681 119 103
682 958 780
683 659 309
684 181 203
685 874 708
686 894 899
687 732 350
688 295 849
689 898 842
690 624 381
691 892 741
692 746 300
693 335 926
694 231 136
695 966 841
696 910 716
697 853 779
698 959 893
699 800 283
700 839 993
701 863 788
702 874 805
703 827 797
704 136 807
705 830 719
706 806 209
707 963 696
708 229 974
709 789 841
710 886 810
711 875 762
712 763 718
713 852 757
714 737 866
715 862 712
716 667 399
717 207 902
718 252 978
719 135 237
720 308 943
721 776 317
722 271 910
723 356 925
724 773 824
725 947 602
726 823 315
727 570 131
728 61 62
729 833 379
730 827 719
731 52 101
732 841 711
733 713 255
734 907 845
735 608 269
736 684 35
737 361 967
738 871 858
739 264 753
740 932 800
741 903 857
742 751 885
743 64 178
744 941 908
745 769 847
746 847 779
747 98 179
748 904 597
749 931 746
750 181 841
751 905 794
752 720 166
753 1000 903
754 951 722
755 805 243
756 244 869
757 707 281
758 915 854
759 851 601
760 746 297
761 992 731
762 864 201
763 775 388
764 877 877
765 851 678
766 820 904
767 44 30
768 871 740
769 622 948
770 732 204
771 850 899
772 885 799
773 274 938
774 967 914
775 178 992
776 129 97
777 814 836
778 233 962
779 847 409
780 39 279
781 760 285
782 963 944
783 764 749
784 835 828
785 899 710
786 700 183
787 2 53
788 156 160
789 815 861
790 868 814
791 61 239
792 802 823
793 863 924
794 312 683
795 80 983
796 322 951
797 848 746
798 817 752
799 816 765
800 132 885
801 0 296
802 544 344
803 84 115
804 732 699
805 202 948
806 876 743
807 895 863
808 855 741
809 909 770
810 225 216
811 698 282
812 62 45
813 326 960
814 63 74
815 916 952
816 733 350
817 843 720
818 741 389
819 15 700
820 755 393
821 784 775
822 284 984
823 906 914
824 735 247
825 699 915
826 876 761
827 687 312
828 703 304
829 828 841
830 640 831
831 799 827
832 940 721
833 856 774
834 119 158
835 641 38
836 783 686
837 811 194
838 871 802
839 886 733
840 938 870
841 50 152
842 852 386
843 663 797
844 784 231
845 947 808
846 199 66
847 874 731
848 24 135
849 950 736
850 792 362
851 738 343
852 260 934
853 739 293
854 302 925
855 920 680
856 727 777
857 737 663
858 878 872
859 944 251
860 792 789
861 765 844
862 777 747
863 656 600
864 924 279
865 84 103
866 63 130
867 988 787
868 531 320
869 67 892
870 932 891
871 299 878
872 70 70
873 699 636
874 820 800
875 139 176
876 63 163
877 660 210
878 976 725
879 806 848
880 664 357
881 887 761
882 907 786
883 254 765
884 888 615
885 758 801
886 897 690
887 831 711
888 850 832
889 764 223
890 963 762
891 888 719
892 364 975
893 801 237
894 818 899
895 896 832
896 784 445
897 66 147
898 797 805
899 961 977
900 776 865
901 833 398
902 845 852
903 783 782
904 906 809
905 528 179
906 936 778
907 850 711
908 968 849
909 343 963
910 26 377
911 305 869
912 999 797
913 824 742
914 794 779
915 34 17
916 884 859
917 58 297
918 3 78
919 867 798
920 825 537
921 875 801
922 750 924
923 859 772
924 928 885
925 805 790
926 728 309
927 47 96
928 846 891
929 665 274
930 42 148
931 867 826
932 76 950
933 912 823
934 836 730
935 722 262
936 876 816
937 36 129
938 812 315
939 835 705
940 126 210
941 986 649
942 100 21
943 582 337
944 64 163
945 903 926
946 833 725
947 714 839
948 842 793
949 763 751
950 778 664
951 881 774
952 874 366
953 801 210
954 736 780
955 883 819
DEMAND_SECTION
2 38
3 48
4 57
5 60
6 56
7 74
8 41
9 95
10 77
11 95
12 54
13 85
14 66
15 18
16 83
17 3
18 84
19 86
20 96
21 69
22 51
23 100
24 77
25 51
26 96
27 53
28 70
29 99
30 58
31 53
32 87
33 12
34 64
35 62
36 64
37 59
38 64
39 51
40 55
41 7
42 64
43 47
44 5
45 20
46 100
47 75
48 41
49 87
50 72
51 74
52 68
53 27
54 72
55 18
56 25
57 68
58 56
59 14
60 68
61 85
62 83
63 88
64 2
65 78
66 98
67 59
68 99
69 88
70 59
71 9
72 87
73 4
74 62
75 89
76 86
77 82
78 74
79 50
80 5
81 72
82 86
83 20
84 98
85 77
86 71
87 29
88 55
89 13
90 57
91 29
92 24
93 82
94 45
95 55
96 42
97 85
98 69
99 90
100 93
101 78
102 78
103 56
104 39
105 56
106 77
107 53
108 43
109 65
110 10
111 67
112 23
113 96
114 52
115 36
116 10
117 18
118 74
119 73
120 95
121 88
122 47
123 11
124 73
125 57
126 100
127 51
128 34
129 50
130 34
131 87
132 13
133 39
134 71
135 5
136 42
137 79
138 65
139 56
140 15
141 76
142 72
143 56
144 4
145 8
146 28
147 70
148 56
149 73
150 65
151 8
152 41
153 12
154 80
155 36
156 4
157 77
158 69
159 69
160 91
161 79
162 89
163 70
164 79
165 89
166 52
167 83
168 72
169 9
170 95
171 53
172 80
173 68
174 57
175 70
176 94
177 33
178 51
179 3
180 47
181 40
182 21
183 67
184 62
185 49
186 96
187 53
188 41
189 88
190 54
191 4
192 91
193 14
194 8
195 94
196 92
197 100
198 95
199 37
200 52
201 81
202 56
203 66
204 99
205 18
206 12
207 74
208 47
209 22
210 61
211 66
212 91
213 77
214 75
215 63
216 96
217 13
218 63
219 99
220 20
221 79
222 40
223 53
224 14
225 71
226 56
227 43
228 100
229 76
230 73
231 97
232 31
233 69
234 93
235 82
236 80
237 89
238 46
239 7
240 68
241 99
242 18
243 98
244 63
245 59
246 7
247 88
248 84
249 52
250 49
251 65
252 54
253 87
254 16
255 8
256 29
257 85
258 42
259 67
260 71
261 94
262 59
263 64
264 97
265 63
266 86
267 2
268 52
269 69
270 93
271 97
272 80
273 73
274 62
275 11
276 61
277 26
278 51
279 75
280 20
281 87
282 58
283 30
284 68
285 70
286 31
287 79
288 70
289 58
290 67
291 93
292 91
293 82
294 87
295 68
296 41
297 75
298 86
299 21
300 94
301 65
302 96
303 69
304 5
305 98
306 23
307 68
308 71
309 74
310 26
311 83
312 55
313 34
314 43
315 84
316 79
317 61
318 81
319 55
320 62
321 24
322 36
323 73
324 35
325 29
326 10
327 70
328 70
329 29
330 76
331 95
332 92
333 56
334 75
335 38
336 67
337 78
338 97
339 69
340 27
341 75
342 64
343 80
344 53
345 51
346 91
347 52
348 48
349 64
350 100
351 67
352 11
353 30
354 27
355 57
356 75
357 17
358 44
359 50
360 32
361 96
362 58
363 98
364 46
365 52
366 58
367 46
368 100
369 57
370 100
371 47
372 63
373 66
374 37
375 67
376 49
377 68
378 86
379 67
380 17
381 91
382 78
383 63
384 76
385 79
386 32
387 87
388 77
389 72
390 5
391 94
392 13
COVERAGE_SECTION
2 7 634 255 83 151 460 206 635 
3 7 853 53 129 760 692 364 926 
4 7 595 332 934 523 624 580 501 
5 7 627 218 497 888 521 784 237 
6 7 904 454 933 24 751 175 197 
7 7 176 866 375 262 484 127 897 
8 6 181 827 520 828 299 209 
9 7 119 27 742 579 183 457 922 
10 7 270 461 70 949 783 856 954 
11 7 557 792 831 777 236 508 616 
12 7 162 903 534 821 196 418 860 
13 7 886 318 51 300 139 637 427 
14 7 54 731 927 544 814 865 872 
15 7 605 844 586 889 953 893 313 
16 7 423 545 36 62 572 680 302 
17 7 659 880 564 425 515 299 683 
18 7 38 507 300 637 765 685 138 
19 7 915 767 366 787 542 226 812 
20 7 508 784 237 497 218 829 265 
21 7 928 771 186 350 561 496 164 
22 7 719 389 192 940 577 124 402 
23 7 481 207 378 748 759 252 884 
24 7 751 175 120 882 449 109 26 
25 7 377 494 323 658 799 598 643 
26 7 751 882 210 24 772 439 175 
27 7 922 457 9 742 119 328 77 
28 7 333 401 631 808 512 797 768 
29 7 384 274 603 593 798 913 198 
30 7 39 212 619 834 897 165 410 
31 7 305 342 632 647 540 90 58 
32 7 184 511 241 806 558 691 93 
33 7 191 256 601 717 592 242 321 
34 7 621 653 885 259 143 954 600 
35 7 633 846 404 362 292 60 560 
36 7 545 294 62 16 137 423 862 
37 7 870 213 596 924 126 546 744 
38 7 18 507 249 300 138 685 715 
39 7 212 30 944 876 747 897 743 
40 7 100 118 539 578 671 469 950 
41 7 773 177 612 854 852 522 720 
42 7 81 418 591 257 355 724 885 
43 7 779 559 123 193 842 901 952 
44 7 609 194 606 699 755 222 548 
45 7 185 822 455 441 584 348 640 
46 7 825 77 470 233 579 301 769 
47 7 281 268 72 285 918 495 613 
48 7 89 397 932 795 562 156 394 
49 7 50 948 167 411 549 121 336 
50 7 49 167 166 387 701 948 919 
51 7 318 886 13 368 637 369 855 
52 7 596 698 126 870 189 546 37 
53 7 3 364 129 853 760 935 56 
54 7 14 544 814 731 927 872 728 
55 7 180 238 729 153 437 296 376 
56 7 208 935 733 92 364 565 757 
57 6 710 955 936 702 221 772 
58 7 341 219 312 342 510 540 253 
59 7 854 566 720 326 522 41 693 
60 7 694 486 570 633 430 35 292 
61 7 383 663 626 555 902 738 662 
62 7 545 36 294 16 137 423 862 
63 7 535 477 278 712 228 674 862 
64 7 140 104 756 250 688 556 277 
65 7 466 836 485 665 674 187 111 
66 7 946 332 817 934 705 234 620 
67 7 396 163 491 689 741 734 807 
68 7 172 477 712 278 70 804 228 
69 7 714 183 85 119 260 276 742 
70 7 248 68 272 278 10 477 712 
71 7 254 451 735 472 877 452 360 
72 7 918 268 281 47 542 285 787 
73 7 224 869 394 800 519 562 205 
74 7 923 554 833 713 459 711 154 
75 7 847 419 317 768 806 839 168 
76 7 204 874 487 307 638 703 373 
77 7 825 470 9 579 27 922 46 
78 7 715 249 103 138 907 685 288 
79 7 136 752 286 353 133 786 770 
80 7 239 722 395 277 358 132 108 
81 7 591 42 418 898 236 257 724 
82 7 173 789 443 475 676 879 106 
83 7 460 634 2 206 255 151 635 
84 7 906 320 585 95 424 109 809 
85 7 947 69 183 714 579 119 429 
86 7 949 783 461 137 862 294 270 
87 7 644 108 852 132 612 635 191 
88 7 567 642 107 563 482 725 207 
89 7 397 48 562 156 932 145 795 
90 7 840 546 126 279 924 189 305 
91 7 763 896 296 901 193 440 820 
92 7 56 757 208 733 811 935 267 
93 7 241 881 32 184 691 511 558 
94 7 220 434 408 386 145 420 805 
95 7 585 749 320 84 114 382 203 
96 7 392 322 152 122 818 820 716 
97 7 195 815 271 269 315 201 247 
98 7 791 611 124 569 617 142 338 
99 7 436 292 846 35 362 404 261 
100 7 671 216 578 40 413 442 873 
101 7 537 541 235 351 223 435 450 
102 7 261 550 297 362 528 615 942 
103 7 78 234 715 907 288 817 249 
104 7 756 444 250 64 277 191 395 
105 7 448 410 776 619 681 788 633 
106 7 676 173 443 789 82 626 928 
107 7 725 88 941 563 567 622 654 
108 7 132 395 87 612 239 722 80 
109 7 449 120 882 175 295 24 751 
110 7 498 943 802 690 155 357 438 
111 7 485 372 589 421 680 674 65 
112 7 794 146 739 883 679 258 506 
113 7 845 219 312 266 740 253 670 
114 7 382 749 203 95 478 585 282 
115 7 505 781 325 179 608 400 359 
116 5 683 415 929 551 672 
117 7 258 488 319 587 794 492 229 
118 7 857 391 469 950 610 578 40 
119 7 742 183 714 9 69 276 260 
120 7 109 449 175 882 24 295 751 
121 7 336 411 948 746 49 549 171 
122 7 392 322 716 96 152 474 818 
123 7 952 842 153 779 729 901 43 
124 7 98 22 719 791 611 334 940 
125 7 913 501 624 414 603 572 934 
126 7 546 924 870 840 37 90 52 
127 7 866 176 7 262 165 573 731 
128 7 938 606 726 217 232 629 390 
129 7 543 3 53 853 926 757 364 
130 7 708 188 405 408 778 775 805 
131 7 284 157 738 636 407 916 931 
132 7 612 108 722 80 239 87 395 
133 7 786 136 286 752 79 630 499 
134 7 368 158 503 855 427 471 886 
135 7 504 536 556 679 883 739 140 
136 7 752 79 286 786 133 353 770 
137 7 862 294 36 86 783 545 949 
138 7 249 715 685 78 103 38 317 
139 7 785 300 427 685 891 339 13 
140 7 64 688 556 250 911 104 756 
141 7 533 143 856 954 231 34 10 
142 7 426 569 650 215 235 379 611 
143 7 141 856 533 954 34 231 621 
144 7 851 209 687 816 520 181 324 
145 7 434 94 220 386 397 352 408 
146 7 739 794 883 679 112 135 504 
147 7 243 402 422 453 124 22 343 
148 7 678 890 682 509 311 588 867 
149 7 291 225 765 637 409 18 369 
150 7 435 351 590 223 344 848 537 
151 7 2 255 634 83 460 635 778 
152 7 322 96 818 687 816 392 209 
153 7 729 842 55 296 901 238 779 
154 7 711 826 554 459 558 881 951 
155 7 498 357 690 110 716 943 122 
156 7 397 795 89 48 145 673 932 
157 7 131 738 916 284 432 67 407 
158 7 134 503 471 368 696 427 668 
159 7 809 93 881 439 449 882 241 
160 7 812 767 942 615 463 728 226 
161 7 289 438 345 802 868 498 110 
162 7 903 534 12 821 860 914 418 
163 7 491 689 734 67 396 599 741 
164 7 350 473 766 496 894 21 771 
165 7 573 803 865 866 127 399 30 
166 7 521 387 50 49 919 167 627 
167 7 701 50 200 49 697 919 549 
168 7 839 419 339 891 75 847 317 
169 7 824 770 733 313 208 565 499 
170 7 539 920 330 759 378 23 252 
171 7 643 198 121 336 25 377 411 
172 7 804 68 669 665 712 228 272 
173 7 82 676 789 443 106 475 388 
174 7 308 774 753 245 782 532 476 
175 7 24 120 751 882 109 295 449 
176 7 7 262 866 375 484 127 937 
177 7 640 441 584 773 41 455 822 
178 7 649 581 707 641 337 431 878 
179 7 608 400 115 781 406 232 505 
180 7 55 238 376 437 726 938 153 
181 7 8 520 209 144 687 816 827 
182 7 553 575 314 352 660 280 576 
183 7 714 69 119 85 276 742 260 
184 7 511 32 806 241 558 691 768 
185 7 822 45 455 348 584 441 640 
186 7 561 928 21 771 350 626 662 
187 7 836 466 447 65 950 485 469 
188 7 405 708 718 130 380 778 348 
189 7 840 52 546 126 293 90 698 
190 7 747 39 334 743 212 30 876 
191 7 33 395 108 87 132 239 277 
192 7 389 22 719 402 577 464 684 
193 7 779 901 91 43 896 296 842 
194 7 755 44 609 893 655 548 513 
195 7 815 97 269 271 315 247 945 
196 7 600 12 885 162 418 270 903 
197 7 895 599 689 407 491 933 163 
198 7 274 428 171 416 384 29 713 
199 7 750 205 531 704 458 403 660 
200 7 701 167 210 459 919 923 951 
201 7 271 899 782 315 532 815 195 
202 7 445 793 230 525 349 269 496 
203 7 382 114 749 849 483 832 214 
204 7 874 76 487 307 638 703 530 
205 7 750 199 458 704 660 800 531 
206 7 83 460 417 634 2 371 255 
207 7 748 23 481 563 884 654 378 
208 7 56 935 733 92 565 364 757 
209 7 144 520 687 816 851 181 8 
210 7 439 951 26 200 772 921 459 
211 7 937 262 656 361 495 731 927 
212 6 39 944 876 897 30 743 
213 7 37 596 870 744 924 126 52 
214 7 483 832 203 571 754 471 382 
215 7 379 426 529 142 569 338 316 
216 7 873 442 671 578 100 413 863 
217 7 629 699 606 222 359 232 128 
218 7 5 784 888 237 627 497 20 
219 7 312 845 58 113 647 253 341 
220 7 94 408 386 434 805 420 576 
221 7 790 936 931 636 955 702 57 
222 7 359 699 217 606 629 232 179 
223 7 590 435 351 930 848 101 537 
224 7 394 869 562 73 800 932 48 
225 7 409 149 273 765 291 547 447 
226 7 728 812 544 814 463 872 767 
227 7 693 465 566 796 723 813 502 
228 7 665 712 674 535 477 63 278 
229 7 863 319 309 442 216 873 413 
230 7 793 445 349 202 496 393 269 
231 7 141 143 533 259 856 34 954 
232 7 406 629 179 217 607 721 390 
233 7 301 769 46 594 470 825 77 
234 7 817 103 66 907 288 580 732 
235 7 650 316 537 101 351 344 426 
236 7 831 792 591 557 81 11 724 
237 7 784 20 218 829 265 508 888 
238 7 180 55 376 153 729 437 842 
239 7 80 395 722 277 358 132 108 
240 7 700 202 525 97 195 445 269 
241 7 93 32 184 881 511 558 691 
242 7 601 403 256 675 444 717 33 
243 7 147 453 422 402 433 343 917 
244 7 399 865 681 803 573 165 776 
245 7 480 774 698 293 753 308 174 
246 7 661 499 877 452 360 517 630 
247 7 945 823 269 349 815 445 686 
248 7 272 70 331 10 398 468 625 
249 7 138 715 78 685 103 38 907 
250 7 277 80 239 395 104 358 756 
251 7 568 282 696 471 478 524 785 
252 7 759 884 481 291 330 23 149 
253 7 740 295 312 58 845 219 175 
254 7 71 451 735 360 452 877 551 
255 7 2 634 151 460 635 83 206 
256 7 601 717 675 242 403 33 552 
257 7 355 885 42 418 600 621 81 
258 7 117 319 488 229 794 587 112 
259 7 653 34 947 231 621 143 429 
260 7 276 861 745 69 714 900 623 
261 7 102 297 550 942 615 362 528 
262 7 176 937 484 7 361 375 211 
263 7 604 843 398 492 514 231 587 
264 7 470 77 825 922 328 27 769 
265 7 829 388 237 20 475 777 784 
266 7 670 677 597 113 311 646 845 
267 7 652 517 666 811 92 757 415 
268 7 72 918 281 47 285 542 787 
269 7 945 247 349 445 823 815 195 
270 7 461 86 949 783 10 196 954 
271 7 201 315 782 815 195 899 476 
272 7 248 331 625 70 468 804 68 
273 7 409 447 225 187 547 950 469 
274 7 29 384 198 416 428 603 593 
275 7 805 417 321 648 206 371 592 
276 7 260 714 69 900 742 183 745 
277 7 250 80 239 395 722 358 108 
278 7 477 535 712 63 68 228 783 
279 7 290 363 924 90 303 126 546 
280 7 576 420 648 575 386 314 352 
281 7 72 47 918 268 285 542 495 
282 7 478 251 524 568 696 382 114 
283 7 582 306 376 726 938 238 128 
284 7 131 636 157 407 931 738 221 
285 7 47 268 927 544 72 281 731 
286 7 752 136 786 133 79 770 499 
287 7 530 497 703 373 487 638 874 
288 7 907 732 103 234 620 817 939 
289 7 161 345 438 802 868 498 110 
290 7 279 363 303 924 126 546 90 
291 7 149 225 252 409 765 330 637 
292 7 846 35 436 404 60 362 694 
293 7 667 480 698 189 52 245 908 
294 7 137 862 36 545 62 86 783 
295 7 120 109 175 740 449 24 424 
296 7 729 901 153 55 437 842 779 
297 7 615 550 942 102 528 160 261 
298 7 875 940 577 334 389 834 747 
299 6 425 827 683 17 8 659 
300 7 139 685 13 38 18 138 637 
301 7 769 233 594 46 470 825 77 
302 7 798 346 593 572 603 913 799 
303 7 290 686 614 279 37 363 924 
304 7 490 837 446 706 953 526 762 
305 7 31 632 342 540 647 90 341 
306 7 582 283 329 609 726 376 44 
307 7 76 204 925 487 874 638 651 
308 7 174 774 245 782 753 476 698 
309 7 863 413 442 229 216 319 671 
310 7 374 639 835 353 736 727 340 
311 7 867 677 670 148 682 912 266 
312 7 219 845 58 113 253 341 740 
313 7 889 586 605 770 15 169 824 
314 7 575 182 280 552 576 553 352 
315 7 271 476 815 782 195 201 247 
316 7 344 235 351 650 537 426 101 
317 7 847 419 412 75 168 768 339 
318 7 51 886 13 368 637 300 139 
319 7 229 863 309 258 442 492 117 
320 7 585 84 95 906 749 424 114 
321 7 371 592 417 275 206 635 460 
322 7 96 392 152 122 716 515 818 
323 7 377 25 658 494 598 643 799 
324 7 926 692 760 853 144 543 520 
325 7 505 115 781 608 179 400 359 
326 7 522 358 854 722 59 80 239 
327 7 356 532 899 201 782 271 174 
328 7 922 479 457 27 766 9 742 
329 7 864 306 582 283 859 618 548 
330 7 759 252 291 170 409 481 23 
331 7 468 625 272 248 398 514 669 
332 7 934 66 946 4 595 501 624 
333 7 28 401 512 631 808 768 806 
334 7 940 190 298 747 389 719 611 
335 7 952 123 559 618 43 842 864 
336 7 121 948 411 746 49 373 527 
337 7 707 581 571 754 668 467 832 
338 7 617 569 215 518 780 791 142 
339 7 891 168 419 839 317 139 75 
340 7 526 736 353 79 310 136 835 
341 7 58 510 540 342 347 933 632 
342 7 632 305 31 540 341 58 647 
343 7 433 917 780 617 124 98 791 
344 7 316 351 150 235 435 590 537 
345 7 289 161 438 498 802 110 155 
346 7 798 302 593 799 572 384 494 
347 7 510 599 540 734 758 341 491 
348 7 185 822 584 718 455 45 380 
349 7 445 230 269 945 393 247 793 
350 7 164 21 766 771 928 894 496 
351 7 435 590 150 223 537 101 344 
352 7 575 386 280 420 576 182 314 
353 7 79 136 752 133 286 639 786 
354 7 905 472 868 71 735 727 254 
355 7 257 885 621 42 418 600 724 
356 7 327 532 899 201 782 174 271 
357 7 690 155 716 880 498 659 110 
358 7 722 522 80 239 326 132 612 
359 7 222 217 699 629 606 115 179 
360 7 452 451 517 929 246 415 267 
361 7 937 656 484 375 848 262 930 
362 7 404 560 846 35 102 776 528 
363 7 279 290 741 807 758 303 90 
364 7 53 565 935 3 56 208 129 
365 7 764 381 858 456 432 538 662 
366 7 542 787 268 918 72 226 767 
367 7 932 795 48 89 156 394 869 
368 7 134 158 855 503 886 51 318 
369 7 51 318 637 13 886 855 368 
370 7 509 890 385 849 878 489 588 
371 7 417 206 635 321 460 83 255 
372 7 111 485 674 680 589 421 228 
373 7 527 530 638 703 487 336 948 
374 7 310 835 736 639 727 353 340 
375 7 484 930 361 450 7 176 262 
376 7 180 726 238 938 283 55 128 
377 7 25 323 658 494 799 598 643 
378 7 23 481 759 207 170 920 252 
379 7 529 215 426 316 142 235 344 
380 7 718 778 151 2 708 188 405 
381 7 764 365 858 456 538 662 432 
382 7 114 749 203 478 95 282 585 
383 7 61 663 555 626 738 902 662 
384 7 29 274 603 593 798 198 346 
385 7 489 878 761 431 370 641 509 
386 7 420 576 280 352 220 94 575 
387 6 166 919 838 50 521 702 
388 7 265 829 443 475 555 789 902 
389 7 577 719 22 940 192 298 334 
390 7 721 607 232 406 645 128 938 
391 7 610 857 118 578 669 873 804 
392 7 96 122 322 152 716 818 440 
393 7 614 686 538 349 381 764 303 
394 7 224 562 869 73 932 800 48 
395 7 239 80 108 277 722 132 191 
396 7 67 163 741 491 689 807 734 
397 7 89 48 145 156 434 562 795 
398 7 468 331 514 604 248 272 625 
399 7 865 244 803 573 14 165 54 
400 7 608 179 781 115 505 607 692 
401 7 28 631 808 797 333 713 523 
402 7 192 422 22 719 147 389 577 
403 7 242 675 601 256 717 660 444 
404 7 362 560 846 35 102 776 633 
405 7 188 708 718 380 130 778 348 
406 7 232 607 179 721 629 390 400 
407 7 895 284 197 689 955 67 491 
408 7 220 94 805 434 275 386 420 
409 7 273 225 447 149 291 547 765 
410 7 619 834 105 30 448 788 875 
411 7 746 549 121 697 336 49 833 
412 7 317 847 75 419 512 768 78 
413 7 442 216 671 100 863 309 873 
414 7 125 572 913 501 730 421 624 
415 5 929 666 116 652 267 
416 7 428 713 274 198 797 401 29 
417 7 206 371 460 83 275 321 634 
418 7 42 257 81 12 355 600 885 
419 7 75 317 847 168 839 339 412 
420 7 576 280 386 648 352 575 314 
421 7 589 111 680 372 414 485 730 
422 7 402 453 147 243 192 583 22 
423 7 16 545 680 36 62 572 414 
424 7 906 84 295 740 109 120 320 
425 7 299 17 659 564 683 880 515 
426 7 142 379 215 650 235 316 529 
427 7 785 139 696 471 568 886 134 
428 7 416 713 198 274 797 401 29 
429 7 947 85 259 231 653 843 69 
430 7 633 788 60 486 684 694 464 
431 7 641 878 385 761 489 178 707 
432 7 858 456 365 764 916 381 738 
433 7 343 917 780 617 801 147 518 
434 7 94 145 220 408 673 386 775 
435 7 590 223 351 150 101 537 848 
436 7 99 292 846 35 60 694 404 
437 6 850 55 180 296 729 153 
438 7 802 161 868 110 498 289 943 
439 7 951 210 881 154 459 26 711 
440 7 820 818 896 763 91 96 392 
441 7 640 455 177 584 822 185 45 
442 7 413 216 863 671 100 873 309 
443 7 789 82 173 475 388 106 676 
444 7 756 104 242 601 191 33 256 
445 7 230 349 793 202 269 945 247 
446 6 304 762 837 490 513 706 
447 7 273 187 409 950 469 547 836 
448 7 105 633 410 788 619 776 681 
449 7 109 120 882 175 24 295 751 
450 6 930 841 541 375 484 7 
451 7 360 452 254 929 517 71 246 
452 7 360 451 517 246 929 661 267 
453 7 422 243 147 402 192 22 433 
454 7 904 6 710 933 57 751 24 
455 7 822 441 185 584 640 45 177 
456 7 858 432 662 764 365 381 738 
457 7 27 922 742 9 119 328 276 
458 7 660 553 182 205 403 675 750 
459 7 554 154 951 711 826 923 74 
460 7 83 634 2 206 255 151 635 
461 7 270 949 86 783 10 862 137 
462 7 887 939 620 732 705 730 288 
463 7 872 728 814 812 544 54 226 
464 7 684 577 192 583 389 810 298 
465 6 723 693 227 502 566 796 
466 7 65 836 485 187 665 674 111 
467 7 668 503 337 855 134 158 581 
468 7 331 625 514 272 398 657 669 
469 7 950 118 836 187 447 466 65 
470 7 77 825 46 9 579 27 922 
471 7 696 158 568 427 785 251 134 
472 7 71 254 735 905 354 672 451 
473 7 164 525 496 350 793 766 21 
474 7 392 440 122 96 896 322 628 
475 7 879 789 443 82 388 777 265 
476 7 744 315 774 782 213 596 271 
477 7 278 712 535 63 228 68 665 
478 7 282 382 524 114 251 203 749 
479 7 328 473 525 164 700 766 894 
480 7 293 245 667 698 753 52 189 
481 7 23 884 252 748 207 759 378 
482 7 642 567 88 563 207 378 23 
483 7 832 214 571 754 203 849 382 
484 7 375 361 937 262 930 176 7 
485 7 111 372 674 65 466 589 665 
486 7 570 694 60 430 810 633 684 
487 7 76 638 703 874 204 373 527 
488 4 117 587 258 492 
489 7 761 385 878 431 370 641 588 
490 7 304 837 586 605 706 953 15 
491 7 163 689 734 67 599 396 895 
492 7 587 263 514 398 657 604 468 
493 6 908 695 500 647 667 31 
494 7 25 658 799 377 323 598 346 
495 7 613 656 848 211 937 47 361 
496 7 793 164 771 473 350 230 21 
497 7 287 784 5 20 218 508 627 
498 7 110 155 357 690 438 802 943 
499 7 246 661 877 786 630 169 133 
500 6 695 493 908 647 667 31 
501 7 624 125 934 332 913 4 595 
502 5 693 465 723 227 566 
503 7 158 134 668 368 467 855 471 
504 7 135 556 536 679 883 739 140 
505 7 781 115 325 608 179 400 760 
506 7 536 135 556 739 679 504 883 
507 7 38 18 765 288 907 715 249 
508 7 20 784 497 237 777 829 11 
509 7 890 370 678 148 588 682 849 
510 7 347 341 540 599 933 58 734 
511 7 184 32 806 558 241 768 75 
512 7 768 806 333 28 75 847 631 
513 7 655 548 762 194 609 44 706 
514 7 468 331 398 657 625 272 669 
515 7 564 880 17 659 425 299 181 
516 7 900 276 82 745 260 616 173 
517 7 267 652 360 452 929 92 666 
518 7 801 780 338 617 569 917 215 
519 7 704 73 205 531 199 800 869 
520 7 209 181 144 8 851 687 816 
521 7 166 627 387 5 50 790 287 
522 7 326 358 722 80 612 854 239 
523 7 580 595 4 808 631 797 332 
524 7 282 478 691 251 93 114 382 
525 7 473 202 496 164 793 230 445 
526 7 340 304 490 353 79 752 136 
527 7 373 638 703 487 530 643 121 
528 7 550 615 776 297 560 681 244 
529 7 379 215 426 316 344 142 235 
530 7 373 703 638 287 487 527 948 
531 7 199 704 750 205 519 458 883 
532 7 356 782 899 174 201 327 308 
533 7 141 856 143 954 231 10 34 
534 7 162 903 860 12 821 914 418 
535 7 63 477 712 278 228 674 665 
536 7 135 504 556 679 883 506 739 
537 7 101 235 351 223 541 435 590 
538 7 381 365 764 393 614 858 456 
539 7 170 40 100 628 920 671 330 
540 7 632 347 510 342 341 305 599 
541 6 841 450 930 101 876 944 
542 7 787 366 918 72 268 281 47 
543 6 926 129 828 3 853 53 
544 7 814 54 728 14 872 927 226 
545 7 36 16 62 423 294 137 862 
546 7 126 924 840 870 90 37 52 
547 7 462 939 887 187 765 225 620 
548 7 655 513 609 194 44 762 755 
549 7 697 746 411 833 49 121 336 
550 7 297 615 528 102 942 160 261 
551 7 672 116 735 683 929 415 451 
552 7 717 314 648 256 592 280 675 
553 7 182 575 314 352 660 280 458 
554 7 459 154 711 826 74 923 951 
555 7 902 61 626 383 388 265 663 
556 7 135 504 536 140 688 64 679 
557 7 792 11 831 236 777 898 508 
558 7 826 184 511 711 154 241 32 
559 7 43 123 335 779 482 842 952 
560 7 776 404 362 681 528 105 448 
561 7 186 928 771 21 662 663 626 
562 7 394 224 89 48 397 800 932 
563 7 725 207 748 654 622 642 23 
564 7 880 515 17 659 425 299 8 
565 7 935 824 364 208 56 733 53 
566 7 59 720 854 227 693 796 502 
567 7 88 642 482 107 563 725 207 
568 7 251 696 471 785 282 427 891 
569 7 142 338 617 791 215 426 611 
570 7 486 694 60 430 810 633 35 
571 7 754 832 483 849 214 337 203 
572 7 302 593 798 913 125 414 346 
573 7 803 165 865 399 127 244 866 
574 7 623 861 745 724 709 260 900 
575 7 314 352 182 280 576 420 553 
576 7 280 420 648 386 575 352 314 
577 7 389 940 298 719 464 684 192 
578 7 391 610 873 857 118 216 671 
579 7 9 85 119 183 714 825 69 
580 7 523 595 4 808 631 234 797 
581 7 707 178 337 649 467 668 641 
582 7 283 306 376 726 329 238 609 
583 7 810 464 684 192 402 577 389 
584 7 455 822 640 441 177 185 348 
585 7 320 95 84 749 114 382 906 
586 7 605 15 889 313 844 953 706 
587 7 492 263 514 843 398 604 830 
588 7 509 148 370 890 489 867 761 
589 7 421 111 680 372 485 414 423 
590 7 435 223 351 150 848 101 537 
591 7 81 42 236 724 898 418 257 
592 7 321 648 552 275 717 371 33 
593 7 798 302 603 346 913 29 384 
594 7 769 301 233 46 470 264 825 
595 7 4 332 523 934 580 624 501 
596 7 213 870 37 52 744 126 924 
597 7 670 677 646 266 912 867 311 
598 7 658 323 377 494 25 664 925 
599 7 347 734 491 510 163 689 197 
600 7 885 196 621 257 355 418 12 
601 7 256 242 675 717 403 33 552 
602 7 910 801 433 343 917 518 780 
603 7 29 593 913 384 125 798 274 
604 7 398 263 533 231 141 248 843 
605 7 586 15 889 844 313 953 706 
606 7 699 217 222 629 128 359 232 
607 7 721 406 232 390 400 608 179 
608 7 400 179 781 115 505 760 692 
609 7 44 194 548 655 755 513 606 
610 7 391 857 578 669 118 873 804 
611 7 98 791 569 142 190 334 124 
612 7 132 722 108 852 358 80 87 
613 7 495 848 656 937 211 361 47 
614 7 686 393 538 303 823 365 381 
615 7 297 550 942 528 160 463 812 
616 7 709 879 831 475 11 777 792 
617 7 338 569 791 780 98 215 518 
618 7 864 859 329 335 306 582 283 
619 7 410 834 30 105 875 39 448 
620 7 732 887 939 462 705 66 288 
621 7 885 34 355 600 257 196 418 
622 7 654 725 748 884 563 207 369 
623 7 574 861 745 724 260 709 276 
624 7 501 4 125 934 332 595 913 
625 7 331 468 272 669 804 514 248 
626 7 61 555 663 383 902 106 561 
627 7 5 521 218 888 497 166 784 
628 7 920 539 170 896 474 100 671 
629 7 217 232 699 222 359 606 406 
630 7 877 661 499 246 133 786 452 
631 7 808 28 401 333 797 523 580 
632 7 342 305 540 31 341 347 510 
633 7 35 448 430 105 60 788 694 
634 7 2 83 255 460 151 206 635 
635 7 255 634 2 371 460 83 151 
636 7 931 284 221 131 790 936 407 
637 7 18 13 300 318 51 886 38 
638 7 703 487 373 527 530 76 874 
639 7 630 310 133 353 877 79 136 
640 7 441 177 584 455 822 41 185 
641 7 431 761 878 385 178 489 649 
642 7 482 563 88 567 207 748 378 
643 7 171 323 527 377 25 121 336 
644 7 87 852 108 132 612 635 255 
645 6 721 390 607 406 850 232 
646 6 597 670 677 912 266 500 
647 7 342 31 695 305 500 219 493 
648 7 280 576 420 552 275 592 314 
649 7 178 581 707 641 941 431 337 
650 7 235 537 101 426 316 142 351 
651 7 898 925 307 76 204 860 874 
652 7 267 666 517 811 92 757 415 
653 7 259 34 621 947 355 885 257 
654 7 622 748 884 725 207 481 563 
655 7 548 513 609 194 44 762 755 
656 7 937 361 848 484 211 262 375 
657 7 514 468 625 669 331 610 873 
658 7 494 377 25 323 598 799 664 
659 7 17 880 564 425 515 299 683 
660 7 458 182 553 675 314 403 575 
661 7 877 246 499 630 452 360 133 
662 7 456 381 764 858 663 365 432 
663 7 61 383 662 626 738 456 432 
664 7 914 598 658 494 821 799 62 
665 7 228 674 712 65 466 485 535 
666 5 811 652 267 757 92 
667 7 293 480 908 493 189 500 695 
668 7 467 503 337 158 134 855 707 
669 7 625 804 610 857 172 331 391 
670 7 677 266 597 311 867 912 646 
671 7 100 216 578 413 40 442 873 
672 7 551 735 116 683 254 943 451 
673 7 775 434 94 145 408 220 130 
674 7 228 665 372 485 712 111 535 
675 7 256 601 403 717 242 552 660 
676 7 173 106 82 443 789 894 475 
677 7 670 597 266 311 867 912 646 
678 7 890 148 682 509 320 370 906 
679 7 883 739 135 504 536 556 506 
680 7 423 372 589 16 421 111 545 
681 7 776 244 399 560 105 528 865 
682 7 678 148 890 311 906 424 509 
683 5 116 299 425 827 415 
684 7 464 577 192 389 430 583 810 
685 7 138 249 300 715 78 139 38 
686 7 614 393 303 538 823 349 365 
687 6 816 851 144 209 520 181 
688 6 140 911 871 64 556 250 
689 7 491 163 67 734 396 895 599 
690 7 357 659 716 880 17 155 110 
691 7 32 839 184 241 511 93 168 
692 7 760 853 3 324 400 608 926 
693 7 227 465 502 566 723 59 796 
694 7 60 486 570 430 633 35 292 
695 7 500 493 908 647 31 667 305 
696 7 471 568 251 785 427 158 282 
697 7 549 746 833 411 923 49 167 
698 7 52 245 293 596 774 480 744 
699 7 606 217 222 629 359 128 232 
700 7 240 479 525 202 473 793 445 
701 7 167 200 50 919 49 697 387 
702 6 838 921 919 790 936 387 
703 7 638 487 530 373 527 76 874 
704 7 531 519 205 199 750 73 458 
705 7 730 946 66 887 620 332 462 
706 7 953 837 15 893 844 605 755 
707 7 581 337 178 467 668 649 571 
708 7 188 778 405 130 380 718 2 
709 7 616 831 879 236 745 11 574 
710 6 57 955 772 936 702 921 
711 7 826 154 554 558 459 881 951 
712 7 228 477 535 278 665 63 674 
713 7 428 416 401 74 797 28 333 
714 7 69 183 119 276 260 85 742 
715 7 78 249 138 103 907 685 288 
716 7 122 322 392 357 880 564 96 
717 7 256 601 552 675 33 242 592 
718 7 380 405 188 348 584 708 778 
719 7 22 389 940 577 192 334 124 
720 7 566 796 59 854 813 41 227 
721 7 607 390 406 232 645 400 179 
722 7 80 239 358 132 612 395 108 
723 4 465 693 502 227 
724 7 574 591 42 623 236 81 257 
725 7 622 563 654 748 107 207 884 
726 7 938 376 128 180 283 606 390 
727 7 905 639 374 310 472 71 630 
728 7 463 814 872 226 544 812 54 
729 7 153 296 55 901 842 238 437 
730 7 705 946 887 66 620 462 332 
731 7 927 14 54 211 127 544 285 
732 7 620 288 939 817 907 887 234 
733 7 208 56 935 92 565 824 364 
734 7 163 491 599 689 347 758 67 
735 7 672 551 254 71 451 116 360 
736 7 835 340 374 310 353 526 79 
737 6 892 909 813 227 723 796 
738 7 157 432 131 916 383 456 662 
739 7 679 883 135 536 504 556 506 
740 7 253 295 424 845 312 175 109 
741 7 396 807 67 163 758 734 363 
742 7 119 276 183 9 714 457 260 
743 6 876 944 212 541 39 190 
744 7 213 596 37 476 870 52 698 
745 7 861 574 623 260 900 709 276 
746 7 411 549 697 121 336 833 49 
747 7 190 39 30 212 834 334 743 
748 7 207 654 481 884 23 563 622 
749 7 114 382 203 95 585 320 478 
750 7 199 205 458 403 660 531 242 
751 7 24 175 882 120 26 449 109 
752 7 286 136 79 786 133 770 353 
753 7 245 174 480 308 774 293 698 
754 7 571 832 483 849 214 337 203 
755 7 893 194 844 44 953 15 706 
756 7 104 444 64 250 277 191 242 
757 6 811 92 666 56 129 208 
758 7 734 741 347 163 363 540 599 
759 7 330 252 481 23 170 378 884 
760 7 692 853 3 400 608 781 324 
761 7 489 385 431 878 641 370 588 
762 7 513 655 548 837 194 706 953 
763 5 820 850 91 818 437 
764 7 381 365 858 456 432 662 538 
765 7 507 18 38 225 149 637 547 
766 7 894 350 164 21 676 473 928 
767 7 915 812 226 160 366 728 19 
768 7 512 806 75 847 333 511 28 
769 7 301 233 594 46 470 825 77 
770 7 169 313 286 889 586 786 752 
771 7 21 928 186 561 350 496 164 
772 6 921 710 210 702 838 26 
773 7 41 852 612 177 132 644 87 
774 7 308 245 476 698 174 744 782 
775 7 673 434 130 408 94 220 145 
776 7 681 560 244 105 528 448 399 
777 7 11 879 475 829 508 20 265 
778 7 2 83 634 460 708 151 206 
779 7 901 842 193 153 729 296 43 
780 7 917 617 518 338 343 433 801 
781 7 505 115 608 400 179 325 760 
782 7 201 271 476 308 315 774 174 
783 7 949 86 461 862 137 294 270 
784 7 20 237 218 508 497 5 829 
785 7 427 139 568 696 891 471 251 
786 7 133 286 136 752 499 79 770 
787 7 542 366 918 72 268 281 47 
788 7 875 448 105 834 298 410 619 
789 7 82 443 173 475 676 879 388 
790 6 221 936 702 838 931 387 
791 7 98 611 569 617 338 142 124 
792 7 557 831 11 236 777 898 591 
793 7 230 445 496 202 349 525 473 
794 7 112 146 739 506 883 679 536 
795 7 932 48 156 367 89 397 562 
796 7 813 720 227 566 909 693 59 
797 7 401 808 631 416 523 28 428 
798 7 302 346 593 572 603 29 384 
799 7 494 25 658 377 346 323 798 
800 7 553 458 182 562 224 73 660 
801 7 518 780 338 917 617 343 433 
802 7 868 943 110 438 498 672 690 
803 7 573 165 865 399 244 127 866 
804 7 172 68 669 272 625 70 331 
805 7 275 408 417 220 648 206 321 
806 7 511 768 184 512 32 75 558 
807 7 741 396 916 67 363 432 163 
808 7 631 401 28 523 580 797 333 
809 7 159 449 882 109 120 84 93 
810 7 583 464 684 486 430 192 570 
811 5 666 757 92 652 267 
812 7 160 728 226 463 767 872 814 
813 7 796 909 227 720 566 693 737 
814 7 872 544 728 54 463 14 226 
815 7 195 97 315 269 271 247 945 
816 6 687 851 144 209 520 181 
817 7 234 66 732 288 332 620 907 
818 5 820 96 152 763 440 
819 7 519 704 73 531 869 205 199 
820 5 818 763 440 96 152 
821 7 903 162 534 914 12 664 860 
822 7 455 185 584 45 441 640 348 
823 7 247 945 686 349 614 269 303 
824 7 565 935 733 169 208 56 364 
825 7 77 470 579 9 46 27 119 
826 7 711 154 558 554 881 459 184 
827 4 8 828 299 425 
828 5 543 827 8 129 757 
829 7 265 388 237 20 777 784 508 
830 7 843 429 263 231 46 947 85 
831 7 792 11 557 236 616 709 777 
832 7 483 214 571 754 203 849 337 
833 7 923 697 549 74 746 411 167 
834 7 619 410 30 875 747 39 298 
835 7 374 736 310 340 353 639 727 
836 7 466 65 187 485 950 665 111 
837 7 706 953 15 605 490 586 893 
838 6 702 921 919 387 790 772 
839 7 168 75 419 691 847 339 32 
840 7 90 546 126 189 924 52 870 
841 6 450 541 930 375 7 484 
842 7 153 123 729 901 779 952 296 
843 7 263 231 830 604 429 141 533 
844 7 15 893 605 889 755 586 953 
845 7 113 312 219 740 253 58 266 
846 7 292 404 362 35 560 102 633 
847 7 75 317 419 412 768 512 168 
848 7 656 361 937 223 590 484 613 
849 7 203 754 571 832 483 749 114 
850 5 437 763 645 55 180 
851 6 144 687 816 209 520 324 
852 7 644 87 612 773 132 108 41 
853 7 3 760 692 53 129 926 364 
854 7 59 566 326 720 522 41 358 
855 7 368 134 503 467 51 668 158 
856 7 141 143 533 954 10 34 270 
857 7 391 610 118 669 578 172 804 
858 7 365 456 432 764 381 662 916 
859 6 864 618 329 513 306 548 
860 7 534 914 903 162 925 651 821 
861 7 623 745 574 260 724 276 709 
862 7 137 294 36 86 783 545 949 
863 7 442 229 216 413 309 873 671 
864 7 329 859 618 306 582 283 548 
865 7 399 803 573 244 165 14 54 
866 7 127 7 176 262 897 165 375 
867 7 311 912 677 670 597 148 588 
868 7 802 943 438 110 672 498 735 
869 7 224 394 73 562 932 800 48 
870 7 37 924 213 596 126 546 52 
871 6 911 688 250 326 522 358 
872 7 463 814 728 544 54 14 226 
873 7 216 578 610 391 657 671 857 
874 7 204 76 487 638 703 307 530 
875 7 298 788 834 619 940 577 410 
876 6 944 212 743 541 897 841 
877 7 661 630 246 499 452 360 451 
878 7 385 431 489 761 641 370 754 
879 7 475 616 777 789 82 709 11 
880 7 659 564 17 515 425 299 716 
881 7 93 241 154 558 826 711 32 
882 7 449 120 24 751 109 175 26 
883 7 679 739 135 504 536 556 506 
884 7 481 252 748 654 23 207 759 
885 7 355 600 621 257 418 196 42 
886 7 13 318 51 368 427 139 300 
887 7 462 620 939 705 730 732 66 
888 7 218 5 237 627 784 636 931 
889 7 313 586 15 605 844 770 824 
890 7 509 678 148 370 682 320 588 
891 7 339 168 419 139 785 839 251 
892 6 737 909 813 227 796 723 
893 7 755 844 194 15 953 706 605 
894 7 766 350 164 676 106 21 173 
895 7 197 407 689 491 599 163 67 
896 7 91 440 193 763 820 901 296 
897 6 212 7 876 944 841 866 
898 7 651 81 591 860 925 236 557 
899 7 201 271 532 782 356 327 315 
900 7 516 745 276 260 861 709 574 
901 7 296 779 729 153 842 55 193 
902 7 555 61 383 626 388 265 237 
903 7 162 534 821 12 860 914 418 
904 7 6 454 24 751 933 175 710 
905 7 354 472 727 71 254 639 735 
906 7 424 84 320 585 109 295 95 
907 7 288 103 732 234 78 817 715 
908 7 493 695 500 667 647 31 189 
909 7 813 737 796 892 227 465 693 
910 7 602 433 343 801 917 780 518 
911 6 871 688 140 250 64 326 
912 7 867 597 677 670 311 646 266 
913 7 125 603 501 593 572 624 798 
914 7 664 860 534 821 903 162 598 
915 7 767 19 366 160 812 226 787 
916 7 432 157 807 738 396 858 67 
917 7 343 433 780 617 518 338 791 
918 7 72 268 281 47 542 787 285 
919 6 838 387 921 702 701 167 
920 7 170 378 628 539 759 23 330 
921 6 702 838 919 772 387 710 
922 7 27 457 328 9 742 119 77 
923 7 833 74 697 459 549 554 746 
924 7 126 870 546 37 213 290 596 
925 7 307 651 598 860 76 914 204 
926 7 543 324 129 853 692 3 760 
927 7 731 14 54 285 544 211 814 
928 7 21 186 771 561 350 106 626 
929 6 415 116 360 267 652 517 
930 7 450 375 841 484 541 223 361 
931 7 636 221 790 936 284 955 888 
932 7 48 795 89 367 562 394 397 
933 7 510 6 197 599 904 341 347 
934 7 332 946 4 66 595 501 624 
935 7 56 208 565 733 364 92 824 
936 6 221 790 955 57 702 710 
937 7 361 656 262 484 848 211 375 
938 7 128 726 376 390 606 232 217 
939 7 462 620 887 732 288 705 730 
940 7 334 298 389 577 719 22 875 
941 7 649 178 581 707 107 641 725 
942 7 297 615 550 160 812 102 261 
943 7 110 802 672 868 690 551 498 
944 6 876 212 743 541 897 841 
945 7 247 269 823 349 445 686 815 
946 7 66 332 934 705 730 501 817 
947 7 85 429 259 653 69 714 183 
948 7 336 121 49 373 530 50 411 
949 7 783 86 461 137 862 270 294 
950 7 469 187 836 447 118 466 65 
951 7 439 459 154 210 554 711 826 
952 7 123 842 153 238 729 55 779 
953 7 706 837 15 605 844 893 586 
954 7 856 143 141 533 34 270 196 
955 6 57 936 710 221 407 790 
DEPOT_SECTION
   1
   -1
EOF
