NAME :  X-n936-kX-w93-c7.cctp
COMMENT : 	Adapted by Maziero, Usberti and Cavellucci from the Uchoa, Pecin, Pessoa, Poggi, Subramanian, and Vidal (2013)
TYPE :  CCTP
DIMENSION :    537
EDGE_WEIGHT_TYPE : 	EUC_2D	
CAPACITY : 	138
VERTICES_WITHIN_COVERAGE :  7
VERTICES_WITH_DEMAND : 	93
NODE_COORD_SECTION
1 500 500
2 971 544
3 564 976
4 266 4
5 395 95
6 316 877
7 963 89
8 496 96
9 274 493
10 516 598
11 338 849
12 58 395
13 923 411
14 670 912
15 576 101
16 902 552
17 888 709
18 703 539
19 10 341
20 55 984
21 420 132
22 870 218
23 933 196
24 123 372
25 973 824
26 253 201
27 84 941
28 792 164
29 702 811
30 263 756
31 161 986
32 322 75
33 969 514
34 140 665
35 313 386
36 53 583
37 836 244
38 450 730
39 642 334
40 907 431
41 570 705
42 587 264
43 703 666
44 877 132
45 138 487
46 275 598
47 2 354
48 538 460
49 716 573
50 65 579
51 505 17
52 544 958
53 175 838
54 838 67
55 122 410
56 126 430
57 598 544
58 299 442
59 224 930
60 593 453
61 764 848
62 485 95
63 130 114
64 832 863
65 659 293
66 259 936
67 615 141
68 808 263
69 970 317
70 815 888
71 405 330
72 64 525
73 588 746
74 170 392
75 681 640
76 223 283
77 109 297
78 675 904
79 576 171
80 484 439
81 329 79
82 504 393
83 676 664
84 124 658
85 749 89
86 162 848
87 521 0
88 1 873
89 72 718
90 983 770
91 104 702
92 47 781
93 706 244
94 626 678
95 45 562
96 524 21
97 348 100
98 84 93
99 118 76
100 990 739
101 980 477
102 267 231
103 45 336
104 390 140
105 93 808
106 554 435
107 973 506
108 778 252
109 935 755
110 20 901
111 874 686
112 212 933
113 313 230
114 620 990
115 876 34
116 481 60
117 158 494
118 304 611
119 606 344
120 557 242
121 881 199
122 942 308
123 567 429
124 80 592
125 917 557
126 661 630
127 969 401
128 820 144
129 24 571
130 693 323
131 487 344
132 497 48
133 803 6
134 679 303
135 775 271
136 678 210
137 310 98
138 60 386
139 211 11
140 27 576
141 239 512
142 480 11
143 590 578
144 288 823
145 164 489
146 900 201
147 738 109
148 893 40
149 212 305
150 323 70
151 363 67
152 9 393
153 128 947
154 94 951
155 271 437
156 33 583
157 899 242
158 773 188
159 860 280
160 149 839
161 773 271
162 863 14
163 216 323
164 529 712
165 538 620
166 332 451
167 607 153
168 434 192
169 138 825
170 627 320
171 883 457
172 383 339
173 924 152
174 340 43
175 679 316
176 11 913
177 867 257
178 728 74
179 898 404
180 745 715
181 69 902
182 660 810
183 521 591
184 713 540
185 354 109
186 596 71
187 280 435
188 494 590
189 834 195
190 997 212
191 175 81
192 852 555
193 84 429
194 611 223
195 731 863
196 40 563
197 661 662
198 678 775
199 415 366
200 134 657
201 542 714
202 154 654
203 960 5
204 935 115
205 621 926
206 976 124
207 892 594
208 963 118
209 296 46
210 623 94
211 195 838
212 718 784
213 762 832
214 753 35
215 202 846
216 916 395
217 830 95
218 24 750
219 976 279
220 343 344
221 301 254
222 578 746
223 571 676
224 744 582
225 64 936
226 248 717
227 176 708
228 479 758
229 82 818
230 922 369
231 684 955
232 536 97
233 491 117
234 80 279
235 715 860
236 463 711
237 196 283
238 728 198
239 577 759
240 251 30
241 746 628
242 334 850
243 969 149
244 610 463
245 439 747
246 13 834
247 946 578
248 491 438
249 558 441
250 517 36
251 120 476
252 787 273
253 849 702
254 607 304
255 603 139
256 55 419
257 108 249
258 971 558
259 983 839
260 726 276
261 0 885
262 680 566
263 90 614
264 666 531
265 638 898
266 358 855
267 501 939
268 809 837
269 184 431
270 577 166
271 249 631
272 37 855
273 225 839
274 257 910
275 163 960
276 591 477
277 638 385
278 801 917
279 980 748
280 629 565
281 171 816
282 527 405
283 520 113
284 959 231
285 927 484
286 638 118
287 535 683
288 30 800
289 496 80
290 243 194
291 630 363
292 845 547
293 162 843
294 50 364
295 555 775
296 171 505
297 869 873
298 15 809
299 795 196
300 682 724
301 569 427
302 651 692
303 560 666
304 157 438
305 229 200
306 711 514
307 173 688
308 548 987
309 961 861
310 634 81
311 876 764
312 536 102
313 133 535
314 784 861
315 602 148
316 134 487
317 821 842
318 512 487
319 278 643
320 79 371
321 126 655
322 74 924
323 350 839
324 9 780
325 66 944
326 74 990
327 707 856
328 447 745
329 254 702
330 873 665
331 101 533
332 456 728
333 806 226
334 761 118
335 263 505
336 480 109
337 269 982
338 134 993
339 905 394
340 234 264
341 620 156
342 718 798
343 64 437
344 760 816
345 87 637
346 834 898
347 599 142
348 76 267
349 648 838
350 170 474
351 847 75
352 991 131
353 987 776
354 638 775
355 329 406
356 293 468
357 875 548
358 549 509
359 357 841
360 191 919
361 381 271
362 133 135
363 467 749
364 549 358
365 412 751
366 982 733
367 860 42
368 78 903
369 122 157
370 527 51
371 966 7
372 669 263
373 334 63
374 665 637
375 632 101
376 807 906
377 251 470
378 484 123
379 98 682
380 959 30
381 262 911
382 871 459
383 348 353
384 946 531
385 291 752
386 874 752
387 566 966
388 558 532
389 228 473
390 177 434
391 937 557
392 170 92
393 689 524
394 617 651
395 609 240
396 773 84
397 857 102
398 13 695
399 905 706
400 555 993
401 112 144
402 826 813
403 277 759
404 286 363
405 517 641
406 39 562
407 722 245
408 100 949
409 98 751
410 508 959
411 247 144
412 101 476
413 46 938
414 693 941
415 868 188
416 631 311
417 938 403
418 317 863
419 967 345
420 923 234
421 609 241
422 13 883
423 155 385
424 463 764
425 698 572
426 694 529
427 893 883
428 608 537
429 876 170
430 293 93
431 620 941
432 217 857
433 971 225
434 607 215
435 566 671
436 68 960
437 569 563
438 819 29
439 91 351
440 486 578
441 637 370
442 743 89
443 93 635
444 738 183
445 78 389
446 537 567
447 81 414
448 721 77
449 512 627
450 448 179
451 725 542
452 663 226
453 867 142
454 485 465
455 913 100
456 880 698
457 485 582
458 205 23
459 77 83
460 990 797
461 261 397
462 706 222
463 136 687
464 92 894
465 878 112
466 10 324
467 781 904
468 995 534
469 915 464
470 679 632
471 338 854
472 400 176
473 536 577
474 535 103
475 94 338
476 367 345
477 215 838
478 538 736
479 546 974
480 639 364
481 888 908
482 12 388
483 965 418
484 130 464
485 985 43
486 36 437
487 449 675
488 980 804
489 901 710
490 582 253
491 813 96
492 295 739
493 699 715
494 990 890
495 274 884
496 677 618
497 270 576
498 812 834
499 309 509
500 788 858
501 580 301
502 712 540
503 48 732
504 490 483
505 30 346
506 841 214
507 962 807
508 990 333
509 149 678
510 373 62
511 543 908
512 988 913
513 575 465
514 600 467
515 40 530
516 643 379
517 884 415
518 466 117
519 547 294
520 380 304
521 299 858
522 730 158
523 674 908
524 309 487
525 739 812
526 546 173
527 293 376
528 670 846
529 87 244
530 559 950
531 716 790
532 842 77
533 450 327
534 179 362
535 824 185
536 888 583
537 208 385
DEMAND_SECTION
2 88
3 98
4 94
5 89
6 83
7 65
8 85
9 66
10 89
11 80
12 58
13 54
14 75
15 60
16 77
17 69
18 79
19 99
20 86
21 63
22 84
23 92
24 87
25 54
26 93
27 58
28 62
29 98
30 50
31 71
32 55
33 61
34 76
35 76
36 88
37 51
38 78
39 71
40 90
41 90
42 87
43 80
44 74
45 83
46 79
47 77
48 58
49 53
50 99
51 62
52 95
53 61
54 84
55 86
56 91
57 79
58 93
59 76
60 88
61 68
62 80
63 59
64 82
65 53
66 67
67 90
68 51
69 99
70 72
71 70
72 85
73 80
74 80
75 81
76 100
77 60
78 74
79 52
80 70
81 70
82 53
83 92
84 55
85 73
86 63
87 55
88 68
89 100
90 69
91 77
92 55
93 68
94 81
COVERAGE_SECTION
2 7 258 468 384 33 391 107 247 
3 7 387 479 308 400 530 52 114 
4 4 240 209 139 458 
5 6 510 151 185 21 104 97 
6 7 418 521 242 471 11 495 266 
7 7 208 206 204 352 455 485 380 
8 7 62 289 336 233 283 378 518 
9 7 335 356 377 524 499 141 389 
10 7 183 188 449 473 165 457 440 
11 7 242 471 323 266 359 418 6 
12 7 138 445 256 447 294 320 343 
13 7 216 417 339 40 179 517 230 
14 7 523 78 265 414 231 205 431 
15 7 186 232 312 474 255 347 210 
16 7 125 357 536 391 207 384 192 
17 5 489 456 399 111 253 
18 7 502 184 426 393 451 306 425 
19 6 47 466 505 103 294 482 
20 7 326 436 325 413 225 154 27 
21 7 104 5 472 518 450 168 336 
22 7 121 506 415 146 157 177 37 
23 7 146 420 284 173 433 121 157 
24 7 423 55 439 320 475 445 74 
25 7 259 507 488 460 309 353 90 
26 5 290 305 102 411 340 
27 7 154 325 408 322 225 436 368 
28 4 158 299 128 535 
29 7 342 531 212 525 182 198 327 
30 5 403 385 492 226 329 
31 7 275 338 153 408 360 112 154 
32 7 150 81 373 137 430 97 174 
33 7 107 384 2 468 101 258 285 
34 7 200 509 84 321 202 463 307 
35 6 527 355 404 383 220 461 
36 7 50 156 95 196 406 140 124 
37 7 506 68 177 333 22 159 189 
38 7 332 328 245 236 363 424 228 
39 7 170 416 480 291 441 119 175 
40 7 13 179 517 469 171 216 339 
41 7 201 223 435 303 287 164 222 
42 7 490 421 395 120 501 254 194 
43 7 83 75 197 470 374 493 126 
44 6 453 465 397 429 455 173 
45 7 316 117 251 484 145 350 296 
46 4 497 118 271 319 
47 7 19 505 466 482 152 103 294 
48 7 249 106 318 513 123 301 358 
49 7 425 224 451 184 502 18 262 
50 7 36 124 95 196 406 156 140 
51 6 96 250 87 142 132 370 
52 7 479 530 387 3 308 410 400 
53 7 293 86 211 281 160 215 169 
54 7 532 351 217 367 491 397 438 
55 7 56 24 423 447 193 304 445 
56 7 55 304 484 193 251 447 390 
57 5 428 143 437 280 388 
58 7 187 356 155 166 524 355 377 
59 7 112 360 66 274 381 275 495 
60 7 514 244 513 276 123 301 249 
61 7 213 314 500 344 195 525 268 
62 7 8 336 289 233 378 518 116 
63 6 362 401 99 369 392 98 
64 7 317 70 268 346 498 297 500 
65 7 134 175 372 416 170 39 130 
66 7 381 274 59 112 337 495 360 
67 7 255 167 315 341 347 286 375 
68 6 252 108 37 135 161 333 
69 4 508 419 122 219 
70 7 376 346 64 278 467 500 314 
71 6 172 520 199 476 533 383 
72 7 515 331 95 196 406 50 36 
73 6 222 239 295 41 478 201 
74 7 423 534 537 269 390 304 24 
75 7 470 374 126 496 83 197 43 
76 4 340 149 237 163 
77 4 234 475 348 257 
78 7 523 14 265 414 231 205 327 
79 7 270 526 315 167 347 255 341 
80 6 248 454 504 82 282 318 
81 7 32 150 373 137 97 151 174 
82 6 282 248 80 131 364 106 
83 7 197 75 43 374 470 126 302 
84 7 321 200 34 202 463 509 379 
85 7 442 147 396 178 448 334 214 
86 7 293 53 160 169 281 211 215 
87 6 96 51 250 142 370 132 
88 6 261 422 110 272 176 246 
89 7 503 91 409 379 218 398 92 
90 7 353 279 460 100 488 366 507 
91 7 379 463 89 84 409 509 34 
92 6 288 324 218 298 503 229 
93 7 407 462 260 372 136 452 238 
94 7 394 302 197 83 223 374 126 
95 7 196 406 36 129 140 156 50 
96 6 250 51 87 370 132 142 
97 5 185 81 32 151 137 
98 3 459 99 63 
99 5 98 63 459 392 191 
100 4 366 279 90 353 
101 7 107 33 285 468 483 384 469 
102 6 26 221 290 113 340 305 
103 4 505 294 19 466 
104 5 21 472 5 185 97 
105 3 229 169 92 
106 7 249 123 301 48 513 282 60 
107 7 33 101 468 384 2 285 258 
108 4 135 161 252 68 
109 2 279 90 
110 6 176 422 261 88 413 181 
111 6 456 330 17 253 489 399 
112 7 59 360 66 274 381 275 31 
113 3 221 102 26 
114 4 431 3 387 205 
115 6 148 367 162 54 351 532 
116 6 132 289 62 8 250 370 
117 7 145 296 45 350 316 484 251 
118 3 46 319 497 
119 6 291 170 39 480 254 441 
120 2 490 42 
121 7 415 146 22 429 506 157 189 
122 4 69 219 419 508 
123 6 301 106 249 60 513 48 
124 7 50 263 36 443 95 345 156 
125 7 16 391 247 384 536 357 207 
126 6 374 470 496 75 197 83 
127 6 483 417 13 216 419 230 
128 2 28 535 
129 6 140 156 406 196 95 36 
130 4 175 134 65 39 
131 3 533 82 364 
132 6 116 250 370 51 289 96 
133 7 438 214 162 367 54 115 532 
134 6 175 65 130 372 39 416 
135 4 161 252 108 68 
136 4 452 462 93 238 
137 4 430 32 81 150 
138 7 12 445 294 320 256 447 439 
139 3 458 240 4 
140 6 129 156 196 406 95 36 
141 5 335 9 389 377 296 
142 6 51 132 87 96 250 116 
143 2 437 57 
144 7 521 418 242 11 471 6 495 
145 7 117 350 296 45 316 484 251 
146 7 121 23 22 415 429 420 157 
147 7 442 85 334 178 448 396 522 
148 5 115 367 162 351 54 
149 4 163 76 237 340 
150 7 32 81 373 137 174 209 430 
151 7 510 373 174 81 97 150 32 
152 5 482 47 12 294 138 
153 6 408 154 275 27 338 31 
154 7 408 27 436 325 153 225 322 
155 5 187 58 356 377 461 
156 6 140 129 36 196 406 95 
157 6 420 177 22 146 121 159 
158 6 299 28 444 238 333 535 
159 3 177 37 157 
160 6 293 86 169 53 281 211 
161 4 135 252 108 68 
162 6 115 367 148 438 54 133 
163 5 149 76 237 534 340 
164 7 201 478 287 41 223 303 435 
165 5 449 405 10 183 473 
166 3 58 356 524 
167 7 315 341 67 347 255 270 79 
168 3 450 472 21 
169 5 160 293 86 281 53 
170 7 416 39 254 119 65 291 480 
171 5 382 469 40 517 285 
172 6 476 71 520 383 220 199 
173 7 204 23 243 44 429 208 455 
174 5 373 150 151 32 81 
175 5 134 130 65 39 416 
176 7 110 261 422 88 413 225 181 
177 5 159 37 157 22 506 
178 7 448 442 85 147 214 396 334 
179 7 339 517 216 13 40 417 230 
180 4 493 300 43 212 
181 5 368 322 464 225 27 
182 7 349 528 198 354 29 342 531 
183 7 10 473 188 446 165 440 449 
184 7 502 18 451 426 306 393 49 
185 3 97 81 5 
186 4 210 15 310 375 
187 7 155 58 356 461 377 166 355 
188 5 457 440 10 183 449 
189 7 535 506 415 299 333 22 121 
190 5 433 284 23 243 219 
191 2 392 63 
192 5 292 357 536 16 207 
193 6 447 343 256 445 55 56 
194 5 434 395 421 490 42 
195 6 235 327 61 213 525 314 
196 7 406 95 129 140 156 36 50 
197 7 83 374 75 126 302 470 94 
198 7 182 354 212 531 29 342 300 
199 4 71 172 476 533 
200 7 321 34 84 202 509 463 379 
201 7 164 478 41 287 222 223 435 
202 7 34 200 509 321 84 463 307 
203 5 371 380 485 148 7 
204 7 455 208 7 173 206 243 465 
205 4 431 265 14 523 
206 7 208 352 243 7 204 173 455 
207 4 536 16 125 357 
208 7 206 204 7 352 243 173 455 
209 7 150 32 373 174 81 430 240 
210 7 375 310 286 186 15 67 255 
211 7 215 53 477 432 273 281 293 
212 6 531 342 29 525 198 344 
213 7 61 344 525 314 500 195 268 
214 5 178 396 448 85 442 
215 7 211 477 432 273 53 86 293 
216 7 339 13 179 417 230 40 517 
217 5 491 532 351 397 54 
218 7 503 324 92 288 398 89 298 
219 4 69 122 284 433 
220 4 383 476 172 35 
221 4 113 102 340 26 
222 6 73 239 295 478 41 201 
223 7 435 303 41 287 201 394 94 
224 4 49 451 241 425 
225 7 325 322 413 27 436 154 181 
226 4 329 30 403 492 
227 5 307 509 463 34 202 
228 6 363 424 328 332 38 245 
229 3 105 92 288 
230 5 216 339 417 13 179 
231 2 414 14 
232 5 312 474 283 8 15 
233 6 378 336 8 62 518 283 
234 4 348 77 529 257 
235 6 327 195 528 61 29 525 
236 7 332 38 328 363 487 245 228 
237 4 76 149 340 163 
238 6 444 462 522 158 407 93 
239 4 222 73 295 478 
240 4 4 139 458 209 
241 4 224 43 49 75 
242 7 11 471 323 418 266 359 6 
243 7 206 352 208 173 204 23 7 
244 4 514 60 276 513 
245 6 328 38 332 365 363 424 
246 4 298 272 288 88 
247 7 391 258 125 2 384 16 207 
248 7 80 454 504 82 282 48 318 
249 7 106 123 301 48 513 60 282 
250 6 96 370 51 132 87 116 
251 6 484 316 412 45 117 56 
252 4 135 161 68 108 
253 4 111 456 17 330 
254 7 416 170 501 119 42 39 65 
255 7 347 315 67 167 341 270 286 
256 7 343 12 447 486 193 138 445 
257 4 529 348 234 77 
258 7 2 247 391 468 384 33 107 
259 7 25 309 488 507 460 494 353 
260 3 407 93 161 
261 6 88 422 110 176 272 246 
262 4 425 18 49 264 
263 6 443 345 124 50 36 321 
264 3 393 426 18 
265 6 205 14 78 523 431 349 
266 6 359 323 471 11 242 418 
267 2 410 52 
268 7 498 317 402 500 64 314 61 
269 4 390 304 74 350 
270 7 79 315 526 167 347 255 341 
271 2 319 46 
272 3 246 422 88 
273 7 477 432 215 211 53 281 293 
274 7 381 66 495 59 112 432 360 
275 7 31 153 338 360 112 408 59 
276 4 514 513 60 244 
277 5 516 441 480 291 39 
278 4 376 467 70 346 
279 5 100 366 90 353 109 
280 3 428 57 143 
281 6 53 293 160 86 211 169 
282 7 82 106 123 301 249 248 364 
283 5 474 312 232 8 233 
284 4 433 420 190 23 
285 7 469 107 384 33 171 101 40 
286 7 375 210 67 310 255 341 347 
287 7 164 303 201 435 223 41 405 
288 5 298 92 324 246 218 
289 6 8 62 116 132 336 233 
290 4 26 305 102 411 
291 7 480 441 516 277 39 119 170 
292 4 192 357 536 16 
293 7 86 53 160 281 169 211 215 
294 6 138 505 103 320 12 445 
295 4 239 222 478 73 
296 6 117 145 350 45 316 313 
297 6 427 64 481 346 70 317 
298 5 288 246 324 92 272 
299 6 158 535 28 333 189 506 
300 6 493 302 198 83 43 180 
301 6 123 106 249 60 513 48 
302 7 94 197 83 300 394 493 374 
303 7 435 223 287 41 405 165 201 
304 7 390 269 56 484 350 55 74 
305 3 290 26 102 
306 4 426 393 18 184 
307 6 227 509 463 202 34 200 
308 6 400 479 3 387 52 530 
309 6 259 25 494 507 512 488 
310 5 210 375 286 186 15 
311 2 386 17 
312 5 474 232 283 8 15 
313 7 331 45 117 296 316 145 251 
314 7 500 61 268 213 498 70 317 
315 7 167 347 255 67 341 270 79 
316 7 45 251 484 117 145 412 350 
317 7 498 268 64 402 500 314 70 
318 4 504 454 48 358 
319 3 271 118 46 
320 7 445 439 138 294 12 475 447 
321 7 84 200 34 202 509 463 379 
322 7 225 27 368 325 181 413 154 
323 5 359 11 266 242 471 
324 6 288 298 218 92 246 503 
325 7 225 436 27 413 322 154 408 
326 7 20 436 154 325 408 27 225 
327 6 235 195 528 29 525 61 
328 7 245 38 332 363 424 228 365 
329 3 226 30 492 
330 4 111 456 253 17 
331 7 313 72 316 412 50 45 251 
332 7 38 236 328 363 245 424 228 
333 6 299 37 68 506 108 189 
334 4 147 85 442 396 
335 6 9 141 377 499 389 356 
336 6 233 62 378 518 8 289 
337 3 66 59 381 
338 7 31 275 153 408 154 326 27 
339 7 216 179 13 230 517 417 40 
340 4 76 237 102 149 
341 7 167 67 315 255 347 286 270 
342 7 531 212 29 525 198 344 213 
343 5 256 193 486 447 12 
344 6 213 525 61 342 500 314 
345 6 443 263 84 321 124 379 
346 6 70 376 64 278 297 467 
347 7 255 315 167 67 341 270 79 
348 4 234 529 257 77 
349 4 528 182 29 265 
350 7 145 117 296 45 304 316 390 
351 7 532 54 217 397 367 491 465 
352 7 206 243 208 7 204 173 190 
353 7 90 460 279 488 100 507 366 
354 5 198 182 73 239 349 
355 4 35 166 58 527 
356 7 524 58 9 187 155 377 166 
357 6 192 16 292 536 125 207 
358 6 388 318 48 513 276 437 
359 5 323 266 11 471 242 
360 6 112 59 275 274 432 153 
361 3 520 71 172 
362 3 63 401 369 
363 7 228 424 328 332 38 245 236 
364 3 282 82 119 
365 3 245 328 38 
366 4 100 279 90 353 
367 7 115 162 54 148 351 532 438 
368 6 181 464 322 225 27 325 
369 3 401 362 63 
370 6 250 96 132 51 289 116 
371 5 203 380 485 148 7 
372 7 65 452 134 93 136 175 462 
373 7 150 32 81 174 151 510 97 
374 6 126 470 75 496 197 83 
375 6 210 286 310 67 186 255 
376 5 278 70 467 346 64 
377 5 389 9 335 155 356 
378 5 233 336 518 62 8 
379 7 91 84 463 321 89 200 34 
380 5 371 203 485 7 148 
381 7 274 66 495 59 112 6 521 
382 4 171 469 40 517 
383 4 220 476 172 35 
384 7 2 391 33 107 258 125 247 
385 4 492 403 30 226 
386 2 311 17 
387 7 3 530 479 52 308 400 410 
388 6 358 437 446 57 428 473 
389 4 377 141 335 9 
390 5 269 304 350 74 56 
391 7 125 247 384 258 16 2 33 
392 3 191 63 99 
393 6 426 18 264 306 502 184 
394 6 94 197 126 374 223 302 
395 6 421 194 434 490 42 120 
396 6 85 442 334 491 147 178 
397 6 465 217 351 532 44 54 
398 3 503 218 89 
399 3 489 17 456 
400 6 308 3 479 387 52 530 
401 3 369 362 63 
402 4 498 268 317 64 
403 6 30 385 492 226 329 144 
404 4 527 35 461 220 
405 7 449 165 10 287 183 303 188 
406 7 196 95 129 140 156 36 50 
407 7 93 462 260 238 108 136 372 
408 7 154 27 153 325 436 322 225 
409 5 89 91 503 105 92 
410 4 267 52 479 308 
411 2 290 26 
412 6 251 484 316 45 193 56 
413 7 225 325 322 436 27 176 181 
414 4 231 14 523 78 
415 7 121 429 22 146 189 506 535 
416 7 170 39 254 65 119 175 134 
417 7 13 216 127 483 339 230 179 
418 7 6 521 242 471 11 323 266 
419 6 508 69 122 230 127 417 
420 6 157 284 23 146 433 22 
421 6 395 194 434 490 42 120 
422 5 261 88 110 176 272 
423 7 74 534 24 55 304 537 56 
424 6 363 228 328 245 38 332 
425 5 49 262 18 184 502 
426 7 393 18 502 184 306 264 451 
427 5 481 297 346 64 309 
428 2 57 280 
429 7 415 121 453 44 146 22 189 
430 4 137 32 150 81 
431 4 205 265 114 14 
432 7 215 477 273 211 53 86 293 
433 4 284 190 23 420 
434 5 194 395 421 490 42 
435 7 223 303 287 41 201 164 394 
436 7 325 225 27 20 154 326 413 
437 4 143 446 388 57 
438 7 133 54 367 162 532 351 115 
439 5 475 320 24 445 294 
440 4 457 188 10 183 
441 6 480 291 516 277 39 119 
442 7 85 147 178 448 396 334 214 
443 6 345 263 84 321 124 200 
444 6 238 522 158 462 28 299 
445 7 138 320 12 447 256 294 193 
446 5 473 183 437 10 388 
447 7 193 445 256 343 12 138 55 
448 6 178 442 85 147 396 214 
449 7 405 165 10 183 188 457 440 
450 4 168 472 21 518 
451 5 184 502 18 306 49 
452 4 136 372 462 93 
453 5 44 429 465 397 415 
454 5 504 80 248 318 48 
455 7 204 465 44 7 173 208 397 
456 6 111 17 489 399 253 330 
457 4 440 188 10 183 
458 3 139 240 4 
459 3 98 99 63 
460 7 488 353 90 507 25 259 279 
461 6 527 155 187 404 35 537 
462 6 93 407 136 238 452 444 
463 7 509 34 200 84 321 91 307 
464 5 368 181 322 27 225 
465 7 44 397 453 455 351 532 217 
466 4 19 505 47 103 
467 4 278 376 70 314 
468 7 2 33 258 107 384 101 391 
469 6 285 171 40 382 13 517 
470 6 75 496 374 126 83 197 
471 7 11 242 323 266 359 418 6 
472 4 104 168 21 450 
473 5 446 183 10 437 165 
474 5 312 232 283 8 15 
475 4 439 320 77 24 
476 5 172 383 220 71 520 
477 7 273 215 432 211 53 281 293 
478 7 201 164 222 295 41 239 73 
479 7 308 52 3 400 387 530 410 
480 7 441 291 516 277 39 119 170 
481 5 427 297 346 64 70 
482 6 152 47 294 505 12 19 
483 6 127 417 13 216 40 101 
484 7 251 316 45 412 56 304 117 
485 5 380 371 203 7 208 
486 3 256 343 12 
487 3 236 332 38 
488 6 460 507 25 353 90 259 
489 4 399 17 456 111 
490 6 42 120 395 421 194 434 
491 3 217 532 54 
492 4 385 403 30 226 
493 6 300 180 43 302 83 198 
494 5 512 309 259 25 488 
495 7 381 274 521 6 418 66 144 
496 4 470 126 75 374 
497 3 46 118 271 
498 7 268 317 402 500 64 314 61 
499 5 524 9 356 335 166 
500 7 314 61 268 498 213 317 70 
501 6 254 519 42 490 119 170 
502 7 184 18 451 426 306 393 49 
503 7 89 218 92 398 409 324 91 
504 3 454 318 80 
505 5 103 19 294 47 466 
506 7 189 22 37 535 333 415 121 
507 6 488 25 460 259 353 90 
508 6 69 419 122 219 127 230 
509 7 34 463 202 200 307 84 321 
510 7 151 174 373 5 97 81 150 
511 2 530 52 
512 4 494 309 259 25 
513 7 276 60 514 249 244 48 106 
514 4 244 276 60 513 
515 7 72 95 406 196 129 140 156 
516 6 277 441 480 291 39 119 
517 7 179 40 339 216 13 171 382 
518 6 336 378 233 62 8 21 
519 4 501 42 120 490 
520 6 361 172 71 476 220 383 
521 7 418 6 242 495 144 471 11 
522 7 444 238 147 334 158 28 462 
523 6 78 14 265 414 231 205 
524 6 499 356 9 166 58 335 
525 7 344 342 213 531 212 29 61 
526 2 79 270 
527 4 404 35 461 355 
528 6 349 182 327 29 235 78 
529 4 257 348 234 77 
530 7 52 387 3 479 308 400 511 
531 7 212 342 29 525 198 344 182 
532 7 351 54 217 397 491 367 465 
533 3 131 71 199 
534 7 74 423 537 163 24 149 269 
535 7 189 299 506 28 128 415 333 
536 5 207 16 357 125 192 
537 6 534 74 269 423 461 390 
DEPOT_SECTION
   1
   -1
EOF
