NAME :  X-n936-kX-w187-c7.cctp
COMMENT : 	Adapted by Maziero, Usberti and Cavellucci from the Uchoa, Pecin, Pessoa, Poggi, Subramanian, and Vidal (2013)
TYPE :  CCTP
DIMENSION :    800
EDGE_WEIGHT_TYPE : 	EUC_2D	
CAPACITY : 	138
VERTICES_WITHIN_COVERAGE :  7
VERTICES_WITH_DEMAND : 	187
NODE_COORD_SECTION
1 500 500
2 971 544
3 564 976
4 266 4
5 395 95
6 316 877
7 963 89
8 496 96
9 274 493
10 516 598
11 338 849
12 58 395
13 923 411
14 670 912
15 576 101
16 902 552
17 888 709
18 703 539
19 10 341
20 55 984
21 420 132
22 870 218
23 933 196
24 123 372
25 973 824
26 253 201
27 84 941
28 792 164
29 702 811
30 263 756
31 161 986
32 322 75
33 969 514
34 140 665
35 313 386
36 53 583
37 836 244
38 450 730
39 642 334
40 907 431
41 570 705
42 587 264
43 703 666
44 877 132
45 138 487
46 275 598
47 2 354
48 538 460
49 716 573
50 65 579
51 505 17
52 544 958
53 175 838
54 838 67
55 122 410
56 126 430
57 598 544
58 299 442
59 224 930
60 593 453
61 764 848
62 485 95
63 130 114
64 832 863
65 659 293
66 259 936
67 615 141
68 808 263
69 970 317
70 815 888
71 405 330
72 64 525
73 588 746
74 170 392
75 681 640
76 223 283
77 109 297
78 675 904
79 576 171
80 484 439
81 329 79
82 504 393
83 676 664
84 124 658
85 749 89
86 162 848
87 521 0
88 1 873
89 72 718
90 983 770
91 104 702
92 47 781
93 706 244
94 626 678
95 370 431
96 776 346
97 259 339
98 579 606
99 719 491
100 777 297
101 45 562
102 662 602
103 502 327
104 218 628
105 581 867
106 517 232
107 524 21
108 348 100
109 84 93
110 118 76
111 544 801
112 990 739
113 980 477
114 267 231
115 774 530
116 45 336
117 390 140
118 93 808
119 377 216
120 998 949
121 645 597
122 554 435
123 973 506
124 405 399
125 778 252
126 935 755
127 130 186
128 405 776
129 20 901
130 349 926
131 874 686
132 212 933
133 313 230
134 239 121
135 180 574
136 620 990
137 797 316
138 876 34
139 481 60
140 501 833
141 315 125
142 856 368
143 158 494
144 304 611
145 916 16
146 606 344
147 48 866
148 557 242
149 348 238
150 881 199
151 942 308
152 367 909
153 567 429
154 263 687
155 80 592
156 917 557
157 229 120
158 663 574
159 661 630
160 969 401
161 193 230
162 820 144
163 330 976
164 363 421
165 24 571
166 799 697
167 693 323
168 519 860
169 487 344
170 497 48
171 803 6
172 933 729
173 50 642
174 137 27
175 668 500
176 679 303
177 387 948
178 770 982
179 751 922
180 911 626
181 874 634
182 775 271
183 464 526
184 358 1
185 87 466
186 360 776
187 678 210
188 831 505
189 310 98
190 60 386
191 211 11
192 717 474
193 27 576
194 239 512
195 339 610
196 480 11
197 590 578
198 288 823
199 164 489
200 900 201
201 738 109
202 893 40
203 540 895
204 212 305
205 323 70
206 363 67
207 646 520
208 9 393
209 128 947
210 353 737
211 216 578
212 195 119
213 94 951
214 14 611
215 271 437
216 376 441
217 33 583
218 899 242
219 773 188
220 860 280
221 149 839
222 773 271
223 863 14
224 216 323
225 808 127
226 287 138
227 529 712
228 538 620
229 332 451
230 373 454
231 607 153
232 941 985
233 573 829
234 434 192
235 138 825
236 627 320
237 883 457
238 383 339
239 206 590
240 924 152
241 717 463
242 340 43
243 363 386
244 766 958
245 679 316
246 931 697
247 11 913
248 310 130
249 867 257
250 728 74
251 898 404
252 397 910
253 745 715
254 69 902
255 660 810
256 521 591
257 713 540
258 354 109
259 596 71
260 280 435
261 563 585
262 740 301
263 476 563
264 906 759
265 494 590
266 834 195
267 765 282
268 488 289
269 568 869
270 997 212
271 175 81
272 290 663
273 852 555
274 71 327
275 84 429
276 611 223
277 731 863
278 40 563
279 703 347
280 661 662
281 773 288
282 638 588
283 678 775
284 824 341
285 729 935
286 650 197
287 415 366
288 134 657
289 542 714
290 154 654
291 960 5
292 522 197
293 935 115
294 338 567
295 621 926
296 554 225
297 976 124
298 892 594
299 605 401
300 963 118
301 499 330
302 218 594
303 790 923
304 296 46
305 623 94
306 398 986
307 195 838
308 540 227
309 718 784
310 409 746
311 35 456
312 762 832
313 592 591
314 196 254
315 394 226
316 409 522
317 753 35
318 202 846
319 916 395
320 830 95
321 24 750
322 976 279
323 343 344
324 301 254
325 578 746
326 767 318
327 259 335
328 349 767
329 571 676
330 744 582
331 64 936
332 248 717
333 176 708
334 479 758
335 82 818
336 922 369
337 684 955
338 942 265
339 717 478
340 367 372
341 781 973
342 81 883
343 536 97
344 26 285
345 491 117
346 949 12
347 80 279
348 916 998
349 715 860
350 463 711
351 385 797
352 196 283
353 602 591
354 728 198
355 577 759
356 251 30
357 746 628
358 334 850
359 338 954
360 308 324
361 969 149
362 610 463
363 439 747
364 13 834
365 946 578
366 491 438
367 558 441
368 525 263
369 517 36
370 571 882
371 643 965
372 120 476
373 377 460
374 787 273
375 849 702
376 340 19
377 607 304
378 779 347
379 603 139
380 55 419
381 928 789
382 487 234
383 108 249
384 971 558
385 983 839
386 466 494
387 788 959
388 726 276
389 0 885
390 504 525
391 759 351
392 132 804
393 680 566
394 90 614
395 69 317
396 666 531
397 638 898
398 319 639
399 358 855
400 345 118
401 501 939
402 809 837
403 271 94
404 184 431
405 577 166
406 249 631
407 37 855
408 225 839
409 257 910
410 163 960
411 336 595
412 591 477
413 638 385
414 398 781
415 801 917
416 980 748
417 629 565
418 518 59
419 171 816
420 527 405
421 520 113
422 959 231
423 927 484
424 320 976
425 460 840
426 638 118
427 343 933
428 535 683
429 30 800
430 496 80
431 243 194
432 630 363
433 845 547
434 162 843
435 50 364
436 555 775
437 171 505
438 869 873
439 15 809
440 795 196
441 682 724
442 335 977
443 569 427
444 481 295
445 651 692
446 560 666
447 157 438
448 769 951
449 824 134
450 348 742
451 730 945
452 773 913
453 769 561
454 538 228
455 229 200
456 806 122
457 711 514
458 834 378
459 173 688
460 548 987
461 961 861
462 634 81
463 876 764
464 230 630
465 466 535
466 536 102
467 133 535
468 784 861
469 602 148
470 134 487
471 940 737
472 821 842
473 512 487
474 38 639
475 8 577
476 278 643
477 79 371
478 126 655
479 336 973
480 74 924
481 350 839
482 9 780
483 66 944
484 74 990
485 707 856
486 447 745
487 71 122
488 820 364
489 254 702
490 820 679
491 873 665
492 101 533
493 456 728
494 726 474
495 806 226
496 771 559
497 24 828
498 761 118
499 263 505
500 3 602
501 423 799
502 480 109
503 215 101
504 269 982
505 134 993
506 905 394
507 185 224
508 304 162
509 234 264
510 878 612
511 620 156
512 303 278
513 44 855
514 533 864
515 718 798
516 64 437
517 760 816
518 87 637
519 834 898
520 185 572
521 599 142
522 76 267
523 648 838
524 170 474
525 847 75
526 991 131
527 987 776
528 783 329
529 921 646
530 411 976
531 638 775
532 684 597
533 329 406
534 293 468
535 875 548
536 784 495
537 549 509
538 197 614
539 357 841
540 191 919
541 829 509
542 176 239
543 292 100
544 381 271
545 133 135
546 807 453
547 467 749
548 369 804
549 549 358
550 422 893
551 412 751
552 982 733
553 589 381
554 860 42
555 78 903
556 569 345
557 122 157
558 894 355
559 527 51
560 966 7
561 648 970
562 669 263
563 334 63
564 804 987
565 665 637
566 632 101
567 772 217
568 807 906
569 251 470
570 484 123
571 98 682
572 843 317
573 959 30
574 262 911
575 871 459
576 728 510
577 348 353
578 946 531
579 118 14
580 291 752
581 938 361
582 85 112
583 874 752
584 566 966
585 680 491
586 130 180
587 558 532
588 228 473
589 177 434
590 937 557
591 170 92
592 484 525
593 689 524
594 617 651
595 609 240
596 773 84
597 857 102
598 13 695
599 905 706
600 555 993
601 112 144
602 815 693
603 826 813
604 774 487
605 313 120
606 277 759
607 817 760
608 787 325
609 286 363
610 517 641
611 39 562
612 722 245
613 100 949
614 98 751
615 508 959
616 247 144
617 101 476
618 46 938
619 592 826
620 693 941
621 60 300
622 220 235
623 801 457
624 868 188
625 509 886
626 631 311
627 773 569
628 572 581
629 938 403
630 334 749
631 317 863
632 410 401
633 967 345
634 923 234
635 609 241
636 13 883
637 155 385
638 463 764
639 698 572
640 356 465
641 694 529
642 893 883
643 608 537
644 876 170
645 293 93
646 620 941
647 217 857
648 971 225
649 607 215
650 566 671
651 829 126
652 353 996
653 68 960
654 569 563
655 819 29
656 91 351
657 258 668
658 486 578
659 599 841
660 637 370
661 743 89
662 93 635
663 287 690
664 738 183
665 78 389
666 195 232
667 537 567
668 81 414
669 721 77
670 618 854
671 512 627
672 448 179
673 334 10
674 995 688
675 725 542
676 171 228
677 663 226
678 867 142
679 485 465
680 913 100
681 880 698
682 360 974
683 485 582
684 336 126
685 205 23
686 77 83
687 990 797
688 261 397
689 838 659
690 706 222
691 136 687
692 92 894
693 869 500
694 878 112
695 744 525
696 96 830
697 10 324
698 781 904
699 995 534
700 915 464
701 679 632
702 419 805
703 338 854
704 400 176
705 536 577
706 535 103
707 8 650
708 94 338
709 812 968
710 711 300
711 367 345
712 215 838
713 482 199
714 538 736
715 546 974
716 185 253
717 639 364
718 888 908
719 12 388
720 965 418
721 130 464
722 985 43
723 36 437
724 869 362
725 449 675
726 980 804
727 54 321
728 901 710
729 582 253
730 813 96
731 295 739
732 726 504
733 617 620
734 699 715
735 990 890
736 274 884
737 677 618
738 270 576
739 812 834
740 309 509
741 727 310
742 788 858
743 580 301
744 414 438
745 712 540
746 48 732
747 490 483
748 636 970
749 30 346
750 841 214
751 962 807
752 990 333
753 149 678
754 153 236
755 396 878
756 984 703
757 373 62
758 334 190
759 543 908
760 988 913
761 575 465
762 600 467
763 463 540
764 40 530
765 522 854
766 643 379
767 884 415
768 124 779
769 402 955
770 466 117
771 547 294
772 380 304
773 73 831
774 299 858
775 730 158
776 674 908
777 309 487
778 739 812
779 546 173
780 734 916
781 293 376
782 670 846
783 87 244
784 559 950
785 716 790
786 891 306
787 842 77
788 277 644
789 589 803
790 450 327
791 179 362
792 31 55
793 824 185
794 545 822
795 158 219
796 823 342
797 733 905
798 661 205
799 888 583
800 208 385
DEMAND_SECTION
2 88
3 98
4 94
5 89
6 83
7 65
8 85
9 66
10 89
11 80
12 58
13 54
14 75
15 60
16 77
17 69
18 79
19 99
20 86
21 63
22 84
23 92
24 87
25 54
26 93
27 58
28 62
29 98
30 50
31 71
32 55
33 61
34 76
35 76
36 88
37 51
38 78
39 71
40 90
41 90
42 87
43 80
44 74
45 83
46 79
47 77
48 58
49 53
50 99
51 62
52 95
53 61
54 84
55 86
56 91
57 79
58 93
59 76
60 88
61 68
62 80
63 59
64 82
65 53
66 67
67 90
68 51
69 99
70 72
71 70
72 85
73 80
74 80
75 81
76 100
77 60
78 74
79 52
80 70
81 70
82 53
83 92
84 55
85 73
86 63
87 55
88 68
89 100
90 69
91 77
92 55
93 68
94 81
95 89
96 70
97 59
98 76
99 51
100 99
101 92
102 78
103 75
104 84
105 98
106 81
107 96
108 99
109 100
110 71
111 50
112 76
113 80
114 55
115 51
116 79
117 62
118 86
119 62
120 79
121 81
122 84
123 72
124 77
125 61
126 64
127 70
128 84
129 90
130 63
131 74
132 92
133 93
134 58
135 99
136 98
137 57
138 50
139 87
140 85
141 62
142 83
143 82
144 89
145 97
146 68
147 52
148 81
149 91
150 64
151 68
152 87
153 85
154 100
155 74
156 66
157 59
158 95
159 67
160 86
161 58
162 92
163 69
164 92
165 64
166 75
167 52
168 91
169 70
170 52
171 66
172 68
173 61
174 72
175 60
176 70
177 83
178 53
179 57
180 70
181 71
182 61
183 86
184 54
185 73
186 79
187 97
188 86
COVERAGE_SECTION
2 7 384 699 578 33 590 123 365 
3 7 584 715 460 600 784 52 136 
4 5 356 304 191 685 673 
5 7 757 206 258 21 117 108 400 
6 7 631 774 358 703 11 736 399 
7 7 300 297 293 526 680 722 573 
8 7 62 430 502 345 421 570 770 
9 7 499 534 569 777 740 194 588 
10 7 256 265 671 705 228 683 658 
11 7 358 703 481 399 539 631 6 
12 7 190 665 380 668 435 477 516 
13 7 319 629 506 40 251 767 336 
14 7 776 78 397 620 337 295 646 
15 7 259 343 466 706 379 521 305 
16 7 156 535 799 590 298 578 273 
17 6 728 681 599 131 375 246 
18 7 745 257 641 593 675 457 639 
19 7 47 697 749 116 435 719 727 
20 7 484 653 483 618 331 213 27 
21 7 117 5 704 770 672 234 502 
22 7 150 750 624 200 218 249 37 
23 7 200 634 422 240 648 150 218 
24 7 637 55 656 477 708 665 74 
25 7 385 751 726 687 461 527 90 
26 7 431 455 114 622 616 508 509 
27 7 213 483 613 480 331 653 555 
28 7 219 440 162 793 225 449 456 
29 7 515 785 309 778 255 283 485 
30 7 606 580 731 332 489 154 663 
31 7 410 505 209 613 540 132 213 
32 7 205 81 563 189 645 108 242 
33 7 123 578 2 699 113 384 423 
34 7 288 753 84 478 290 691 459 
35 7 781 533 609 577 243 323 688 
36 7 50 217 101 278 611 193 155 
37 7 750 68 249 495 22 220 266 
38 7 493 486 363 350 547 638 334 
39 7 236 626 717 432 660 146 245 
40 7 13 251 767 700 237 319 506 
41 7 289 329 650 446 428 227 325 
42 7 729 635 595 148 743 377 276 
43 7 83 75 280 701 565 734 159 
44 7 678 694 597 644 651 680 240 
45 7 470 143 372 721 199 524 437 
46 7 738 144 406 476 788 464 302 
47 7 19 749 697 719 208 116 435 
48 7 367 122 473 761 153 443 537 
49 7 639 330 675 257 745 18 393 
50 7 36 155 101 278 611 217 193 
51 7 107 369 87 196 170 559 418 
52 7 715 784 584 3 460 615 600 
53 7 434 86 307 419 221 318 235 
54 7 787 525 320 554 730 597 655 
55 7 56 24 637 668 275 447 665 
56 7 55 447 721 275 372 668 589 
57 5 643 197 654 417 587 
58 7 260 534 215 229 777 533 569 
59 7 132 540 66 409 574 410 736 
60 7 762 362 761 412 153 443 367 
61 7 312 468 742 517 277 778 402 
62 7 8 502 430 345 570 770 139 
63 7 545 601 110 557 582 591 109 
64 7 472 70 402 519 739 438 742 
65 7 176 245 562 626 236 39 167 
66 7 574 409 59 132 504 736 540 
67 7 379 231 469 511 521 426 566 
68 7 374 125 37 182 222 495 281 
69 6 752 633 151 322 581 338 
70 7 568 519 64 415 698 742 468 
71 7 238 772 287 711 790 340 577 
72 7 764 492 101 278 611 50 36 
73 6 325 355 436 41 714 289 
74 7 637 791 800 404 589 447 24 
75 7 701 565 159 737 83 280 43 
76 7 509 204 352 314 224 622 716 
77 7 347 708 395 522 274 383 621 
78 7 776 14 397 620 337 295 485 
79 7 405 779 469 231 521 379 511 
80 6 366 679 747 82 420 473 
81 7 32 205 563 189 108 206 242 
82 7 420 366 80 169 549 301 122 
83 7 280 75 43 565 701 159 445 
84 7 478 288 34 290 691 753 571 
85 7 661 201 596 250 669 498 317 
86 7 434 53 221 235 419 307 318 
87 7 107 51 369 196 559 170 418 
88 7 389 636 129 407 247 364 513 
89 7 746 91 614 571 321 598 92 
90 7 527 416 687 112 726 552 751 
91 7 571 691 89 84 614 753 34 
92 7 429 482 321 439 746 335 497 
93 7 612 690 388 562 187 677 354 
94 7 594 445 280 83 329 565 159 
95 6 164 216 230 373 640 229 
96 6 378 391 528 608 326 137 
97 7 327 609 224 781 360 204 688 
98 7 313 261 628 353 197 733 228 
99 7 339 732 192 494 576 457 241 
100 7 281 267 326 182 222 374 137 
101 7 278 611 36 165 193 217 50 
102 7 121 737 532 158 159 282 701 
103 7 301 169 444 268 790 549 771 
104 7 464 538 406 302 239 211 657 
105 7 269 370 659 233 670 619 514 
106 7 454 308 382 368 292 296 148 
107 7 369 51 87 559 170 418 196 
108 7 258 400 81 684 32 206 189 
109 5 686 582 487 110 63 
110 7 109 63 686 582 174 591 271 
111 6 794 436 233 789 355 140 
112 7 552 416 90 756 527 471 674 
113 7 123 33 423 699 720 578 700 
114 7 26 324 431 133 509 622 455 
115 7 496 695 453 536 627 604 576 
116 7 727 749 274 435 395 19 697 
117 7 21 704 5 258 400 684 108 
118 7 335 696 773 392 768 235 92 
119 7 315 149 704 758 544 234 133 
120 6 760 735 232 461 348 385 
121 7 282 102 158 417 733 159 737 
122 7 367 153 443 48 761 420 60 
123 7 33 113 699 578 2 423 384 
124 7 632 287 744 243 95 164 340 
125 7 182 222 374 68 267 281 567 
126 6 471 172 264 381 416 90 
127 6 586 557 795 601 545 754 
128 6 414 551 351 501 310 702 
129 7 247 636 389 88 147 618 254 
130 7 427 152 359 177 479 682 252 
131 7 681 491 17 375 728 599 689 
132 7 59 540 66 409 574 410 31 
133 7 324 149 758 114 512 119 26 
134 6 157 616 503 403 212 226 
135 7 520 239 211 302 538 467 104 
136 7 748 371 561 646 3 584 295 
137 7 608 528 100 326 378 96 281 
138 7 202 554 223 145 54 525 787 
139 7 170 430 62 418 8 369 559 
140 7 765 168 425 514 794 111 625 
141 7 605 248 684 189 226 400 543 
142 5 724 458 488 558 284 
143 7 199 437 45 524 470 721 372 
144 7 46 398 195 411 476 788 738 
145 7 202 346 138 291 573 560 223 
146 7 432 236 39 556 717 377 660 
147 7 513 407 342 636 254 773 129 
148 7 296 308 454 729 42 368 106 
149 7 119 133 544 315 324 758 512 
150 7 624 200 22 644 750 218 266 
151 7 69 338 322 633 786 581 752 
152 7 130 252 427 755 177 359 399 
153 7 443 122 367 60 761 48 299 
154 7 489 657 663 332 272 788 476 
155 7 50 394 36 662 101 518 217 
156 7 16 590 365 578 799 535 298 
157 5 134 503 616 212 403 
158 7 393 102 121 282 532 417 639 
159 7 565 701 737 75 102 280 83 
160 7 720 629 13 581 319 633 336 
161 7 666 507 542 676 314 716 622 
162 6 449 651 225 456 28 793 
163 7 442 479 424 359 652 682 427 
164 7 95 216 230 243 533 373 229 
165 7 193 217 475 611 278 101 36 
166 6 602 490 375 689 253 607 
167 7 245 176 279 710 741 65 39 
168 7 765 514 625 140 203 794 269 
169 7 301 103 790 444 82 268 549 
170 7 139 369 418 559 51 430 107 
171 7 655 317 223 554 54 138 787 
172 6 471 126 246 599 728 264 
173 7 474 518 707 662 214 394 155 
174 6 579 110 271 685 591 191 
175 5 585 207 396 593 641 
176 7 245 65 167 710 562 39 626 
177 7 769 530 682 252 306 130 152 
178 6 341 244 387 448 564 709 
179 7 780 452 797 285 451 448 698 
180 6 529 510 298 181 799 491 
181 7 510 491 180 298 689 529 131 
182 7 222 374 267 281 125 100 68 
183 7 465 763 592 386 263 390 747 
184 7 376 673 242 757 206 563 205 
185 7 617 372 275 516 721 470 668 
186 7 328 548 351 450 630 414 210 
187 6 798 677 690 286 93 354 
188 7 541 693 433 536 273 546 623 
189 7 543 645 605 32 81 141 205 
190 7 12 665 435 477 380 668 656 
191 3 685 356 4 
192 6 339 494 241 99 732 576 
193 7 165 217 278 611 475 101 36 
194 6 499 9 588 569 437 211 
195 4 411 144 398 294 
196 7 51 170 87 107 369 139 418 
197 7 313 353 628 654 261 98 57 
198 7 774 631 358 11 703 6 736 
199 7 143 524 437 45 470 721 372 
200 7 150 23 22 624 644 634 218 
201 7 661 85 498 250 669 596 775 
202 7 138 145 554 223 525 54 346 
203 7 759 514 625 370 269 168 765 
204 7 224 76 352 509 314 327 97 
205 7 32 81 563 189 242 304 645 
206 7 757 563 242 81 108 205 32 
207 2 396 175 
208 5 719 47 12 435 190 
209 6 613 213 410 27 505 31 
210 4 450 630 328 186 
211 7 239 302 520 135 538 104 464 
212 6 503 157 591 271 134 616 
213 7 613 27 653 483 209 331 480 
214 7 500 217 475 193 474 707 165 
215 5 260 58 534 569 688 
216 6 95 230 373 164 640 744 
217 7 193 165 36 278 611 101 475 
218 7 634 249 22 200 150 338 220 
219 7 440 567 28 664 354 495 793 
220 5 249 786 572 37 218 
221 7 434 86 235 53 419 392 307 
222 7 182 267 374 281 125 100 68 
223 7 138 554 202 655 145 54 171 
224 7 204 76 327 352 97 791 509 
225 6 456 449 162 651 730 320 
226 7 248 508 141 605 543 616 645 
227 7 289 714 428 41 329 446 650 
228 7 671 610 10 256 98 261 705 
229 7 640 58 230 95 164 534 777 
230 5 373 216 640 95 164 
231 7 469 511 67 521 379 405 79 
232 4 348 120 760 718 
233 7 619 659 794 789 105 111 269 
234 5 672 704 713 315 21 
235 7 221 392 434 86 419 53 696 
236 7 626 39 377 146 65 432 717 
237 6 575 700 40 767 693 423 
238 7 711 71 772 340 577 323 287 
239 7 302 211 538 520 135 104 464 
240 7 293 23 361 44 644 300 680 
241 4 192 494 339 99 
242 7 563 376 205 206 673 32 81 
243 7 340 164 577 533 711 124 95 
244 7 448 341 387 178 451 179 303 
245 7 176 167 65 710 279 39 626 
246 3 599 172 728 
247 7 129 389 636 88 618 331 254 
248 7 141 605 226 684 189 508 543 
249 5 220 37 218 22 750 
250 7 669 661 85 201 317 596 498 
251 7 506 767 319 13 40 629 336 
252 6 152 550 755 177 769 130 
253 6 734 166 441 43 602 309 
254 7 555 342 480 692 331 27 147 
255 7 523 782 283 531 29 515 785 
256 7 10 705 265 667 228 658 671 
257 7 745 18 675 641 457 593 49 
258 7 108 400 684 81 141 605 5 
259 4 305 15 462 566 
260 7 215 58 534 688 569 229 533 
261 7 628 654 98 197 705 313 667 
262 7 741 388 710 267 326 281 100 
263 7 658 683 763 465 265 183 592 
264 5 126 463 583 381 172 
265 6 683 658 10 256 263 671 
266 7 793 750 624 440 495 22 150 
267 7 281 222 182 100 374 262 125 
268 7 444 103 301 368 790 169 382 
269 7 105 370 514 203 233 659 759 
270 5 648 422 23 361 322 
271 4 591 212 503 63 
272 6 476 788 663 657 154 398 
273 7 433 535 799 16 541 188 298 
274 7 395 727 708 116 621 656 435 
275 7 668 516 380 185 665 55 56 
276 6 649 595 635 729 286 42 
277 7 349 485 61 797 312 778 468 
278 7 611 101 165 193 217 36 50 
279 6 167 245 741 710 176 391 
280 7 83 565 75 159 445 701 94 
281 7 100 267 182 222 374 326 262 
282 7 121 417 102 158 353 733 313 
283 7 255 531 309 785 29 515 441 
284 5 796 488 572 137 458 
285 6 451 780 179 797 620 448 
286 6 798 187 677 276 649 511 
287 7 124 632 71 238 340 711 790 
288 7 478 34 84 290 753 691 571 
289 7 227 714 41 428 325 329 650 
290 7 34 288 753 478 84 691 459 
291 7 560 346 573 145 722 202 7 
292 7 779 106 308 454 713 296 382 
293 7 680 300 7 240 297 361 694 
294 3 411 195 144 
295 7 646 397 371 748 14 561 776 
296 7 308 454 148 106 729 292 368 
297 7 300 526 361 7 293 240 680 
298 7 799 510 180 16 181 156 535 
299 7 553 413 443 766 432 660 153 
300 7 297 293 7 526 361 240 680 
301 7 103 169 444 268 790 549 771 
302 7 239 211 538 104 464 520 135 
303 7 415 452 698 568 448 387 179 
304 7 205 32 563 242 81 645 356 
305 7 566 462 426 259 15 67 379 
306 4 530 769 177 682 
307 7 318 53 712 647 408 419 434 
308 7 454 296 148 106 292 368 729 
309 6 785 515 29 778 283 517 
310 5 551 128 363 414 486 
311 4 723 516 380 185 
312 7 61 517 778 468 742 277 402 
313 7 353 197 98 628 261 654 733 
314 7 716 666 161 542 352 622 507 
315 5 119 544 149 704 234 
316 1 183 
317 5 250 596 669 85 661 
318 7 307 712 647 408 53 86 434 
319 7 506 13 251 629 336 40 767 
320 6 730 787 525 597 54 651 
321 7 746 482 92 429 598 89 439 
322 5 338 69 151 422 648 
323 7 577 711 340 238 360 243 35 
324 7 512 133 114 149 509 360 26 
325 6 73 355 436 714 41 289 
326 7 528 608 100 96 137 281 378 
327 7 97 609 224 360 781 204 688 
328 6 186 630 450 210 548 351 
329 7 650 446 41 428 289 594 94 
330 7 49 627 453 496 675 357 639 
331 7 483 480 618 27 653 213 254 
332 7 489 154 30 663 657 606 731 
333 5 459 753 691 34 290 
334 6 547 638 486 493 38 363 
335 7 118 773 696 92 392 513 429 
336 7 581 319 506 558 629 13 251 
337 5 620 561 371 14 451 
338 6 634 322 422 151 218 648 
339 6 192 494 99 241 732 576 
340 7 243 577 711 238 323 124 287 
341 6 178 387 244 448 564 709 
342 6 692 555 254 147 480 513 
343 6 466 706 421 8 15 418 
344 5 621 697 727 522 116 
345 6 570 502 8 62 770 421 
346 7 291 560 573 145 722 202 138 
347 6 522 621 77 783 395 383 
348 3 232 718 120 
349 7 485 277 782 797 61 29 778 
350 7 493 38 486 547 725 363 334 
351 5 548 414 128 186 702 
352 7 76 204 314 716 509 224 542 
353 7 313 197 98 628 733 282 417 
354 7 664 690 775 219 612 567 93 
355 6 325 73 436 714 789 111 
356 4 4 191 685 304 
357 5 330 43 49 627 75 
358 7 11 703 481 631 399 539 6 
359 7 479 427 163 442 424 130 682 
360 7 323 609 512 577 327 97 781 
361 7 297 526 300 240 293 23 7 
362 4 762 60 412 761 
363 7 486 38 493 551 547 638 310 
364 7 497 439 407 513 429 88 147 
365 7 590 384 156 2 578 16 298 
366 7 80 679 747 82 420 48 473 
367 7 122 153 443 48 761 60 420 
368 7 106 454 148 771 308 268 296 
369 7 107 559 51 170 418 87 139 
370 7 269 105 203 759 514 659 233 
371 6 561 748 646 136 337 295 
372 7 721 470 617 45 185 143 56 
373 4 230 216 640 95 
374 7 182 222 281 68 125 267 100 
375 7 131 681 602 490 17 491 689 
376 7 673 242 184 563 304 206 205 
377 7 626 236 743 146 42 39 65 
378 6 96 528 391 608 326 137 
379 7 521 469 67 231 511 405 426 
380 7 516 12 668 723 275 190 665 
381 4 126 264 751 471 
382 6 106 713 368 292 454 308 
383 6 783 522 347 754 77 795 
384 7 2 365 590 699 578 33 123 
385 7 25 461 726 751 687 735 527 
386 5 747 183 679 592 465 
387 6 341 448 244 709 178 564 
388 7 710 262 612 741 93 267 222 
389 7 88 636 129 247 407 147 364 
390 7 592 465 473 183 747 763 263 
391 7 96 378 528 326 608 137 741 
392 7 235 768 118 221 419 696 434 
393 7 158 639 532 18 49 396 102 
394 7 662 518 155 50 36 173 478 
395 7 274 727 621 116 708 347 656 
396 5 207 593 641 175 18 
397 7 295 14 78 776 646 670 523 
398 6 144 195 272 476 788 411 
399 6 539 481 703 11 358 631 
400 7 684 258 108 141 605 248 189 
401 2 615 52 
402 7 739 472 603 742 64 468 61 
403 6 543 645 189 134 226 157 
404 4 589 447 74 524 
405 7 79 469 779 231 521 379 511 
406 7 464 104 476 788 657 46 302 
407 7 513 147 497 364 636 88 773 
408 7 712 647 318 307 53 419 434 
409 7 574 66 736 59 132 647 540 
410 7 31 209 505 540 132 613 59 
411 4 195 294 144 398 
412 4 762 761 60 362 
413 7 766 660 717 432 299 553 39 
414 6 128 351 501 702 551 310 
415 6 303 568 698 452 70 519 
416 7 112 552 90 527 471 756 126 
417 7 282 158 643 121 57 353 197 
418 7 559 369 170 430 139 107 343 
419 7 53 434 221 86 307 235 392 
420 7 82 122 153 443 367 366 549 
421 5 706 466 343 8 345 
422 5 648 634 338 270 23 
423 7 700 123 578 33 237 113 40 
424 7 163 442 479 359 652 682 427 
425 3 140 702 501 
426 7 566 305 67 462 379 511 521 
427 7 130 359 152 479 682 163 442 
428 7 227 446 289 650 329 41 610 
429 7 439 92 482 497 364 321 773 
430 7 8 62 139 418 170 502 345 
431 7 26 455 114 622 616 666 161 
432 7 717 660 766 413 39 146 236 
433 7 273 535 541 188 693 799 16 
434 7 86 53 221 419 235 307 318 
435 7 190 749 116 477 12 665 274 
436 6 355 111 325 714 73 789 
437 6 143 199 524 45 470 467 
438 6 642 64 718 519 70 472 
439 7 429 497 364 482 92 407 513 
440 7 219 567 793 28 495 266 750 
441 6 734 445 283 83 43 253 
442 6 479 163 424 359 682 652 
443 7 153 122 367 60 761 299 48 
444 6 268 103 301 790 169 368 
445 7 94 280 83 441 594 734 565 
446 7 650 329 428 41 610 228 289 
447 7 589 404 56 721 524 55 74 
448 7 244 387 341 178 179 303 452 
449 6 651 162 225 456 320 730 
450 5 210 630 328 186 731 
451 6 285 780 179 620 244 448 
452 7 698 303 179 415 568 448 780 
453 6 496 627 115 330 695 675 
454 7 308 296 106 148 292 368 382 
455 7 431 26 622 161 666 114 507 
456 6 225 449 651 162 730 320 
457 7 576 732 641 99 593 18 257 
458 3 488 142 284 
459 6 333 753 691 290 34 288 
460 6 600 715 3 584 52 784 
461 6 385 25 735 751 760 726 
462 5 305 566 426 259 15 
463 3 583 264 17 
464 7 104 406 538 302 239 657 788 
465 7 763 183 592 263 390 386 658 
466 5 706 343 421 8 15 
467 7 492 45 143 437 470 199 372 
468 7 742 61 402 312 739 70 472 
469 7 231 521 379 67 511 405 79 
470 7 45 372 721 143 199 617 524 
471 7 172 126 264 246 416 552 599 
472 7 739 402 64 603 742 468 70 
473 7 747 679 48 390 537 386 592 
474 7 173 707 214 518 500 662 217 
475 7 165 193 500 217 611 214 278 
476 7 788 272 406 657 144 398 46 
477 7 665 656 190 435 12 708 668 
478 7 84 288 34 290 753 691 571 
479 7 442 163 424 359 682 652 427 
480 7 331 27 555 483 254 618 213 
481 6 539 11 399 358 703 548 
482 7 429 439 321 92 497 364 746 
483 7 331 653 27 618 480 213 613 
484 7 20 653 213 483 613 27 331 
485 7 349 277 782 29 778 797 61 
486 7 363 38 493 547 638 334 551 
487 2 582 109 
488 4 458 796 284 142 
489 7 332 154 657 663 272 30 731 
490 7 602 689 166 375 131 491 681 
491 6 131 181 681 689 375 17 
492 7 467 72 470 617 50 45 372 
493 7 38 350 486 547 363 638 334 
494 6 192 339 241 99 732 576 
495 7 440 37 567 68 750 125 266 
496 6 453 627 115 330 695 675 
497 7 364 439 429 407 513 147 773 
498 6 201 85 661 596 456 225 
499 6 9 194 569 740 588 534 
500 7 214 475 193 217 165 707 474 
501 4 702 128 414 351 
502 6 345 62 570 770 8 430 
503 4 157 212 134 271 
504 7 66 424 163 442 479 59 574 
505 7 31 410 209 613 213 484 27 
506 7 319 251 13 336 767 629 40 
507 7 161 666 676 542 795 716 314 
508 7 226 248 141 758 605 684 400 
509 7 76 622 314 352 114 204 666 
510 7 181 298 799 180 491 529 689 
511 7 231 67 469 379 521 426 405 
512 7 324 360 133 114 149 509 327 
513 7 407 147 497 364 773 636 342 
514 7 168 765 203 625 269 370 794 
515 7 785 309 29 778 283 517 312 
516 7 380 275 723 668 311 185 12 
517 6 312 778 61 515 742 468 
518 7 662 394 173 84 478 155 571 
519 7 70 568 64 415 438 303 698 
520 7 135 239 211 302 538 467 104 
521 7 379 469 231 67 511 405 79 
522 6 347 783 383 621 77 395 
523 7 782 255 670 659 619 29 397 
524 7 199 143 437 45 447 470 589 
525 7 787 54 320 597 554 730 694 
526 7 297 361 300 7 293 240 270 
527 7 90 687 416 726 112 751 552 
528 7 608 96 378 137 326 100 391 
529 2 180 181 
530 3 306 769 177 
531 6 283 255 789 73 355 523 
532 7 737 102 639 158 393 701 121 
533 7 35 164 243 229 58 781 95 
534 7 777 58 9 260 215 569 229 
535 7 273 16 433 799 156 693 298 
536 7 604 115 623 541 188 546 695 
537 7 587 473 390 48 761 412 654 
538 7 104 239 302 464 211 135 520 
539 6 481 399 11 703 358 548 
540 6 132 59 410 409 647 209 
541 7 188 433 693 536 273 115 604 
542 6 676 507 716 161 666 754 
543 7 645 189 403 605 141 248 226 
544 6 772 149 315 119 71 238 
545 6 63 601 557 586 127 582 
546 4 623 604 536 188 
547 7 334 638 486 493 38 363 350 
548 5 351 186 414 539 481 
549 7 556 553 420 103 82 301 146 
550 3 252 755 152 
551 6 310 128 363 414 486 38 
552 7 112 416 756 90 471 527 674 
553 7 299 146 556 432 549 413 660 
554 7 138 223 54 202 525 787 655 
555 7 254 692 342 480 331 27 483 
556 7 549 146 553 743 377 771 236 
557 5 601 586 545 127 63 
558 7 724 336 142 506 581 319 251 
559 7 418 369 107 170 51 430 139 
560 7 291 346 573 722 145 202 7 
561 6 371 748 136 337 646 295 
562 7 65 677 176 93 187 245 690 
563 7 205 32 81 242 206 757 108 
564 5 709 341 387 178 244 
565 7 159 701 75 737 280 83 102 
566 6 305 426 462 67 259 379 
567 7 219 440 495 125 354 664 182 
568 7 415 70 303 698 519 452 64 
569 5 588 9 499 215 534 
570 5 345 502 770 62 8 
571 7 91 84 691 478 89 288 34 
572 5 284 796 220 137 786 
573 7 346 560 291 722 145 7 202 
574 7 409 66 736 59 132 6 774 
575 6 237 693 700 40 767 188 
576 7 732 457 99 695 675 257 339 
577 7 323 711 340 243 238 35 360 
578 7 2 590 33 123 384 156 365 
579 7 174 110 686 109 685 271 191 
580 7 731 606 30 630 332 450 328 
581 7 336 633 319 629 558 506 160 
582 4 487 109 686 601 
583 3 463 264 17 
584 7 3 784 715 52 460 600 615 
585 7 175 593 99 339 457 641 192 
586 6 127 557 601 545 795 754 
587 7 537 654 667 57 643 705 628 
588 4 569 194 499 9 
589 5 404 447 524 74 56 
590 7 156 365 578 384 16 2 33 
591 5 271 212 63 503 110 
592 7 183 390 465 763 386 263 747 
593 7 641 18 396 457 745 257 175 
594 7 94 733 280 159 565 329 445 
595 6 635 276 649 729 42 148 
596 6 85 661 498 730 201 250 
597 7 694 320 525 787 44 651 54 
598 7 707 746 321 474 89 173 214 
599 5 728 17 681 246 172 
600 6 460 3 715 584 52 784 
601 6 557 545 63 586 582 127 
602 7 490 166 375 689 131 491 681 
603 5 739 402 472 64 607 
604 7 536 623 115 546 695 494 576 
605 7 141 248 189 684 543 226 400 
606 7 30 580 731 332 630 489 198 
607 4 603 583 463 166 
608 7 528 137 326 378 96 100 391 
609 7 781 35 97 327 688 360 323 
610 7 671 228 10 428 256 446 265 
611 7 278 101 165 193 217 36 50 
612 7 93 690 388 354 125 187 562 
613 7 213 27 209 483 653 480 331 
614 7 768 89 91 746 118 92 392 
615 4 401 52 715 460 
616 7 134 157 226 431 503 403 26 
617 7 185 372 721 470 45 275 56 
618 7 331 483 480 653 27 247 254 
619 6 659 233 789 670 105 794 
620 6 337 285 14 451 776 78 
621 7 395 727 274 347 344 522 116 
622 7 666 161 314 509 455 507 716 
623 4 546 604 536 188 
624 7 150 644 22 200 266 750 793 
625 6 168 203 514 765 759 140 
626 7 236 39 377 65 146 245 176 
627 5 453 496 330 115 695 
628 7 261 197 654 313 98 353 705 
629 7 13 319 160 720 506 336 251 
630 6 450 210 328 186 731 580 
631 7 6 774 358 703 11 481 399 
632 6 124 287 744 243 95 164 
633 7 752 69 581 151 336 160 629 
634 7 218 338 422 23 200 648 22 
635 6 595 276 649 729 42 148 
636 7 389 88 129 247 407 147 513 
637 7 74 791 24 55 447 800 56 
638 6 547 334 486 363 38 493 
639 7 49 393 532 18 158 257 745 
640 6 230 373 229 216 95 164 
641 7 593 18 745 257 457 396 675 
642 5 718 438 519 64 461 
643 2 57 417 
644 7 624 150 678 44 200 22 266 
645 7 543 189 403 32 605 205 81 
646 7 295 371 748 561 397 136 14 
647 7 318 712 408 307 53 86 434 
648 5 422 270 23 338 634 
649 6 276 595 635 729 286 42 
650 7 329 446 428 41 289 227 594 
651 6 449 162 225 456 320 730 
652 6 682 442 479 163 424 359 
653 7 483 331 27 20 213 484 618 
654 7 628 261 197 667 587 57 313 
655 7 171 54 554 223 787 525 138 
656 7 708 477 274 24 395 665 435 
657 7 154 788 272 476 489 663 406 
658 6 683 265 263 10 256 763 
659 6 619 670 233 105 789 269 
660 7 717 432 766 413 39 146 299 
661 7 85 201 250 669 596 498 317 
662 7 518 394 84 478 173 155 288 
663 7 154 272 489 657 332 788 476 
664 7 354 775 219 567 690 28 440 
665 7 190 477 12 668 380 435 275 
666 7 161 507 542 314 716 676 622 
667 7 705 256 261 654 10 628 587 
668 7 275 665 380 516 12 190 55 
669 6 250 661 85 201 596 317 
670 7 659 523 619 105 397 233 269 
671 7 610 228 10 256 265 683 658 
672 5 234 713 704 21 770 
673 7 376 184 242 304 563 205 206 
674 3 756 552 112 
675 7 257 745 18 695 457 49 576 
676 6 542 507 795 754 161 666 
677 6 798 187 286 562 690 93 
678 7 44 644 694 597 651 449 624 
679 6 747 80 366 386 473 48 
680 7 293 694 44 7 240 300 597 
681 6 131 17 728 599 375 491 
682 6 652 479 442 163 359 177 
683 6 658 265 263 10 256 763 
684 7 400 141 605 258 248 108 189 
685 3 191 356 4 
686 6 109 582 487 110 792 63 
687 7 726 527 90 751 25 385 416 
688 6 781 215 260 609 35 800 
689 7 490 491 602 181 375 131 166 
690 7 93 612 187 354 677 798 664 
691 7 753 34 288 84 478 91 459 
692 6 342 555 254 480 27 331 
693 6 188 541 575 237 535 433 
694 7 44 597 678 680 525 787 320 
695 7 576 675 732 115 257 457 745 
696 7 335 118 773 235 392 221 342 
697 6 19 749 47 116 344 727 
698 7 452 303 415 568 179 70 468 
699 7 2 33 384 123 578 113 590 
700 7 423 237 40 575 13 693 767 
701 7 75 737 565 159 83 102 280 
702 4 501 128 414 351 
703 7 11 358 481 399 539 631 6 
704 6 117 234 119 21 672 315 
705 7 667 256 261 10 628 654 228 
706 5 466 343 421 8 15 
707 7 474 214 173 598 500 217 475 
708 7 656 274 395 477 727 77 24 
709 5 564 387 341 178 448 
710 7 741 388 167 262 176 245 279 
711 7 238 577 323 340 71 243 772 
712 7 408 318 647 307 53 419 434 
713 5 382 672 292 106 234 
714 7 289 227 325 436 41 355 73 
715 7 460 52 3 600 584 784 615 
716 6 314 542 666 161 507 676 
717 7 660 432 766 413 39 146 236 
718 5 642 438 519 64 70 
719 6 208 47 435 749 12 19 
720 7 160 629 13 319 40 113 581 
721 7 372 470 45 617 56 447 143 
722 7 573 560 291 346 7 145 300 
723 4 311 380 516 12 
724 7 142 558 458 506 488 284 796 
725 3 350 493 38 
726 7 687 751 25 527 90 385 381 
727 7 395 116 274 621 749 435 708 
728 6 599 17 681 246 131 172 
729 7 42 148 595 635 296 276 649 
730 6 320 456 225 651 787 54 
731 7 580 606 30 630 663 332 450 
732 7 576 99 457 339 695 494 192 
733 7 594 353 121 282 313 98 159 
734 6 441 253 43 445 83 283 
735 6 760 461 385 120 25 726 
736 7 574 409 774 6 631 66 198 
737 7 701 159 75 102 532 565 121 
738 7 46 144 211 302 406 239 464 
739 7 402 472 603 742 64 468 61 
740 6 777 9 534 499 229 640 
741 7 262 710 388 167 326 279 267 
742 7 468 61 402 739 312 472 70 
743 7 377 771 42 556 729 146 236 
744 3 632 216 124 
745 7 257 18 675 641 457 593 49 
746 7 89 321 92 598 614 482 91 
747 6 679 473 386 592 80 390 
748 6 371 561 136 646 295 337 
749 7 116 19 435 47 697 727 274 
750 7 266 22 37 793 495 624 150 
751 7 726 25 687 381 385 527 90 
752 7 69 633 151 322 581 160 336 
753 7 34 691 290 288 459 84 478 
754 6 795 676 542 507 716 161 
755 4 550 252 152 399 
756 4 674 552 112 416 
757 7 206 242 563 5 108 81 205 
758 7 508 133 119 149 684 248 704 
759 7 203 370 625 514 784 269 52 
760 6 735 120 461 385 232 25 
761 7 412 60 762 367 362 48 122 
762 4 362 412 60 761 
763 7 465 183 263 592 390 658 386 
764 7 72 101 611 278 165 193 217 
765 7 168 514 140 625 794 203 269 
766 7 413 660 717 432 299 39 146 
767 7 251 40 506 319 13 237 575 
768 6 392 614 118 235 335 696 
769 3 177 530 306 
770 6 502 570 345 62 8 21 
771 7 743 368 42 148 729 103 556 
772 7 544 238 71 711 323 577 340 
773 7 335 696 118 513 147 407 497 
774 7 631 6 358 736 198 703 11 
775 7 664 354 201 498 219 28 690 
776 7 78 14 397 620 337 295 797 
777 7 740 534 9 229 58 499 640 
778 7 517 515 312 785 309 29 61 
779 5 79 405 292 296 308 
780 7 797 179 285 451 452 620 448 
781 7 609 35 688 533 97 327 360 
782 7 523 255 485 29 349 670 78 
783 6 383 522 347 77 621 754 
784 7 52 584 3 715 460 600 759 
785 7 309 515 29 778 283 517 255 
786 5 220 558 572 151 249 
787 7 525 54 320 597 730 554 694 
788 7 476 272 406 657 398 144 154 
789 6 619 233 659 436 111 355 
790 7 169 71 444 301 103 287 268 
791 7 74 637 800 224 24 204 404 
792 4 686 109 487 582 
793 7 266 440 750 28 162 624 495 
794 7 111 233 765 514 140 168 619 
795 6 676 754 507 542 161 666 
796 5 284 488 572 137 458 
797 7 780 179 285 451 452 277 349 
798 6 286 187 677 690 276 649 
799 7 298 510 16 535 156 273 180 
800 6 791 74 404 637 688 589 
DEPOT_SECTION
   1
   -1
EOF
