NAME :  X-n936-kX-w187-c9.cctp
COMMENT : 	Adapted by Maziero, Usberti and Cavellucci from the Uchoa, Pecin, Pessoa, Poggi, Subramanian, and Vidal (2013)
TYPE :  CCTP
DIMENSION :    850
EDGE_WEIGHT_TYPE : 	EUC_2D	
CAPACITY : 	138
VERTICES_WITHIN_COVERAGE :  9
VERTICES_WITH_DEMAND : 	187
NODE_COORD_SECTION
1 500 500
2 971 544
3 564 976
4 266 4
5 395 95
6 316 877
7 963 89
8 496 96
9 274 493
10 516 598
11 338 849
12 58 395
13 923 411
14 670 912
15 576 101
16 902 552
17 888 709
18 703 539
19 10 341
20 55 984
21 420 132
22 870 218
23 933 196
24 123 372
25 973 824
26 253 201
27 84 941
28 792 164
29 702 811
30 263 756
31 161 986
32 322 75
33 969 514
34 140 665
35 313 386
36 53 583
37 836 244
38 450 730
39 642 334
40 907 431
41 570 705
42 587 264
43 703 666
44 877 132
45 138 487
46 275 598
47 2 354
48 538 460
49 716 573
50 65 579
51 505 17
52 544 958
53 175 838
54 838 67
55 122 410
56 126 430
57 598 544
58 299 442
59 224 930
60 593 453
61 764 848
62 485 95
63 130 114
64 832 863
65 659 293
66 259 936
67 615 141
68 808 263
69 970 317
70 815 888
71 405 330
72 64 525
73 588 746
74 170 392
75 681 640
76 223 283
77 109 297
78 675 904
79 576 171
80 484 439
81 329 79
82 504 393
83 676 664
84 124 658
85 749 89
86 162 848
87 521 0
88 1 873
89 72 718
90 983 770
91 104 702
92 47 781
93 706 244
94 626 678
95 370 431
96 776 346
97 259 339
98 579 606
99 719 491
100 777 297
101 45 562
102 662 602
103 502 327
104 218 628
105 581 867
106 517 232
107 524 21
108 348 100
109 84 93
110 118 76
111 544 801
112 990 739
113 980 477
114 267 231
115 774 530
116 45 336
117 390 140
118 93 808
119 377 216
120 998 949
121 645 597
122 554 435
123 973 506
124 405 399
125 778 252
126 935 755
127 130 186
128 405 776
129 20 901
130 349 926
131 874 686
132 212 933
133 313 230
134 239 121
135 180 574
136 620 990
137 797 316
138 876 34
139 481 60
140 501 833
141 315 125
142 856 368
143 158 494
144 304 611
145 916 16
146 606 344
147 48 866
148 557 242
149 348 238
150 881 199
151 942 308
152 367 909
153 567 429
154 263 687
155 80 592
156 917 557
157 229 120
158 663 574
159 661 630
160 969 401
161 193 230
162 820 144
163 330 976
164 363 421
165 24 571
166 799 697
167 693 323
168 519 860
169 487 344
170 497 48
171 803 6
172 933 729
173 50 642
174 137 27
175 668 500
176 679 303
177 387 948
178 770 982
179 751 922
180 911 626
181 874 634
182 775 271
183 464 526
184 358 1
185 87 466
186 360 776
187 678 210
188 831 505
189 310 98
190 60 386
191 211 11
192 717 474
193 27 576
194 239 512
195 339 610
196 480 11
197 590 578
198 288 823
199 164 489
200 900 201
201 632 524
202 738 109
203 893 40
204 540 895
205 212 305
206 323 70
207 363 67
208 646 520
209 9 393
210 128 947
211 353 737
212 216 578
213 25 274
214 195 119
215 221 479
216 94 951
217 14 611
218 271 437
219 376 441
220 33 583
221 899 242
222 773 188
223 860 280
224 149 839
225 773 271
226 863 14
227 216 323
228 808 127
229 287 138
230 529 712
231 538 620
232 332 451
233 373 454
234 607 153
235 941 985
236 573 829
237 434 192
238 138 825
239 627 320
240 883 457
241 383 339
242 206 590
243 924 152
244 717 463
245 340 43
246 363 386
247 766 958
248 679 316
249 931 697
250 11 913
251 310 130
252 867 257
253 728 74
254 698 23
255 898 404
256 452 788
257 397 910
258 786 605
259 745 715
260 69 902
261 660 810
262 521 591
263 713 540
264 354 109
265 596 71
266 280 435
267 563 585
268 740 301
269 476 563
270 906 759
271 494 590
272 834 195
273 765 282
274 488 289
275 568 869
276 997 212
277 702 13
278 175 81
279 125 900
280 290 663
281 852 555
282 71 327
283 84 429
284 982 249
285 611 223
286 731 863
287 40 563
288 703 347
289 661 662
290 773 288
291 638 588
292 678 775
293 824 341
294 729 935
295 650 197
296 415 366
297 134 657
298 542 714
299 154 654
300 960 5
301 522 197
302 935 115
303 338 567
304 621 926
305 554 225
306 976 124
307 892 594
308 605 401
309 963 118
310 499 330
311 218 594
312 790 923
313 296 46
314 623 94
315 14 439
316 398 986
317 195 838
318 540 227
319 718 784
320 409 746
321 35 456
322 762 832
323 592 591
324 196 254
325 394 226
326 409 522
327 753 35
328 202 846
329 916 395
330 830 95
331 24 750
332 976 279
333 343 344
334 409 702
335 301 254
336 578 746
337 767 318
338 259 335
339 349 767
340 571 676
341 744 582
342 380 734
343 64 936
344 248 717
345 531 123
346 176 708
347 479 758
348 82 818
349 922 369
350 684 955
351 942 265
352 374 998
353 717 478
354 367 372
355 781 973
356 81 883
357 536 97
358 26 285
359 491 117
360 949 12
361 80 279
362 916 998
363 715 860
364 463 711
365 385 797
366 196 283
367 602 591
368 728 198
369 577 759
370 204 79
371 251 30
372 746 628
373 334 850
374 338 954
375 308 324
376 969 149
377 610 463
378 922 681
379 439 747
380 13 834
381 946 578
382 491 438
383 893 830
384 558 441
385 525 263
386 517 36
387 571 882
388 643 965
389 120 476
390 377 460
391 787 273
392 849 702
393 340 19
394 635 520
395 607 304
396 779 347
397 603 139
398 55 419
399 928 789
400 487 234
401 108 249
402 971 558
403 983 839
404 466 494
405 788 959
406 726 276
407 0 885
408 504 525
409 759 351
410 132 804
411 680 566
412 801 108
413 90 614
414 69 317
415 666 531
416 638 898
417 319 639
418 358 855
419 345 118
420 501 939
421 809 837
422 271 94
423 184 431
424 577 166
425 249 631
426 37 855
427 225 839
428 257 910
429 163 960
430 336 595
431 591 477
432 638 385
433 398 781
434 801 917
435 980 748
436 629 565
437 518 59
438 171 816
439 386 852
440 527 405
441 520 113
442 959 231
443 927 484
444 320 976
445 460 840
446 638 118
447 343 933
448 535 683
449 30 800
450 496 80
451 243 194
452 630 363
453 845 547
454 162 843
455 50 364
456 555 775
457 171 505
458 869 873
459 15 809
460 597 797
461 795 196
462 237 62
463 682 724
464 335 977
465 569 427
466 481 295
467 651 692
468 560 666
469 157 438
470 769 951
471 824 134
472 850 450
473 348 742
474 730 945
475 773 913
476 769 561
477 538 228
478 229 200
479 806 122
480 711 514
481 834 378
482 173 688
483 548 987
484 961 861
485 634 81
486 876 764
487 230 630
488 466 535
489 536 102
490 133 535
491 784 861
492 602 148
493 134 487
494 940 737
495 815 360
496 821 842
497 512 487
498 38 639
499 8 577
500 278 643
501 79 371
502 126 655
503 627 223
504 336 973
505 74 924
506 350 839
507 9 780
508 66 944
509 814 382
510 74 990
511 707 856
512 447 745
513 71 122
514 820 364
515 254 702
516 943 660
517 820 679
518 873 665
519 101 533
520 456 728
521 726 474
522 806 226
523 771 559
524 24 828
525 761 118
526 263 505
527 3 602
528 423 799
529 604 17
530 480 109
531 215 101
532 269 982
533 134 993
534 905 394
535 185 224
536 304 162
537 234 264
538 878 612
539 620 156
540 303 278
541 44 855
542 533 864
543 718 798
544 64 437
545 743 738
546 760 816
547 87 637
548 834 898
549 185 572
550 599 142
551 76 267
552 648 838
553 170 474
554 847 75
555 991 131
556 987 776
557 783 329
558 921 646
559 411 976
560 638 775
561 684 597
562 329 406
563 293 468
564 875 548
565 784 495
566 549 509
567 197 614
568 357 841
569 191 919
570 829 509
571 176 239
572 292 100
573 710 967
574 381 271
575 133 135
576 807 453
577 467 749
578 369 804
579 549 358
580 228 411
581 422 893
582 412 751
583 982 733
584 589 381
585 860 42
586 78 903
587 569 345
588 122 157
589 894 355
590 527 51
591 966 7
592 648 970
593 669 263
594 334 63
595 804 987
596 665 637
597 632 101
598 772 217
599 807 906
600 251 470
601 484 123
602 98 682
603 843 317
604 959 30
605 262 911
606 871 459
607 728 510
608 334 535
609 348 353
610 946 531
611 118 14
612 291 752
613 938 361
614 85 112
615 874 752
616 566 966
617 680 491
618 130 180
619 558 532
620 228 473
621 177 434
622 937 557
623 170 92
624 484 525
625 689 524
626 617 651
627 609 240
628 773 84
629 857 102
630 13 695
631 905 706
632 555 993
633 112 144
634 815 693
635 826 813
636 774 487
637 313 120
638 277 759
639 391 455
640 817 760
641 787 325
642 286 363
643 189 724
644 517 641
645 39 562
646 722 245
647 100 949
648 98 751
649 928 681
650 508 959
651 247 144
652 101 476
653 46 938
654 592 826
655 410 990
656 693 941
657 60 300
658 220 235
659 801 457
660 868 188
661 509 886
662 631 311
663 773 569
664 572 581
665 938 403
666 334 749
667 317 863
668 410 401
669 967 345
670 923 234
671 609 241
672 13 883
673 155 385
674 463 764
675 698 572
676 356 465
677 694 529
678 893 883
679 608 537
680 876 170
681 293 93
682 620 941
683 217 857
684 971 225
685 607 215
686 566 671
687 829 126
688 353 996
689 68 960
690 688 990
691 569 563
692 819 29
693 91 351
694 258 668
695 486 578
696 599 841
697 637 370
698 743 89
699 93 635
700 287 690
701 738 183
702 78 389
703 404 706
704 195 232
705 537 567
706 81 414
707 721 77
708 618 854
709 512 627
710 448 179
711 334 10
712 995 688
713 613 12
714 725 542
715 171 228
716 663 226
717 867 142
718 161 250
719 485 465
720 913 100
721 880 698
722 360 974
723 485 582
724 336 126
725 205 23
726 77 83
727 498 141
728 990 797
729 261 397
730 838 659
731 706 222
732 136 687
733 92 894
734 869 500
735 878 112
736 744 525
737 96 830
738 10 324
739 781 904
740 995 534
741 915 464
742 679 632
743 419 805
744 338 854
745 400 176
746 536 577
747 535 103
748 8 650
749 94 338
750 812 968
751 711 300
752 367 345
753 817 375
754 215 838
755 482 199
756 538 736
757 546 974
758 185 253
759 639 364
760 888 908
761 12 388
762 624 519
763 965 418
764 130 464
765 985 43
766 445 191
767 36 437
768 869 362
769 449 675
770 980 804
771 54 321
772 901 710
773 582 253
774 813 96
775 295 739
776 726 504
777 888 766
778 617 620
779 699 715
780 990 890
781 274 884
782 677 618
783 270 576
784 812 834
785 13 418
786 309 509
787 727 310
788 788 858
789 580 301
790 414 438
791 712 540
792 48 732
793 490 483
794 636 970
795 30 346
796 841 214
797 962 807
798 947 684
799 990 333
800 149 678
801 153 236
802 396 878
803 984 703
804 373 62
805 334 190
806 543 908
807 988 913
808 575 465
809 600 467
810 989 243
811 463 540
812 40 530
813 522 854
814 643 379
815 884 415
816 124 779
817 402 955
818 466 117
819 547 294
820 383 811
821 380 304
822 73 831
823 299 858
824 730 158
825 674 908
826 309 487
827 739 812
828 546 173
829 734 916
830 293 376
831 670 846
832 87 244
833 559 950
834 716 790
835 891 306
836 842 77
837 277 644
838 589 803
839 450 327
840 179 362
841 31 55
842 824 185
843 545 822
844 683 106
845 158 219
846 823 342
847 733 905
848 661 205
849 888 583
850 208 385
DEMAND_SECTION
2 88
3 98
4 94
5 89
6 83
7 65
8 85
9 66
10 89
11 80
12 58
13 54
14 75
15 60
16 77
17 69
18 79
19 99
20 86
21 63
22 84
23 92
24 87
25 54
26 93
27 58
28 62
29 98
30 50
31 71
32 55
33 61
34 76
35 76
36 88
37 51
38 78
39 71
40 90
41 90
42 87
43 80
44 74
45 83
46 79
47 77
48 58
49 53
50 99
51 62
52 95
53 61
54 84
55 86
56 91
57 79
58 93
59 76
60 88
61 68
62 80
63 59
64 82
65 53
66 67
67 90
68 51
69 99
70 72
71 70
72 85
73 80
74 80
75 81
76 100
77 60
78 74
79 52
80 70
81 70
82 53
83 92
84 55
85 73
86 63
87 55
88 68
89 100
90 69
91 77
92 55
93 68
94 81
95 89
96 70
97 59
98 76
99 51
100 99
101 92
102 78
103 75
104 84
105 98
106 81
107 96
108 99
109 100
110 71
111 50
112 76
113 80
114 55
115 51
116 79
117 62
118 86
119 62
120 79
121 81
122 84
123 72
124 77
125 61
126 64
127 70
128 84
129 90
130 63
131 74
132 92
133 93
134 58
135 99
136 98
137 57
138 50
139 87
140 85
141 62
142 83
143 82
144 89
145 97
146 68
147 52
148 81
149 91
150 64
151 68
152 87
153 85
154 100
155 74
156 66
157 59
158 95
159 67
160 86
161 58
162 92
163 69
164 92
165 64
166 75
167 52
168 91
169 70
170 52
171 66
172 68
173 61
174 72
175 60
176 70
177 83
178 53
179 57
180 70
181 71
182 61
183 86
184 54
185 73
186 79
187 97
188 86
COVERAGE_SECTION
2 9 402 740 610 33 622 123 381 156 113 
3 8 616 757 483 632 833 52 136 650 
4 7 371 313 191 725 462 711 393 
5 9 804 207 264 21 117 108 419 724 81 
6 9 667 823 373 744 11 781 418 506 568 
7 9 309 306 302 555 720 765 604 376 243 
8 9 62 450 530 359 441 601 818 139 357 
9 9 526 563 600 826 786 194 620 215 218 
10 9 262 271 709 746 231 723 695 705 644 
11 9 373 744 506 418 568 667 6 823 439 
12 9 190 702 398 706 455 501 544 283 761 
13 9 329 665 534 40 255 815 349 763 160 
14 9 825 78 416 656 350 304 682 388 592 
15 9 265 357 489 747 397 550 314 345 492 
16 9 156 564 849 622 307 610 281 381 453 
17 9 772 721 631 131 392 378 249 615 518 
18 9 791 263 677 625 714 480 675 411 49 
19 9 47 738 795 116 455 761 771 209 358 
20 9 510 689 508 653 343 216 27 647 505 
21 9 117 5 745 818 710 237 530 766 601 
22 9 150 796 660 200 221 252 37 272 680 
23 9 200 670 442 243 684 150 221 376 680 
24 9 673 55 693 501 749 702 74 840 56 
25 9 403 797 770 728 484 556 90 399 780 
26 9 451 478 114 658 651 536 537 704 133 
27 9 216 508 647 505 343 689 586 653 260 
28 9 222 461 162 842 228 471 479 272 687 
29 9 543 834 319 827 261 292 511 831 363 
30 9 638 612 775 344 515 154 700 666 198 
31 9 429 533 210 647 569 132 216 59 510 
32 9 206 81 594 189 681 108 245 313 572 
33 9 123 610 2 740 113 402 443 622 156 
34 9 297 800 84 502 299 732 482 602 91 
35 9 830 562 642 609 246 333 729 354 58 
36 9 50 220 101 287 645 193 155 165 499 
37 9 796 68 252 522 22 223 272 391 125 
38 9 520 512 379 364 577 674 347 582 320 
39 9 239 662 759 452 697 146 248 65 814 
40 9 13 255 815 741 240 329 534 665 606 
41 9 298 340 686 468 448 230 336 73 756 
42 9 773 671 627 148 789 395 285 819 305 
43 9 83 75 289 742 596 779 159 782 372 
44 9 717 735 629 680 687 720 243 471 660 
45 9 493 143 389 764 199 553 457 652 490 
46 9 783 144 425 500 837 487 311 417 430 
47 9 19 795 738 761 209 116 455 771 785 
48 9 384 122 497 808 153 465 566 382 719 
49 9 675 341 714 263 791 18 411 561 677 
50 9 36 155 101 287 645 220 193 165 413 
51 9 107 386 87 196 170 590 437 139 450 
52 9 757 833 616 3 483 650 632 420 806 
53 9 454 86 317 438 224 328 238 754 683 
54 9 836 554 330 585 774 629 692 138 412 
55 9 56 24 673 706 283 469 702 74 764 
56 9 55 469 764 283 389 706 621 652 185 
57 8 679 197 691 762 436 201 619 394 
58 9 266 563 218 232 826 562 600 9 35 
59 9 132 569 66 428 605 429 781 532 683 
60 8 809 377 808 431 153 465 384 122 
61 9 322 491 788 546 286 827 421 363 784 
62 9 8 530 450 359 601 818 139 441 727 
63 8 575 633 110 588 614 623 109 278 
64 9 496 70 421 548 784 458 788 491 599 
65 9 176 248 593 662 239 39 167 751 395 
66 9 605 428 59 132 532 781 569 444 163 
67 9 397 234 492 539 550 446 597 424 314 
68 9 391 125 37 182 225 522 290 100 273 
69 9 799 669 151 332 613 351 284 349 810 
70 9 599 548 64 434 739 788 491 312 496 
71 9 241 821 296 752 839 354 609 333 574 
72 9 812 519 101 287 645 50 36 165 652 
73 9 336 369 456 41 756 460 298 838 560 
74 9 673 840 850 423 621 469 24 55 56 
75 9 742 596 159 782 83 289 43 102 561 
76 9 537 205 366 324 227 658 758 704 161 
77 9 361 749 414 551 282 401 657 693 832 
78 9 825 14 416 656 350 304 511 831 847 
79 9 424 828 492 234 550 397 539 67 685 
80 8 382 719 793 82 440 497 48 404 
81 9 32 206 594 189 108 207 245 264 681 
82 9 440 382 80 169 579 310 122 103 384 
83 9 289 75 43 596 742 159 467 782 94 
84 9 502 297 34 299 732 800 602 699 547 
85 9 698 202 628 253 707 525 327 412 774 
86 9 454 53 224 238 438 317 328 410 754 
87 9 107 51 386 196 590 170 437 139 450 
88 9 407 672 129 426 250 380 541 147 524 
89 9 792 91 648 602 331 630 92 732 84 
90 9 556 435 728 112 770 583 797 126 494 
91 9 602 732 89 84 648 800 34 502 297 
92 9 449 507 331 459 792 348 524 118 822 
93 9 646 731 406 593 187 716 368 751 848 
94 9 626 467 289 83 340 596 159 778 686 
95 9 164 219 233 390 639 676 232 790 246 
96 9 396 409 557 641 337 137 495 846 293 
97 9 338 642 227 830 375 205 729 76 850 
98 9 323 267 664 367 197 778 231 691 746 
99 9 353 776 192 521 607 480 244 617 736 
100 9 290 273 337 182 225 391 137 641 557 
101 9 287 645 36 165 193 220 50 812 499 
102 9 121 782 561 158 159 291 742 596 411 
103 9 310 169 466 274 839 579 819 82 385 
104 9 487 567 425 311 242 212 694 837 500 
105 9 275 387 696 236 708 654 542 204 806 
106 9 477 318 400 385 301 305 148 755 274 
107 9 386 51 87 590 170 437 196 139 450 
108 9 264 419 81 724 32 207 189 206 594 
109 6 726 614 513 110 63 633 
110 9 109 63 726 614 174 623 278 575 611 
111 9 843 456 236 838 369 460 140 654 813 
112 9 583 435 90 803 556 494 712 126 172 
113 9 123 33 443 740 763 610 741 2 160 
114 9 26 335 451 133 537 658 478 540 76 
115 9 523 736 476 565 663 636 607 714 776 
116 9 771 795 282 455 414 19 738 657 47 
117 9 21 745 5 264 419 724 108 237 710 
118 9 348 737 822 410 816 238 92 648 224 
119 8 325 149 745 805 574 237 133 766 
120 8 807 780 235 484 362 403 760 678 
121 9 291 102 158 436 778 159 782 561 367 
122 9 384 153 465 48 808 440 60 431 809 
123 9 33 113 740 610 2 443 402 622 741 
124 8 668 296 790 246 95 164 354 219 
125 9 182 225 391 68 273 290 598 522 100 
126 9 494 172 270 399 435 777 90 583 556 
127 8 618 588 845 633 575 801 715 401 
128 9 433 582 365 528 320 743 820 186 379 
129 9 250 672 407 88 147 653 260 426 541 
130 9 447 152 374 177 504 722 257 163 464 
131 9 721 518 17 392 772 631 730 378 181 
132 9 59 569 66 428 605 429 31 532 683 
133 9 335 149 805 114 540 119 26 536 451 
134 9 157 651 531 422 214 229 370 572 462 
135 9 549 242 212 311 567 490 104 457 487 
136 9 794 388 592 682 3 616 304 632 690 
137 9 641 557 100 337 396 96 290 293 846 
138 9 203 585 226 145 54 554 836 692 629 
139 9 170 450 62 437 8 386 590 51 196 
140 8 813 168 445 542 843 111 661 256 
141 9 637 251 724 189 229 419 572 536 681 
142 9 768 481 514 589 753 293 495 846 509 
143 9 199 457 45 553 493 764 389 490 469 
144 9 46 417 195 430 500 837 783 280 303 
145 9 203 360 138 300 604 591 226 585 765 
146 9 452 239 39 587 759 395 697 584 662 
147 9 541 426 356 672 260 822 129 524 380 
148 9 305 318 477 773 42 385 106 627 671 
149 9 119 133 574 325 335 805 540 821 114 
150 9 660 200 22 680 796 221 272 23 670 
151 9 69 351 332 669 835 613 799 349 589 
152 9 130 257 447 802 177 374 418 581 817 
153 9 465 122 384 60 808 48 308 440 809 
154 9 515 694 700 344 280 837 500 425 775 
155 9 50 413 36 699 101 547 220 287 645 
156 9 16 622 381 610 849 564 307 402 2 
157 8 134 531 651 214 370 422 462 229 
158 9 411 102 121 291 561 436 675 415 782 
159 9 596 742 782 75 102 289 83 121 561 
160 9 763 665 13 613 329 669 349 534 40 
161 9 704 535 571 715 324 758 658 845 718 
162 9 471 687 228 479 28 412 842 717 774 
163 9 464 504 444 374 688 722 447 352 130 
164 9 95 219 233 246 562 390 232 639 676 
165 9 193 220 499 645 287 101 36 527 217 
166 9 634 517 392 730 259 640 545 131 518 
167 9 248 176 288 751 787 65 39 268 406 
168 9 813 542 661 140 204 843 275 806 387 
169 9 310 103 839 466 82 274 579 440 296 
170 9 139 386 437 590 51 450 107 196 8 
171 9 692 327 226 585 54 138 836 554 628 
172 9 494 126 249 631 772 270 798 649 17 
173 9 498 547 748 699 217 413 155 36 220 
174 7 611 110 278 725 623 191 726 
175 8 617 208 415 625 394 677 201 480 
176 9 248 65 167 751 593 39 662 787 288 
177 9 817 559 722 257 316 130 152 447 655 
178 8 355 247 405 470 595 750 474 294 
179 9 829 475 847 294 474 470 739 247 312 
180 8 558 538 307 181 516 849 518 378 
181 9 538 518 180 307 730 558 131 849 721 
182 9 225 391 273 290 125 100 68 268 337 
183 7 488 811 624 404 269 408 793 
184 9 393 711 245 804 207 594 206 313 32 
185 9 652 389 283 544 764 493 706 56 321 
186 9 339 578 365 473 666 433 211 820 128 
187 9 848 716 731 295 93 368 503 593 646 
188 9 570 734 453 565 281 576 659 472 636 
189 9 572 681 637 32 81 141 206 251 108 
190 9 12 702 455 501 398 706 693 761 283 
191 7 725 371 4 462 370 174 278 
192 8 353 521 244 99 776 607 480 617 
193 9 165 220 287 645 499 101 36 527 217 
194 9 526 215 9 620 600 457 212 563 786 
195 4 430 144 417 303 
196 9 51 170 87 107 386 139 437 590 450 
197 9 323 367 664 691 267 98 57 436 679 
198 9 823 667 373 11 744 6 781 506 427 
199 9 143 553 457 45 493 764 389 469 490 
200 9 150 23 22 660 680 670 221 243 796 
201 6 394 762 208 679 415 57 
202 9 698 85 525 253 707 628 824 844 412 
203 9 138 145 585 226 554 54 360 720 836 
204 9 806 542 661 387 275 168 813 105 833 
205 9 227 76 366 537 324 338 97 758 840 
206 9 32 81 594 189 245 313 681 108 207 
207 9 804 594 245 81 108 206 32 5 264 
208 6 394 201 762 415 175 679 
209 9 761 785 47 315 12 455 190 795 19 
210 9 647 216 429 27 533 279 31 505 689 
211 6 473 666 342 339 186 320 
212 9 242 311 549 135 567 104 487 783 46 
213 8 358 657 551 738 361 771 414 116 
214 7 531 157 623 370 278 134 651 
215 7 620 600 194 526 553 9 457 
216 9 647 27 689 508 210 343 505 510 653 
217 9 527 220 499 193 498 748 165 36 173 
218 8 266 58 563 600 729 580 9 620 
219 8 95 233 390 639 164 676 790 232 
220 9 193 165 36 287 645 101 499 50 217 
221 9 670 252 22 200 150 351 223 23 442 
222 9 461 598 28 701 368 522 842 824 272 
223 7 252 835 603 37 221 68 22 
224 9 454 86 238 53 438 410 317 328 737 
225 9 182 273 391 290 125 100 68 268 337 
226 9 138 585 203 692 145 54 171 554 836 
227 9 205 76 338 366 97 840 537 850 324 
228 9 479 471 412 162 687 774 330 28 525 
229 9 251 536 141 637 572 651 681 189 422 
230 9 298 756 448 41 340 468 686 336 364 
231 9 709 644 10 262 98 267 746 468 664 
232 9 676 58 233 95 164 563 826 219 562 
233 8 390 219 639 676 95 164 232 790 
234 9 492 539 67 550 397 424 79 446 597 
235 5 362 120 807 760 780 
236 9 654 696 843 838 105 111 275 460 708 
237 8 766 710 745 755 325 21 119 117 
238 9 224 410 454 86 438 53 737 118 816 
239 9 662 39 395 146 65 452 759 697 789 
240 9 606 741 472 40 815 734 443 255 13 
241 9 752 71 821 354 609 333 296 246 124 
242 9 311 212 567 549 135 104 487 425 783 
243 9 302 23 376 44 680 309 720 200 717 
244 6 192 521 353 99 776 617 
245 9 594 393 206 207 711 32 81 804 313 
246 9 354 164 609 562 752 124 95 333 668 
247 9 470 355 405 178 474 179 312 294 475 
248 9 176 167 65 751 288 39 662 787 239 
249 8 649 378 798 631 172 772 516 494 
250 9 129 407 672 88 653 343 260 147 508 
251 9 141 637 229 724 189 536 572 419 681 
252 7 223 37 221 22 796 835 68 
253 9 707 698 85 202 327 628 525 844 254 
254 6 277 327 253 707 698 85 
255 9 534 815 329 13 40 665 349 589 768 
256 8 674 528 743 347 577 379 512 128 
257 8 152 581 802 177 817 130 439 447 
258 8 663 372 476 341 523 730 115 49 
259 8 545 779 166 463 43 634 319 834 
260 9 586 356 505 733 343 27 147 508 653 
261 9 552 831 292 560 29 543 834 708 319 
262 9 10 746 271 705 231 695 709 723 267 
263 9 791 18 714 677 480 625 49 607 736 
264 9 108 419 724 81 141 637 5 207 189 
265 7 314 15 485 597 529 713 446 
266 9 218 58 563 729 600 232 562 580 9 
267 9 664 691 98 197 746 323 705 367 262 
268 9 787 406 751 273 337 290 100 225 182 
269 8 695 723 811 488 271 183 624 408 
270 7 777 126 486 615 399 172 494 
271 8 723 695 10 262 269 709 746 705 
272 9 842 796 660 461 522 22 150 37 680 
273 9 290 225 182 100 391 268 125 337 406 
274 8 466 103 310 385 839 169 400 819 
275 9 105 387 542 204 236 696 806 813 654 
276 9 684 810 284 442 23 376 332 351 670 
277 6 254 327 253 707 698 85 
278 7 623 370 214 531 63 110 462 
279 9 733 210 356 586 647 260 505 27 216 
280 8 500 837 700 694 154 417 425 515 
281 9 453 564 849 16 570 188 307 734 538 
282 9 414 771 749 116 657 693 455 501 795 
283 9 706 544 398 185 702 55 56 12 190 
284 9 810 684 442 332 276 351 670 69 151 
285 9 685 503 627 671 773 295 42 716 848 
286 9 363 511 61 847 322 827 491 829 546 
287 9 645 101 165 193 220 36 50 812 499 
288 7 167 248 787 751 176 409 268 
289 9 83 596 75 159 467 742 94 43 626 
290 9 100 273 182 225 391 337 268 125 137 
291 9 121 436 102 158 367 778 323 411 561 
292 9 261 560 319 834 29 543 463 779 552 
293 9 846 495 514 603 753 137 481 641 142 
294 9 474 829 179 847 656 573 470 247 350 
295 9 848 187 716 503 285 685 539 627 671 
296 9 124 668 71 241 354 752 839 246 609 
297 9 502 34 84 299 800 732 602 699 482 
298 9 230 756 41 448 336 340 686 468 73 
299 9 34 297 800 502 84 732 482 346 567 
300 9 591 360 604 145 765 203 7 138 226 
301 8 828 106 318 477 755 305 400 148 
302 9 720 309 7 243 306 376 735 555 44 
303 5 430 608 195 144 786 
304 9 682 416 388 794 14 592 825 78 136 
305 9 318 477 148 106 773 301 385 42 828 
306 9 309 555 376 7 302 243 720 765 23 
307 9 849 538 180 16 181 156 564 281 381 
308 9 584 432 465 814 452 697 153 759 60 
309 9 306 302 7 555 376 243 720 765 23 
310 9 103 169 466 274 839 579 819 82 385 
311 9 242 212 567 104 487 549 135 425 783 
312 8 434 475 739 599 470 405 179 247 
313 9 206 32 594 245 81 681 371 4 393 
314 9 597 485 446 265 15 67 397 550 492 
315 8 785 767 321 209 398 544 761 12 
316 7 655 559 352 817 177 722 688 
317 9 328 53 754 683 427 438 454 86 224 
318 9 477 305 148 106 301 385 773 400 828 
319 9 834 543 29 827 292 545 546 261 322 
320 9 582 128 379 342 433 512 703 38 334 
321 8 767 315 544 398 785 185 283 706 
322 8 61 546 827 491 788 286 421 784 
323 9 367 197 98 664 267 691 778 436 291 
324 9 758 704 161 571 366 658 535 718 715 
325 8 119 574 149 745 237 766 805 710 
326 2 183 811 
327 9 253 628 707 85 698 254 277 171 692 
328 9 317 754 683 427 53 86 454 438 224 
329 9 534 13 255 665 349 40 815 613 589 
330 9 774 836 554 629 54 687 412 479 228 
331 9 792 507 92 449 630 89 459 648 524 
332 9 284 351 69 810 151 442 684 799 669 
333 9 609 752 354 241 375 246 35 821 830 
334 6 703 342 320 769 582 38 
335 9 540 133 114 149 537 375 26 805 574 
336 9 73 369 456 756 41 298 460 838 230 
337 9 557 641 100 96 137 290 396 268 409 
338 9 97 642 227 375 830 205 729 76 850 
339 9 186 666 473 211 578 342 365 433 820 
340 9 686 468 41 448 298 626 94 230 644 
341 9 49 663 476 523 714 372 675 258 263 
342 8 211 320 473 582 703 334 339 186 
343 9 508 505 653 27 689 216 260 586 647 
344 9 515 154 30 700 694 638 775 612 643 
345 8 441 747 489 357 727 359 8 601 
346 8 482 643 800 732 34 299 297 84 
347 9 577 674 512 520 38 256 379 364 756 
348 9 118 822 737 92 410 541 449 238 816 
349 9 613 329 534 589 665 13 255 669 768 
350 9 656 573 690 592 388 14 474 825 294 
351 9 670 332 442 151 284 221 684 810 69 
352 8 688 316 722 655 559 464 504 163 
353 8 192 521 99 244 776 607 480 617 
354 9 246 609 752 241 333 124 296 164 562 
355 8 178 405 247 470 595 750 312 474 
356 9 733 586 260 147 505 541 279 426 822 
357 9 489 747 441 345 8 15 437 450 590 
358 8 213 657 738 771 551 116 361 414 
359 8 601 530 8 62 727 818 441 450 
360 9 300 591 604 145 765 203 138 7 226 
361 8 551 657 77 832 414 401 282 771 
362 4 235 760 120 750 
363 9 511 286 831 847 61 29 827 322 78 
364 9 520 38 512 577 769 379 347 674 334 
365 8 820 578 433 128 186 743 528 339 
366 9 76 205 324 758 537 227 571 718 704 
367 9 323 197 98 664 778 291 436 267 121 
368 9 701 731 824 222 646 598 93 187 461 
369 9 336 73 456 460 756 838 111 41 298 
370 7 531 278 623 462 214 157 134 
371 7 4 462 191 725 313 422 370 
372 8 258 341 43 49 663 75 742 561 
373 9 11 744 506 667 418 568 6 823 439 
374 9 504 447 163 464 444 130 722 688 177 
375 9 333 642 540 609 338 97 830 35 752 
376 9 306 555 309 243 302 23 7 276 720 
377 6 809 60 431 808 153 465 
378 8 649 249 798 516 631 558 772 17 
379 9 512 38 520 582 577 674 320 347 256 
380 9 524 459 426 541 449 88 147 672 407 
381 9 622 402 156 2 610 16 307 849 180 
382 8 80 719 793 82 440 48 497 404 
383 6 458 678 399 777 486 64 
384 9 122 153 465 48 808 60 440 431 809 
385 9 106 477 148 819 318 274 305 400 466 
386 9 107 590 51 170 437 87 139 196 450 
387 9 275 105 204 806 542 696 236 708 168 
388 9 592 794 682 136 350 304 690 656 14 
389 9 764 493 652 45 185 143 56 199 553 
390 6 233 639 219 676 95 164 
391 9 182 225 290 68 125 273 100 137 337 
392 9 131 721 634 517 17 518 730 166 772 
393 9 711 245 184 594 313 207 206 804 32 
394 6 201 208 762 679 415 175 
395 9 662 239 789 146 42 39 65 587 773 
396 9 96 557 409 641 337 137 495 514 846 
397 9 550 492 67 234 539 424 446 79 15 
398 9 544 12 706 767 283 190 702 321 785 
399 8 126 270 797 777 494 383 770 25 
400 8 106 755 385 301 477 318 274 766 
401 8 832 551 361 801 77 718 845 715 
402 9 2 381 622 740 610 33 123 156 16 
403 9 25 484 770 797 728 780 556 90 399 
404 6 793 183 719 624 488 811 
405 8 355 470 247 750 178 595 312 434 
406 9 751 268 646 787 93 273 225 182 290 
407 9 88 672 129 250 426 147 380 541 524 
408 9 624 488 497 183 793 811 269 566 404 
409 9 96 396 557 337 641 137 787 268 288 
410 9 238 816 118 224 438 737 454 348 86 
411 9 158 675 561 18 49 415 102 677 791 
412 9 479 774 228 330 687 471 628 162 525 
413 9 699 547 155 50 36 173 502 84 498 
414 9 282 771 657 116 749 361 693 77 795 
415 9 208 625 677 175 394 201 18 411 617 
416 9 304 14 78 825 682 708 552 831 105 
417 7 144 195 280 500 837 430 46 
418 9 568 506 744 11 373 439 667 802 6 
419 9 724 264 108 141 637 251 189 81 32 
420 4 650 52 806 661 
421 9 784 496 635 788 64 491 61 322 70 
422 9 572 681 189 134 229 462 157 637 251 
423 7 621 469 74 553 580 850 673 
424 9 79 492 828 234 550 397 539 67 685 
425 9 487 104 500 837 694 46 311 280 567 
426 9 541 147 524 380 672 88 822 407 129 
427 9 754 683 328 317 53 438 454 86 198 
428 9 605 66 781 59 132 683 569 823 6 
429 9 31 210 533 569 132 647 59 216 279 
430 6 195 303 144 417 608 46 
431 6 809 808 60 377 384 566 
432 8 814 697 759 452 308 584 39 146 
433 9 128 365 528 743 582 820 320 578 186 
434 8 312 599 739 475 70 548 405 470 
435 9 112 583 90 556 494 803 126 728 172 
436 9 291 158 679 121 57 367 197 201 323 
437 9 590 386 170 450 139 107 357 8 51 
438 9 53 454 224 86 317 238 410 328 754 
439 6 418 802 568 506 820 11 
440 9 82 122 153 465 384 382 579 80 48 
441 8 345 747 489 357 8 359 727 601 
442 9 684 284 810 670 351 276 23 332 221 
443 9 741 123 610 33 240 113 40 734 606 
444 9 163 464 504 374 688 722 447 532 130 
445 5 140 256 743 528 168 
446 9 597 314 67 485 397 539 550 234 492 
447 9 130 374 152 504 722 163 464 177 444 
448 9 230 468 298 686 340 41 644 756 709 
449 9 459 92 507 524 380 331 822 348 426 
450 9 8 62 139 437 170 530 359 441 590 
451 9 26 478 114 658 651 704 161 535 536 
452 9 759 697 814 432 39 146 239 308 584 
453 9 281 564 570 188 734 849 16 307 115 
454 9 86 53 224 438 238 317 328 410 754 
455 9 190 795 116 501 12 702 282 693 771 
456 9 369 111 336 756 73 838 460 843 236 
457 9 143 199 553 45 493 490 215 764 389 
458 8 678 64 760 548 383 70 496 784 
459 9 449 524 380 507 92 426 541 331 822 
460 9 838 654 236 369 696 456 560 73 111 
461 9 222 598 842 28 522 272 796 162 701 
462 7 371 370 531 422 725 191 134 
463 9 779 467 292 83 43 545 259 289 560 
464 9 504 163 444 374 722 688 352 447 130 
465 9 153 122 384 60 808 308 48 440 584 
466 8 274 103 310 839 169 385 400 819 
467 9 94 289 83 463 626 779 596 43 75 
468 9 686 340 448 41 644 231 298 230 626 
469 9 621 423 56 764 553 55 74 199 45 
470 9 247 405 355 178 179 312 475 474 294 
471 9 687 162 228 479 412 330 774 28 717 
472 8 606 240 576 659 815 734 188 40 
473 7 211 666 339 342 186 775 612 
474 9 294 829 573 179 656 247 470 847 350 
475 9 739 312 179 434 599 470 829 847 247 
476 8 523 663 115 341 736 258 714 49 
477 9 318 305 106 148 301 385 400 773 828 
478 9 451 26 658 161 704 114 535 651 324 
479 9 228 412 471 687 162 774 330 28 525 
480 9 607 776 677 99 625 18 263 791 714 
481 8 753 509 514 142 495 293 768 846 
482 9 346 800 732 299 643 34 297 84 502 
483 7 632 757 3 616 52 833 650 
484 8 403 25 780 797 807 770 728 678 
485 7 314 597 446 265 844 15 67 
486 6 615 777 270 17 399 640 
487 9 104 425 567 311 242 694 837 500 212 
488 9 811 183 624 269 408 404 695 723 793 
489 8 747 357 441 345 8 15 450 359 
490 9 519 45 143 457 493 199 389 135 549 
491 9 788 61 421 322 784 70 496 739 64 
492 9 234 550 397 67 539 424 79 446 15 
493 9 45 389 764 143 199 652 553 457 490 
494 9 172 126 270 249 435 583 631 772 112 
495 9 514 753 846 293 509 481 396 96 142 
496 9 784 421 64 635 788 491 70 61 458 
497 9 793 719 48 408 566 404 624 382 80 
498 9 173 748 217 547 527 699 220 36 413 
499 9 165 193 527 220 645 217 287 101 36 
500 9 837 280 425 694 144 417 46 154 700 
501 9 702 693 190 455 12 749 706 24 282 
502 9 84 297 34 299 800 732 602 699 547 
503 9 285 685 627 671 295 716 848 187 773 
504 9 464 163 444 374 722 688 447 352 130 
505 9 343 27 586 508 260 653 216 733 647 
506 9 568 11 418 373 744 439 578 667 820 
507 9 449 459 331 92 524 380 792 426 348 
508 9 343 689 27 653 505 216 647 20 260 
509 8 753 514 481 495 846 293 142 396 
510 9 20 689 216 508 647 27 343 653 533 
511 9 363 286 831 29 827 847 61 78 543 
512 9 379 38 520 577 674 347 582 320 364 
513 4 614 109 726 633 
514 9 495 753 509 481 846 293 142 396 96 
515 9 344 154 694 700 280 30 775 638 612 
516 6 798 558 649 378 249 180 
517 9 634 730 166 392 131 518 721 181 17 
518 9 131 181 721 730 392 17 378 558 631 
519 9 490 72 493 652 50 45 389 812 101 
520 9 38 364 512 577 379 674 347 320 582 
521 7 192 353 244 99 776 607 480 
522 9 461 37 598 68 796 125 272 842 222 
523 8 476 663 115 341 736 258 714 49 
524 9 380 459 449 426 541 147 822 507 88 
525 9 202 85 698 628 412 479 228 824 28 
526 9 9 194 600 786 620 563 215 826 218 
527 9 217 499 193 220 165 748 498 36 287 
528 7 743 128 256 433 365 820 582 
529 6 713 265 485 314 107 590 
530 8 359 62 601 818 8 450 727 441 
531 7 157 370 214 134 278 462 623 
532 9 66 444 163 464 504 59 605 428 374 
533 9 31 429 210 647 216 510 27 689 20 
534 9 329 255 13 349 815 665 40 589 613 
535 9 161 704 715 571 845 758 324 801 718 
536 9 229 251 141 805 637 724 419 651 572 
537 9 76 658 324 366 114 205 704 758 161 
538 9 181 307 849 180 518 558 730 281 564 
539 9 234 67 492 397 550 446 424 79 295 
540 9 335 375 133 114 149 537 338 97 333 
541 9 426 147 524 380 822 672 356 88 129 
542 9 168 813 204 661 275 387 843 140 806 
543 9 834 319 29 827 292 546 322 261 511 
544 9 398 283 767 706 321 185 12 315 702 
545 8 259 779 319 834 463 543 166 827 
546 8 322 827 61 543 788 491 834 319 
547 9 699 413 173 84 502 155 602 498 297 
548 9 70 599 64 434 458 312 739 760 496 
549 9 135 242 212 311 567 490 104 457 487 
550 9 397 492 234 67 539 424 79 446 15 
551 8 361 832 401 657 77 414 213 358 
552 9 831 261 708 696 654 29 416 511 560 
553 9 199 143 457 45 469 493 621 764 423 
554 9 836 54 330 629 585 774 735 138 687 
555 9 306 376 309 7 302 243 276 720 23 
556 9 90 728 435 770 112 797 583 25 126 
557 9 641 96 396 137 337 100 409 290 846 
558 8 180 516 378 649 798 181 249 518 
559 5 655 316 817 177 352 
560 9 292 261 460 838 73 369 552 336 463 
561 9 782 102 675 158 411 742 121 49 159 
562 9 35 164 246 232 58 830 95 354 609 
563 9 826 58 9 266 218 600 232 786 526 
564 9 281 16 453 849 156 734 307 570 188 
565 9 636 115 659 570 188 576 736 607 776 
566 9 619 497 408 48 808 431 691 705 57 
567 9 104 242 311 487 212 135 549 425 299 
568 8 506 418 11 744 373 439 578 820 
569 9 132 59 429 428 683 210 279 66 605 
570 9 188 453 734 565 281 115 636 659 564 
571 9 715 535 758 161 718 704 801 324 845 
572 9 681 189 422 637 141 251 229 32 81 
573 9 350 474 656 690 294 829 247 179 470 
574 8 821 149 325 119 71 241 752 540 
575 8 63 633 588 618 127 614 623 110 
576 7 659 472 636 565 188 570 606 
577 9 347 674 512 520 38 379 364 256 582 
578 8 820 365 186 433 568 506 339 128 
579 9 587 584 440 103 82 310 146 169 819 
580 7 850 729 423 218 621 266 74 
581 4 257 802 439 152 
582 9 320 128 379 433 342 512 38 703 334 
583 9 112 435 803 90 494 556 712 172 126 
584 9 308 146 587 452 579 432 697 465 153 
585 9 138 226 54 203 554 836 692 629 330 
586 9 260 733 356 505 343 27 508 279 653 
587 9 579 146 584 789 395 819 239 452 308 
588 7 633 618 575 127 63 614 513 
589 8 768 349 142 534 613 329 255 835 
590 9 437 386 107 170 51 450 139 357 87 
591 9 300 360 604 765 145 203 7 138 226 
592 9 388 794 136 350 682 690 304 656 14 
593 9 65 716 176 93 187 248 731 646 751 
594 9 206 32 81 245 207 804 108 189 313 
595 6 750 355 405 178 247 470 
596 9 159 742 75 782 289 83 102 561 121 
597 9 314 446 485 67 265 397 844 550 15 
598 9 222 461 522 125 368 701 182 225 28 
599 8 434 70 312 739 548 475 64 491 
600 8 620 215 9 526 218 563 194 266 
601 8 359 530 818 727 62 8 441 450 
602 9 91 84 732 502 89 297 34 547 699 
603 7 293 846 223 137 835 495 514 
604 9 360 591 300 765 145 7 203 138 720 
605 9 428 66 781 59 132 6 823 683 532 
606 9 240 472 734 741 40 815 188 255 443 
607 9 776 480 99 736 714 263 353 791 521 
608 6 303 786 826 430 9 676 
609 9 333 752 354 246 241 35 375 562 821 
610 9 2 622 33 123 402 156 381 16 740 
611 9 174 110 726 109 725 278 191 623 841 
612 9 775 638 30 666 344 473 339 515 700 
613 9 349 669 329 665 589 534 160 13 151 
614 6 513 109 726 633 63 110 
615 6 486 777 270 17 772 721 
616 9 3 833 757 52 483 632 650 136 682 
617 9 175 625 99 353 480 677 192 415 208 
618 7 127 588 633 575 845 801 715 
619 9 566 691 705 57 679 746 664 267 408 
620 7 215 600 194 526 9 218 553 
621 7 423 469 553 74 56 673 580 
622 9 156 381 610 402 16 2 33 849 307 
623 7 278 370 214 63 531 110 575 
624 9 183 408 488 811 404 269 793 497 695 
625 9 677 18 415 480 791 263 175 617 714 
626 9 94 778 289 159 596 340 467 686 98 
627 9 671 285 503 685 773 42 148 716 305 
628 9 85 698 525 412 774 202 253 479 707 
629 9 735 330 554 836 44 687 54 717 774 
630 9 748 792 331 498 89 173 217 507 602 
631 9 772 17 721 249 378 649 172 131 494 
632 8 483 3 757 616 52 833 650 136 
633 7 588 575 63 618 614 127 513 
634 9 517 166 392 730 131 518 721 640 259 
635 6 784 421 496 64 640 788 
636 9 565 659 115 576 736 521 607 776 99 
637 9 141 251 189 724 572 229 419 681 108 
638 9 30 612 775 344 666 515 198 700 339 
639 6 390 233 219 790 95 676 
640 6 635 615 486 166 392 634 
641 9 557 137 337 396 96 100 409 290 293 
642 9 830 35 97 338 729 375 333 562 609 
643 8 346 482 344 800 732 515 34 299 
644 9 709 231 10 448 262 468 271 686 340 
645 9 287 101 165 193 220 36 50 812 499 
646 9 93 731 406 368 125 187 593 751 225 
647 9 216 27 210 508 689 505 343 510 586 
648 9 816 89 91 792 118 92 410 348 602 
649 8 378 249 798 516 631 558 772 172 
650 4 420 52 757 483 
651 9 134 157 229 451 531 422 26 214 478 
652 9 185 389 764 493 45 283 56 544 519 
653 9 343 508 505 689 27 250 260 129 20 
654 9 696 236 838 460 708 105 843 275 111 
655 5 316 559 817 352 177 
656 9 350 573 294 14 474 825 78 829 690 
657 8 414 771 282 361 358 551 116 213 
658 9 704 161 324 537 478 535 758 571 26 
659 7 576 636 565 472 188 570 606 
660 9 150 680 22 200 272 796 842 717 44 
661 7 168 204 542 813 806 140 420 
662 9 239 39 395 65 146 248 176 452 789 
663 8 476 523 341 258 115 736 714 49 
664 9 267 197 691 323 98 367 746 705 57 
665 9 13 329 160 763 534 349 255 40 613 
666 8 473 211 339 186 775 612 342 638 
667 9 6 823 373 744 11 506 418 568 781 
668 8 124 296 790 246 95 164 219 354 
669 9 799 69 613 151 349 160 665 332 329 
670 9 221 351 442 23 200 684 22 150 252 
671 9 627 285 503 685 773 42 148 716 305 
672 9 407 88 129 250 426 147 541 380 524 
673 9 74 840 24 55 469 850 56 423 621 
674 9 577 347 512 256 379 38 520 364 528 
675 9 49 411 561 18 158 263 791 714 677 
676 7 233 390 232 219 639 95 164 
677 9 625 18 791 263 480 415 714 175 607 
678 8 760 458 383 548 64 484 70 496 
679 6 57 762 201 394 436 208 
680 9 660 150 717 44 200 22 272 243 842 
681 9 572 189 422 32 637 206 81 141 251 
682 9 304 388 794 592 416 136 14 616 833 
683 9 328 754 427 317 53 86 454 438 781 
684 9 442 810 284 276 23 351 670 332 221 
685 9 285 503 627 671 773 295 42 79 305 
686 9 340 468 448 41 298 230 626 644 231 
687 9 471 162 228 479 330 412 774 629 717 
688 9 352 722 464 504 163 444 374 316 655 
689 9 508 343 27 20 216 510 653 647 505 
690 9 573 350 592 656 388 794 474 136 294 
691 9 664 267 197 705 619 57 323 746 367 
692 9 171 54 585 226 836 554 138 327 330 
693 9 749 501 282 24 414 702 455 190 116 
694 9 154 837 280 500 515 700 425 487 344 
695 8 723 271 269 10 262 811 488 746 
696 9 654 708 236 105 838 275 460 552 387 
697 9 759 452 814 432 39 146 308 584 239 
698 9 85 202 253 707 628 525 327 412 844 
699 9 547 413 84 502 173 155 297 602 498 
700 8 154 280 515 694 344 837 500 775 
701 9 368 824 222 598 731 28 461 646 187 
702 9 190 501 12 706 398 455 283 693 24 
703 6 334 342 320 582 38 379 
704 9 161 535 571 324 758 715 658 718 845 
705 9 746 262 267 691 10 664 619 271 695 
706 9 283 702 398 544 12 190 55 501 56 
707 9 253 698 85 202 844 628 327 525 254 
708 9 696 552 654 105 416 236 275 831 387 
709 9 644 231 10 262 271 723 695 746 448 
710 9 766 237 755 745 21 727 818 400 601 
711 9 393 184 245 313 594 206 207 804 32 
712 6 803 583 798 112 516 435 
713 6 529 265 485 314 254 107 
714 9 263 791 18 736 480 49 607 677 776 
715 9 571 535 845 801 161 704 718 758 324 
716 9 848 187 295 503 593 731 93 285 627 
717 9 44 680 735 629 687 471 660 162 243 
718 9 801 571 715 758 845 324 535 161 704 
719 7 793 80 382 404 497 48 624 
720 9 302 735 44 7 243 309 629 717 203 
721 9 131 17 772 631 392 518 378 249 649 
722 9 688 504 464 352 163 374 177 316 444 
723 8 695 271 269 10 262 811 488 746 
724 9 419 141 637 264 251 108 189 81 536 
725 7 191 371 462 370 4 278 174 
726 6 109 614 513 110 841 63 
727 8 601 359 441 530 345 818 8 62 
728 9 770 556 90 797 25 403 435 112 399 
729 9 580 830 218 266 642 35 850 97 58 
730 9 517 518 634 181 392 131 166 721 538 
731 9 93 646 187 368 716 848 701 593 406 
732 9 800 34 297 84 502 91 482 299 602 
733 9 356 586 260 279 505 27 343 147 508 
734 9 188 570 606 240 564 453 472 281 741 
735 9 44 629 717 720 554 836 330 687 302 
736 9 607 714 776 115 263 480 791 99 18 
737 9 348 118 822 238 410 224 356 541 816 
738 9 19 795 47 116 358 771 213 657 455 
739 9 475 312 434 599 179 70 491 788 847 
740 9 2 33 402 123 610 113 622 381 156 
741 9 443 240 40 606 13 734 815 255 665 
742 9 75 782 596 159 83 102 289 561 43 
743 6 528 128 433 365 820 256 
744 9 11 373 506 418 568 667 6 823 439 
745 9 117 237 119 766 21 710 325 805 419 
746 9 705 262 267 10 664 691 231 271 619 
747 8 489 357 441 345 8 15 450 359 
748 9 498 217 173 630 527 220 499 193 547 
749 9 693 282 414 501 771 77 24 116 455 
750 7 595 405 355 178 470 247 312 
751 9 787 406 167 268 176 248 288 65 93 
752 9 241 609 333 354 71 246 821 296 375 
753 8 509 514 495 481 846 293 142 396 
754 9 427 328 683 317 53 438 454 86 224 
755 9 400 766 710 301 106 237 727 477 318 
756 9 298 230 336 456 41 369 73 448 347 
757 8 483 52 3 632 616 833 650 420 
758 9 324 571 704 161 718 535 715 366 801 
759 9 697 452 814 432 39 146 239 308 584 
760 6 678 458 548 64 70 383 
761 9 209 785 47 455 795 12 19 190 315 
762 6 201 394 208 679 57 415 
763 9 160 665 13 329 40 113 613 349 534 
764 9 389 493 45 652 56 469 143 553 199 
765 9 604 591 300 360 7 145 309 306 302 
766 8 237 710 755 745 400 325 21 119 
767 8 321 315 398 544 785 12 283 706 
768 8 142 589 481 534 514 293 846 255 
769 5 364 334 520 38 703 
770 9 728 797 25 556 90 403 399 435 484 
771 9 414 116 282 657 795 455 749 738 358 
772 9 631 17 721 249 131 378 172 649 494 
773 9 42 148 627 671 305 285 685 789 318 
774 9 330 412 479 228 687 836 54 471 554 
775 9 612 638 30 666 700 344 473 515 211 
776 9 607 99 480 353 736 521 192 263 714 
777 6 486 270 615 399 126 17 
778 9 626 367 121 291 323 98 159 102 197 
779 9 463 259 43 545 467 83 292 289 319 
780 8 807 484 403 120 25 770 797 728 
781 9 605 428 823 6 667 66 198 683 427 
782 9 742 159 75 102 561 596 121 83 158 
783 9 46 144 212 311 425 242 487 500 837 
784 9 421 496 635 788 64 491 61 322 70 
785 8 315 209 761 767 398 321 12 544 
786 8 826 608 9 563 526 232 676 303 
787 9 268 751 406 167 337 288 273 248 176 
788 9 491 61 421 784 322 496 70 64 739 
789 9 395 819 42 587 773 146 239 662 148 
790 6 639 668 219 124 390 233 
791 9 263 18 714 677 480 625 49 607 675 
792 9 89 331 92 630 648 507 91 449 602 
793 8 719 497 404 624 80 408 382 183 
794 9 388 592 136 682 304 350 690 656 14 
795 9 116 19 455 47 738 771 282 761 414 
796 9 272 22 37 842 522 660 150 461 252 
797 9 770 25 728 399 403 556 90 484 126 
798 7 649 249 516 378 803 558 172 
799 9 69 669 151 332 613 160 349 351 284 
800 9 34 732 299 297 482 84 502 346 91 
801 9 718 845 715 571 535 758 161 704 324 
802 6 439 581 257 152 418 568 
803 7 712 583 112 798 435 249 494 
804 9 207 245 594 5 108 81 206 264 32 
805 9 536 133 119 149 724 251 745 141 229 
806 9 204 387 661 542 833 275 52 420 168 
807 8 780 120 484 403 235 25 678 760 
808 9 431 60 809 384 377 48 122 153 465 
809 6 377 431 60 808 384 153 
810 9 284 684 276 442 332 351 670 23 69 
811 9 488 183 269 624 408 695 404 723 326 
812 9 72 101 645 287 165 193 220 36 50 
813 9 168 542 140 661 843 204 275 387 111 
814 9 432 697 759 452 308 39 146 584 239 
815 9 255 40 534 329 13 240 606 472 142 
816 8 410 648 118 238 348 737 438 224 
817 6 177 559 316 655 257 722 
818 8 530 601 359 62 8 727 21 450 
819 9 789 385 42 148 773 103 587 274 310 
820 7 365 578 433 743 568 128 439 
821 9 574 241 71 752 333 609 354 296 149 
822 9 348 737 118 541 147 426 524 356 449 
823 9 667 6 373 781 198 744 11 506 418 
824 9 701 368 202 525 222 28 731 698 844 
825 9 78 14 416 656 350 304 847 294 829 
826 9 786 563 9 232 58 526 676 608 266 
827 9 546 543 322 834 319 29 61 286 363 
828 8 79 424 301 345 305 318 477 727 
829 9 847 179 294 474 475 656 470 739 247 
830 9 642 35 729 562 97 338 375 333 266 
831 9 552 261 511 29 363 708 78 416 825 
832 8 401 551 361 77 657 801 213 127 
833 9 52 616 3 757 483 632 806 650 204 
834 9 319 543 29 827 292 546 261 545 322 
835 7 223 589 603 151 252 768 221 
836 9 554 54 330 629 774 585 735 412 687 
837 9 500 280 425 694 417 144 154 46 700 
838 9 460 654 236 696 456 111 369 843 560 
839 9 169 71 466 310 103 296 274 241 821 
840 9 74 673 850 227 24 205 423 580 621 
841 5 726 109 513 614 110 
842 9 272 461 796 28 162 660 522 222 471 
843 9 111 236 813 542 140 168 654 456 838 
844 9 446 707 597 202 253 485 314 698 85 
845 9 715 801 535 571 718 161 704 127 758 
846 9 293 495 514 603 753 137 481 641 509 
847 9 829 179 294 474 475 286 363 739 656 
848 9 295 187 716 503 731 285 685 593 93 
849 9 307 538 16 564 156 281 180 181 622 
850 7 580 840 74 423 673 729 621 
DEPOT_SECTION
   1
   -1
EOF
