NAME :  X-n916-kX-w183-c7.cctp
COMMENT : 	Adapted by Maziero, Usberti and Cavellucci from the Uchoa, Pecin, Pessoa, Poggi, Subramanian, and Vidal (2013)
TYPE :  CCTP
DIMENSION :    670
EDGE_WEIGHT_TYPE : 	EUC_2D	
CAPACITY : 	33
VERTICES_WITHIN_COVERAGE :  7
VERTICES_WITH_DEMAND : 	183
NODE_COORD_SECTION
1 0 0
2 471 44
3 63 475
4 766 504
5 895 595
6 816 377
7 462 590
8 997 596
9 775 993
10 16 97
11 839 348
12 558 896
13 423 912
14 169 411
15 75 602
16 402 52
17 388 208
18 202 39
19 510 841
20 555 484
21 920 633
22 369 718
23 432 696
24 624 872
25 472 323
26 753 701
27 584 440
28 292 665
29 202 310
30 764 255
31 662 486
32 822 575
33 469 13
34 640 165
35 814 886
36 554 82
37 336 745
38 950 229
39 142 835
40 407 932
41 69 205
42 86 764
43 202 165
44 376 632
45 639 987
46 775 98
47 503 855
48 38 960
49 215 73
50 566 78
51 4 517
52 44 457
53 676 337
54 338 568
55 623 911
56 626 931
57 97 43
58 799 942
59 725 430
60 93 953
61 264 347
62 986 595
63 631 614
64 331 362
65 158 793
66 760 436
67 115 641
68 307 764
69 469 817
70 315 388
71 906 830
72 564 25
73 88 246
74 671 892
75 181 139
76 723 784
77 609 798
78 174 403
79 76 671
80 984 939
81 830 579
82 3 893
83 176 164
84 625 158
85 249 590
86 663 347
87 21 500
88 501 372
89 572 218
90 483 270
91 604 201
92 548 281
93 205 745
94 125 178
95 870 931
96 276 846
97 759 839
98 79 105
99 218 992
100 277 797
101 545 62
102 161 102
103 1 827
104 719 128
105 80 366
106 16 732
107 24 521
108 848 600
109 585 594
110 618 577
111 44 300
112 489 239
113 479 978
114 768 731
115 274 30
116 546 837
117 890 640
118 594 308
119 878 716
120 498 448
121 145 96
122 54 935
123 473 5
124 906 899
125 277 752
126 435 254
127 630 686
128 905 275
129 521 401
130 850 425
131 374 186
132 712 433
133 814 730
134 740 622
135 681 74
136 120 490
137 297 816
138 376 534
139 982 560
140 1 332
141 815 625
142 356 868
143 659 994
144 804 110
145 415 517
146 106 844
147 549 366
148 57 742
149 848 739
150 381 700
151 442 808
152 867 408
153 67 930
154 763 186
155 581 91
156 416 56
157 729 620
158 163 73
159 160 129
160 468 902
161 694 730
162 319 644
163 831 476
164 863 921
165 524 71
166 299 197
167 193 823
168 18 360
169 987 845
170 998 548
171 302 506
172 432 229
173 550 142
174 637 527
175 168 0
176 178 804
177 888 448
178 270 481
179 250 421
180 410 125
181 373 134
182 275 772
183 965 25
184 858 502
185 587 967
186 178 710
187 331 4
188 811 598
189 560 886
190 712 512
191 216 974
192 528 75
193 840 109
194 980 512
195 90 78
196 665 990
197 400 702
198 131 24
199 238 610
200 392 541
201 40 394
202 713 806
203 823 571
204 863 568
205 145 20
206 509 893
207 629 447
208 717 78
209 525 774
210 695 620
211 721 979
212 594 451
213 514 110
214 899 994
215 772 937
216 877 942
217 533 82
218 399 742
219 273 688
220 360 780
221 650 339
222 272 771
223 362 515
224 716 823
225 307 627
226 787 639
227 28 212
228 38 119
229 130 518
230 535 632
231 832 952
232 874 955
233 106 653
234 440 485
235 73 329
236 934 692
237 638 325
238 126 820
239 382 958
240 884 840
241 706 90
242 424 652
243 216 964
244 841 543
245 863 886
246 361 490
247 266 457
248 179 817
249 430 197
250 512 412
251 111 1
252 811 631
253 366 758
254 227 575
255 398 905
256 897 410
257 285 104
258 245 215
259 569 401
260 159 310
261 20 90
262 212 39
263 13 641
264 855 610
265 95 571
266 780 936
267 63 84
268 977 62
269 405 258
270 995 89
271 334 695
272 265 783
273 988 790
274 68 368
275 497 712
276 676 581
277 625 400
278 791 162
279 351 55
280 572 827
281 584 930
282 110 723
283 942 467
284 540 63
285 202 848
286 161 162
287 272 788
288 137 87
289 177 274
290 324 842
291 229 434
292 916 866
293 634 157
294 42 213
295 655 154
296 460 506
297 21 698
298 435 615
299 120 425
300 54 726
301 475 624
302 923 980
303 391 94
304 463 618
305 568 659
306 999 831
307 719 93
308 796 547
309 123 595
310 515 939
311 898 486
312 695 337
313 40 727
314 217 284
315 910 245
316 536 956
317 262 332
318 91 91
319 697 755
320 894 726
321 919 962
322 703 346
323 416 895
324 330 596
325 475 780
326 365 803
327 844 845
328 802 755
329 77 246
330 266 819
331 759 835
332 71 176
333 244 82
334 564 436
335 749 216
336 30 624
337 677 208
338 582 317
339 421 870
340 183 454
341 442 766
342 875 497
343 217 979
344 867 873
345 280 473
346 582 382
347 35 597
348 527 786
349 991 617
350 448 513
351 581 780
352 415 498
353 964 211
354 886 296
355 696 784
356 102 90
357 227 699
358 76 258
359 705 580
360 752 531
361 246 128
362 834 350
363 838 453
364 809 825
365 468 650
366 523 626
367 110 964
368 422 180
369 940 246
370 513 333
371 446 78
372 992 939
373 58 941
374 24 763
375 17 536
376 70 381
377 142 464
378 621 976
379 878 960
380 286 774
381 349 202
382 841 520
383 134 20
384 278 847
385 103 639
386 555 920
387 427 289
388 987 735
389 608 750
390 471 58
391 482 339
392 319 913
393 966 994
394 225 777
395 501 384
396 3 25
397 259 851
398 632 304
399 180 66
400 300 608
401 591 113
402 569 817
403 165 31
404 137 397
405 820 139
406 858 354
407 846 618
408 0 438
409 308 337
410 772 594
411 684 931
412 76 667
413 750 130
414 538 354
415 725 339
416 758 410
417 664 460
418 90 978
419 898 281
420 480 247
421 441 215
422 30 919
423 481 281
424 680 2
425 262 513
426 291 346
427 297 568
428 248 393
429 41 933
430 32 959
431 790 155
432 351 192
433 402 223
434 356 901
435 50 932
436 456 587
437 993 242
438 499 264
439 801 81
440 22 856
441 120 843
442 285 767
443 62 901
444 923 284
445 647 167
446 284 481
447 226 446
448 681 214
449 10 764
450 303 406
451 306 364
452 443 329
453 256 544
454 99 834
455 246 156
456 244 466
457 744 203
458 795 267
459 403 167
460 80 925
461 918 400
462 122 356
463 970 207
464 481 228
465 159 405
466 142 807
467 631 386
468 927 39
469 374 989
470 269 417
471 568 286
472 936 279
473 869 414
474 197 686
475 187 768
476 369 80
477 166 764
478 908 249
479 224 440
480 337 486
481 74 791
482 787 73
483 787 362
484 750 177
485 547 281
486 24 961
487 887 262
488 687 320
489 156 826
490 310 852
491 297 604
492 122 849
493 500 280
494 308 485
495 216 326
496 788 310
497 120 859
498 50 951
499 521 285
500 566 179
501 51 802
502 234 720
503 602 414
504 568 274
505 363 614
506 262 418
507 266 562
508 21 904
509 464 235
510 436 737
511 85 979
512 883 290
513 553 441
514 118 745
515 494 238
516 348 368
517 281 341
518 437 236
519 479 274
520 589 30
521 486 301
522 261 354
523 169 825
524 934 247
525 491 210
526 547 203
527 810 114
528 366 344
529 121 678
530 150 301
531 520 532
532 185 796
533 184 339
534 113 864
535 785 101
536 944 220
537 392 85
538 223 275
539 451 269
540 213 987
541 435 278
542 590 292
543 816 399
544 10 893
545 932 281
546 431 819
547 915 417
548 248 506
549 507 957
550 610 313
551 104 710
552 445 305
553 91 921
554 530 28
555 772 457
556 568 311
557 420 267
558 721 109
559 649 30
560 792 295
561 310 398
562 108 980
563 113 943
564 627 268
565 469 247
566 293 476
567 48 802
568 299 571
569 247 818
570 319 377
571 212 832
572 506 64
573 277 359
574 325 320
575 720 133
576 82 861
577 585 222
578 496 113
579 131 436
580 280 364
581 175 812
582 678 290
583 960 590
584 927 210
585 287 535
586 494 399
587 563 224
588 227 316
589 345 175
590 125 846
591 420 185
592 904 280
593 63 942
594 234 500
595 16 979
596 746 95
597 110 822
598 874 368
599 343 882
600 16 952
601 698 290
602 836 112
603 392 244
604 822 706
605 567 222
606 569 663
607 254 984
608 939 225
609 64 517
610 875 542
611 786 222
612 205 294
613 189 798
614 93 968
615 296 871
616 497 523
617 329 391
618 548 355
619 630 125
620 322 213
621 897 281
622 474 446
623 221 764
624 390 957
625 435 336
626 862 457
627 144 827
628 131 239
629 396 258
630 484 279
631 252 836
632 413 905
633 775 116
634 932 226
635 807 379
636 254 997
637 332 319
638 808 87
639 549 147
640 456 720
641 185 820
642 18 846
643 50 970
644 370 207
645 46 964
646 541 303
647 206 314
648 533 279
649 307 397
650 390 508
651 561 527
652 709 161
653 47 963
654 786 186
655 960 209
656 698 347
657 923 254
658 408 243
659 677 170
660 510 245
661 39 922
662 37 1000
663 112 334
664 133 830
665 107 466
666 798 121
667 224 769
668 503 237
669 294 796
670 996 220
DEMAND_SECTION
2 8
3 6
4 7
5 6
6 10
7 10
8 5
9 7
10 8
11 8
12 6
13 6
14 6
15 6
16 5
17 8
18 6
19 10
20 9
21 8
22 9
23 6
24 10
25 10
26 6
27 6
28 6
29 9
30 9
31 10
32 9
33 6
34 5
35 5
36 6
37 10
38 8
39 5
40 6
41 9
42 8
43 7
44 8
45 6
46 7
47 6
48 5
49 7
50 9
51 8
52 8
53 10
54 8
55 7
56 10
57 6
58 5
59 6
60 10
61 7
62 6
63 7
64 8
65 9
66 9
67 9
68 6
69 10
70 7
71 9
72 5
73 7
74 9
75 6
76 5
77 9
78 6
79 5
80 5
81 5
82 7
83 10
84 10
85 6
86 9
87 7
88 10
89 10
90 7
91 10
92 7
93 9
94 5
95 9
96 8
97 7
98 8
99 10
100 10
101 7
102 10
103 6
104 6
105 5
106 10
107 10
108 6
109 5
110 7
111 7
112 5
113 5
114 7
115 9
116 9
117 8
118 5
119 7
120 9
121 7
122 7
123 9
124 5
125 9
126 5
127 6
128 6
129 8
130 10
131 7
132 8
133 9
134 10
135 6
136 8
137 7
138 6
139 7
140 5
141 5
142 6
143 8
144 10
145 10
146 8
147 10
148 9
149 6
150 10
151 5
152 5
153 7
154 5
155 10
156 6
157 8
158 8
159 5
160 9
161 6
162 7
163 7
164 6
165 9
166 8
167 10
168 10
169 6
170 9
171 9
172 5
173 5
174 8
175 10
176 6
177 8
178 5
179 7
180 5
181 5
182 10
183 9
184 10
COVERAGE_SECTION
2 7 390 33 123 572 371 156 165 
3 7 52 609 665 87 136 107 51 
4 7 360 555 308 190 66 163 382 
5 7 204 264 21 117 108 407 610 
6 7 635 543 362 483 11 406 130 
7 7 436 304 301 298 365 366 242 
8 7 62 349 583 139 170 21 194 
9 7 58 211 215 266 231 232 379 
10 7 261 228 267 98 396 318 195 
11 5 362 406 6 598 635 
12 7 189 386 281 206 116 310 316 
13 7 632 323 40 255 339 160 624 
14 7 78 465 404 340 579 299 377 
15 7 265 347 385 309 336 67 233 
16 7 156 537 303 476 279 371 2 
17 7 644 433 131 603 381 591 432 
18 7 262 399 49 403 158 175 205 
19 7 47 116 69 206 348 280 402 
20 7 513 651 334 212 27 531 120 
21 7 117 5 583 236 264 349 62 
22 7 150 197 218 253 271 37 220 
23 7 197 640 510 242 150 218 365 
24 7 55 74 56 189 280 12 281 
25 7 391 521 452 552 625 370 423 
26 7 114 161 133 604 226 328 319 
27 7 212 334 513 503 259 207 20 
28 7 219 162 225 271 400 491 357 
29 6 647 612 495 588 314 533 
30 6 458 611 335 560 457 496 
31 7 417 174 207 190 132 212 59 
32 7 203 81 188 108 244 308 204 
33 7 123 2 390 554 572 156 371 
34 7 445 293 84 295 659 619 91 
35 7 245 327 344 58 164 266 364 
36 7 50 217 101 284 192 155 165 
37 7 253 68 220 22 271 442 380 
38 7 536 608 634 369 655 353 524 
39 7 627 664 489 590 238 441 492 
40 7 13 255 632 624 239 323 434 
41 7 294 332 227 329 73 358 94 
42 6 481 148 514 282 300 501 
43 7 83 75 286 455 159 361 258 
44 7 505 242 162 324 298 150 225 
45 7 143 378 196 185 56 411 55 
46 7 535 633 482 596 144 439 666 
47 7 19 206 116 69 160 189 12 
48 7 430 645 653 486 498 643 600 
49 7 333 262 18 399 158 102 361 
50 7 36 155 101 284 217 192 165 
51 7 107 375 87 609 3 52 408 
52 7 3 408 87 201 609 665 107 
53 7 86 312 488 656 221 322 237 
54 7 324 568 427 138 505 400 491 
55 7 56 24 281 74 411 378 12 
56 7 55 281 378 185 45 411 24 
57 7 195 198 251 383 356 318 205 
58 7 266 215 231 9 35 164 95 
59 7 132 66 416 555 417 190 31 
60 5 614 367 563 418 511 
61 6 522 317 517 573 580 426 
62 7 8 349 583 139 170 21 194 
63 7 110 109 276 210 127 305 606 
64 7 516 570 451 617 70 409 528 
65 7 466 176 581 532 477 613 248 
66 7 555 416 59 132 543 4 635 
67 7 385 233 529 309 412 79 15 
68 7 442 380 125 182 37 669 222 
69 7 151 325 546 19 47 341 348 
70 7 561 570 649 617 450 451 64 
71 7 240 292 344 327 124 245 169 
72 7 520 554 101 284 50 36 165 
73 7 329 358 628 41 294 227 111 
74 7 411 24 55 56 224 281 202 
75 7 159 83 286 43 102 121 361 
76 7 202 355 319 224 161 331 97 
77 6 351 402 280 389 116 24 
78 6 14 465 404 340 579 299 
79 7 412 233 385 529 551 67 300 
80 7 372 393 321 302 124 169 292 
81 7 32 203 188 108 204 244 264 
82 5 544 508 422 440 661 
83 7 286 75 43 159 94 102 455 
84 7 293 34 445 295 619 91 659 
85 7 199 254 507 453 491 427 568 
86 7 221 53 237 312 656 488 322 
87 7 107 51 375 609 3 52 408 
88 7 395 586 129 391 250 370 414 
89 5 605 587 577 526 91 
90 7 519 630 423 438 493 420 565 
91 7 577 89 605 500 587 84 34 
92 6 485 648 471 504 646 499 
93 7 623 475 667 394 502 477 186 
94 7 286 83 332 159 628 41 75 
95 7 164 216 232 379 231 245 124 
96 7 384 397 631 330 615 490 137 
97 7 331 224 364 202 76 35 355 
98 7 318 267 356 195 228 261 288 
99 6 540 343 191 243 636 607 
100 7 287 669 272 182 330 380 222 
101 7 284 192 36 165 217 50 554 
102 7 121 159 288 158 399 75 286 
103 5 642 440 567 501 449 
104 7 575 558 413 652 307 241 596 
105 7 274 376 235 462 663 201 168 
106 7 313 374 449 297 300 148 42 
107 7 375 51 87 609 3 52 347 
108 7 264 407 81 204 32 188 203 
109 7 110 63 230 305 366 606 651 
110 7 109 63 174 276 651 359 210 
111 7 235 358 140 329 168 73 274 
112 7 515 420 464 668 565 660 509 
113 7 549 310 316 160 40 13 206 
114 7 26 328 133 604 76 161 319 
115 7 333 187 262 18 49 257 279 
116 7 280 402 19 47 189 348 12 
117 7 21 5 264 407 108 236 141 
118 7 338 542 550 556 471 398 504 
119 7 320 149 604 236 133 117 328 
120 7 622 250 586 129 513 395 20 
121 7 288 102 158 159 356 399 318 
122 7 435 373 593 429 153 498 661 
123 7 33 2 390 554 572 156 371 
124 7 292 245 344 95 164 216 240 
125 7 442 182 222 380 68 272 287 
126 7 518 557 539 541 172 658 269 
127 7 606 305 389 63 161 210 319 
128 7 592 419 621 444 487 478 512 
129 7 250 395 586 88 147 259 414 
130 7 473 152 363 626 543 177 256 
131 7 644 432 17 381 589 459 433 
132 7 59 66 416 417 555 31 190 
133 7 604 328 149 114 119 26 320 
134 7 157 410 210 226 359 252 141 
135 6 241 208 307 558 559 104 
136 7 665 229 377 579 3 609 299 
137 7 669 100 330 384 96 290 287 
138 7 200 223 650 145 246 54 352 
139 7 170 62 583 8 194 349 5 
140 7 168 111 235 201 274 376 105 
141 7 252 188 226 407 108 264 81 
142 7 599 434 290 490 255 392 615 
143 7 196 45 378 211 411 56 185 
144 7 527 666 535 638 439 633 46 
145 7 352 650 200 350 234 138 296 
146 7 454 441 492 590 497 534 597 
147 7 618 414 346 259 129 88 370 
148 7 300 313 42 374 106 449 481 
149 7 133 119 604 320 328 114 364 
150 7 197 22 218 271 23 253 37 
151 6 546 69 341 325 339 510 
152 7 473 130 256 598 177 547 626 
153 5 593 122 373 460 435 
154 6 484 654 457 335 278 431 
155 7 50 401 36 101 217 284 192 
156 7 16 371 537 303 476 390 2 
157 7 134 210 359 410 226 276 252 
158 7 399 102 121 288 403 18 49 
159 7 75 102 286 121 83 288 43 
160 7 206 13 323 632 339 47 310 
161 7 319 355 76 26 114 127 202 
162 7 225 28 400 491 324 271 505 
163 7 363 626 184 382 342 130 555 
164 7 95 216 245 232 379 231 124 
165 7 192 217 284 572 101 36 213 
166 7 620 381 589 432 258 455 644 
167 7 641 248 571 581 176 523 613 
168 7 140 201 274 376 105 235 111 
169 7 306 273 292 71 80 372 124 
170 7 139 194 8 62 583 349 283 
171 7 494 446 566 585 345 480 178 
172 7 518 421 126 658 433 249 509 
173 6 639 500 213 401 36 155 
174 7 31 110 276 417 190 651 207 
175 7 205 403 383 198 18 251 262 
176 7 581 532 248 613 641 65 523 
177 7 626 256 311 473 547 130 152 
178 6 345 446 247 566 456 425 
179 5 506 470 291 428 479 
180 7 303 181 459 537 368 371 476 
181 7 180 303 459 589 131 537 476 
182 7 222 380 442 272 287 125 100 
183 3 268 468 270 
184 7 342 382 163 311 610 244 626 
185 7 378 281 316 56 45 386 55 
186 4 474 93 357 477 
187 7 279 115 476 16 156 537 303 
188 7 32 81 141 203 252 108 410 
189 7 12 386 281 116 206 280 47 
190 7 360 4 31 359 417 174 276 
191 5 343 243 540 99 607 
192 7 165 217 284 101 572 36 50 
193 3 602 527 144 
194 6 170 139 283 583 62 8 
195 7 318 356 267 98 57 288 121 
196 7 143 45 378 211 411 56 185 
197 7 150 23 22 218 510 242 640 
198 7 383 205 251 403 57 175 158 
199 7 85 254 507 491 400 453 225 
200 7 138 145 650 223 352 54 246 
201 7 376 274 168 105 408 52 140 
202 7 224 76 355 319 331 97 161 
203 7 32 81 188 244 308 108 204 
204 7 610 244 81 108 203 5 32 
205 7 383 198 403 175 251 57 158 
206 7 47 160 310 12 189 19 386 
207 7 212 417 503 27 277 31 467 
208 5 307 241 558 596 135 
209 5 348 325 351 402 116 
210 7 157 359 276 134 63 410 110 
211 7 9 196 411 143 215 266 45 
212 7 27 334 207 503 513 20 259 
213 6 578 217 192 165 572 173 
214 7 302 321 379 232 216 393 95 
215 7 266 58 9 231 35 211 411 
216 7 95 232 379 164 231 321 124 
217 7 192 165 284 36 101 572 50 
218 7 253 510 22 197 150 341 220 
219 7 28 357 502 271 125 162 225 
220 7 253 326 37 218 68 22 669 
221 7 86 237 53 398 488 312 550 
222 7 182 272 380 442 287 125 100 
223 7 138 246 650 480 200 145 352 
224 7 202 76 355 331 97 319 74 
225 7 400 162 491 324 28 505 568 
226 7 252 141 410 188 134 157 407 
227 7 294 41 332 329 358 73 111 
228 7 10 261 98 267 318 195 332 
229 5 136 377 665 265 609 
230 7 366 305 606 301 109 365 304 
231 7 58 232 95 164 216 379 266 
232 7 379 216 95 164 231 214 321 
233 6 385 67 529 412 79 551 
234 5 352 296 350 145 622 
235 7 105 274 663 111 376 462 168 
236 7 320 21 119 117 388 349 149 
237 7 221 398 550 86 53 118 488 
238 5 664 597 627 466 39 
239 7 624 469 40 255 632 13 434 
240 7 71 344 327 292 245 124 364 
241 6 307 208 558 135 104 596 
242 7 298 365 23 44 304 197 301 
243 4 191 343 540 99 
244 7 382 203 204 610 32 81 184 
245 7 344 164 124 327 95 35 240 
246 5 480 223 650 138 494 
247 4 345 178 456 446 
248 7 581 641 176 523 167 613 532 
249 5 591 368 421 172 433 
250 7 129 586 395 120 88 513 622 
251 7 198 383 205 57 175 403 195 
252 7 141 226 188 407 108 264 410 
253 7 220 37 218 22 326 68 150 
254 4 85 199 507 453 
255 7 632 323 13 40 339 434 624 
256 7 547 461 473 152 177 598 130 
257 7 361 333 455 115 49 279 476 
258 6 166 455 538 43 314 620 
259 7 346 334 503 147 27 513 129 
260 7 530 533 289 29 647 612 663 
261 7 10 228 267 98 396 195 318 
262 7 18 49 399 403 333 175 158 
263 7 336 347 297 412 79 15 313 
264 7 108 407 81 5 141 204 117 
265 7 15 309 609 229 347 385 67 
266 7 215 58 231 9 35 211 164 
267 7 98 195 318 356 228 261 10 
268 3 270 183 468 
269 7 629 658 557 603 126 433 541 
270 2 268 183 
271 7 22 150 37 28 162 219 197 
272 6 287 222 182 100 380 442 
273 7 306 169 388 71 292 236 320 
274 7 105 376 201 235 168 462 663 
275 5 640 510 23 209 365 
276 7 359 210 63 110 157 174 134 
277 7 467 503 207 346 259 27 212 
278 4 431 654 154 405 
279 7 476 16 537 187 303 156 115 
280 7 402 116 77 351 189 348 19 
281 7 386 185 56 12 55 189 316 
282 4 551 514 529 42 
283 4 311 177 547 194 
284 7 101 192 165 217 36 50 572 
285 5 571 167 641 248 523 
286 7 83 75 159 94 43 102 121 
287 7 272 100 182 222 380 669 442 
288 7 121 102 158 356 318 159 195 
289 7 612 530 260 314 29 538 647 
290 7 490 137 615 142 599 384 96 
291 7 479 447 179 456 506 470 247 
292 7 124 71 240 344 245 169 327 
293 7 84 34 445 295 619 659 91 
294 7 227 41 332 329 358 73 111 
295 7 445 34 293 659 84 619 652 
296 7 350 234 616 145 352 622 531 
297 7 106 313 300 148 263 79 412 
298 7 304 436 7 242 301 365 44 
299 7 579 404 665 465 377 14 78 
300 7 313 148 106 297 374 42 551 
301 7 304 365 7 298 436 366 242 
302 7 321 214 393 379 232 216 95 
303 7 537 476 180 16 181 156 279 
304 7 301 7 298 365 436 242 366 
305 7 606 230 366 109 127 63 275 
306 7 169 273 292 71 388 372 80 
307 6 241 208 558 596 104 575 
308 7 203 32 244 81 360 4 382 
309 7 265 67 385 15 233 229 529 
310 7 549 316 386 206 113 160 12 
311 6 342 177 184 626 283 610 
312 7 656 322 53 488 415 86 221 
313 7 300 148 106 297 374 449 42 
314 6 538 612 29 647 588 289 
315 6 478 657 524 487 634 128 
316 7 310 549 386 185 281 113 12 
317 4 61 517 522 573 
318 7 356 195 98 267 288 57 121 
319 7 161 355 76 202 224 114 26 
320 7 119 149 236 604 133 117 388 
321 7 302 214 379 232 216 393 95 
322 6 656 312 415 53 488 86 
323 7 632 13 255 339 40 160 434 
324 7 54 400 491 505 225 568 427 
325 6 341 69 151 209 348 510 
326 7 220 253 290 37 142 546 137 
327 7 344 240 364 245 35 71 292 
328 7 133 114 149 604 364 26 76 
329 7 73 358 41 294 628 227 111 
330 6 569 631 100 96 384 137 
331 7 97 224 364 202 76 35 355 
332 7 41 294 94 227 228 329 98 
333 7 49 361 257 262 18 115 399 
334 7 513 27 212 259 503 20 129 
335 7 457 154 611 484 30 654 278 
336 7 263 347 15 412 79 297 385 
337 7 448 659 445 34 652 295 293 
338 7 118 556 542 550 471 646 504 
339 7 323 632 13 255 546 160 40 
340 6 377 479 447 14 291 78 
341 6 510 325 151 640 218 546 
342 7 184 311 382 626 610 163 177 
343 5 191 540 99 243 607 
344 7 245 327 240 124 164 292 35 
345 4 446 178 566 247 
346 7 259 147 503 618 277 467 414 
347 7 336 15 263 375 265 107 385 
348 6 209 325 402 116 351 19 
349 7 8 62 583 139 170 21 236 
350 7 296 234 145 352 616 650 200 
351 6 77 402 389 280 348 209 
352 6 145 650 234 350 296 200 
353 5 655 463 536 38 608 
354 5 512 419 621 592 128 
355 7 76 202 319 224 161 331 97 
356 7 318 195 98 288 267 121 57 
357 7 502 474 219 186 93 623 667 
358 7 329 73 41 111 294 628 227 
359 7 276 210 157 134 190 360 410 
360 7 4 190 308 410 359 555 203 
361 7 455 257 333 43 49 75 83 
362 6 11 406 6 635 598 483 
363 7 163 626 130 177 473 184 152 
364 7 327 331 97 35 328 344 240 
365 7 301 304 242 298 23 7 366 
366 7 230 301 305 606 365 304 109 
367 5 562 614 60 563 418 
368 5 591 249 459 421 17 
369 6 524 657 38 608 634 536 
370 7 391 414 88 618 646 25 521 
371 6 390 156 2 16 537 303 
372 7 80 393 321 302 169 124 292 
373 6 593 122 435 498 153 429 
374 7 449 106 148 313 567 501 300 
375 7 107 51 87 609 347 3 52 
376 7 274 105 201 235 168 462 663 
377 7 579 136 665 340 299 229 14 
378 7 45 185 143 56 196 281 55 
379 7 232 216 95 214 321 164 231 
380 7 442 182 222 287 68 272 669 
381 7 432 644 589 620 131 17 166 
382 7 244 184 610 342 163 308 204 
383 7 198 205 251 403 175 57 158 
384 7 96 397 631 330 615 490 137 
385 7 67 233 412 79 529 15 309 
386 7 12 281 189 316 310 206 185 
387 6 541 557 552 539 126 269 
388 7 273 236 320 306 169 119 349 
389 6 351 77 127 402 280 209 
390 6 2 371 572 33 123 156 
391 7 25 370 88 521 452 625 395 
392 5 434 599 615 142 490 
393 7 302 321 80 372 214 379 232 
394 4 667 623 93 475 
395 7 88 586 129 250 414 391 147 
396 7 261 10 267 57 228 195 98 
397 7 631 96 384 330 569 615 490 
398 7 237 550 564 118 221 542 582 
399 7 158 18 49 403 102 262 121 
400 7 491 225 324 568 427 162 85 
401 7 155 619 50 36 173 639 84 
402 6 280 116 351 77 348 209 
403 7 205 175 383 198 18 399 158 
404 7 465 299 14 78 579 462 105 
405 4 527 666 602 144 
406 4 11 598 362 6 
407 7 264 108 141 252 188 81 32 
408 7 52 201 87 3 51 168 107 
409 7 426 574 451 517 637 64 573 
410 7 188 134 226 157 32 141 308 
411 7 74 56 211 196 55 143 45 
412 7 79 233 385 529 67 551 297 
413 7 633 575 104 596 558 46 535 
414 7 618 147 370 88 395 129 646 
415 6 322 656 312 488 53 601 
416 7 66 59 555 132 483 635 543 
417 7 31 207 132 59 190 212 174 
418 5 511 614 562 367 60 
419 7 621 592 128 512 354 487 444 
420 7 565 112 515 464 509 90 438 
421 5 172 249 518 509 591 
422 7 661 508 429 435 122 544 373 
423 7 630 519 90 493 521 438 539 
424 4 559 135 208 241 
425 6 548 594 453 178 585 446 
426 7 517 409 573 580 451 61 522 
427 7 568 507 585 491 400 54 324 
428 3 179 506 470 
429 7 435 661 122 422 373 498 593 
430 7 48 486 645 653 600 498 643 
431 5 278 654 405 666 154 
432 7 381 589 131 644 620 17 166 
433 7 17 658 603 172 269 629 644 
434 7 599 142 392 255 632 40 323 
435 7 122 429 373 661 593 153 498 
436 7 7 304 298 301 365 242 350 
437 4 670 353 463 38 
438 5 493 90 630 519 660 
439 4 638 482 535 144 
440 4 642 103 544 82 
441 7 492 590 146 497 664 534 39 
442 7 380 182 222 125 68 287 272 
443 2 153 460 
444 6 545 472 592 128 419 621 
445 7 34 295 293 84 659 619 337 
446 5 345 566 178 494 247 
447 6 479 291 456 179 247 340 
448 7 337 659 445 652 34 457 295 
449 7 374 106 313 148 567 501 300 
450 3 649 561 70 
451 7 570 426 64 70 580 409 573 
452 5 625 552 25 391 387 
453 6 507 425 585 548 254 85 
454 6 146 597 441 492 590 238 
455 7 361 43 258 257 75 166 83 
456 6 247 447 178 479 291 594 
457 7 335 154 484 654 611 652 30 
458 4 560 30 496 611 
459 7 368 591 131 249 180 17 181 
460 4 553 153 593 373 
461 4 547 256 473 152 
462 7 663 105 404 274 235 376 260 
463 5 353 655 536 670 38 
464 6 112 515 509 420 525 565 
465 7 14 78 404 579 299 340 377 
466 6 627 65 238 489 664 39 
467 7 277 503 346 86 221 207 237 
468 2 183 268 
469 7 239 624 40 255 434 13 632 
470 2 506 179 
471 7 504 92 485 542 556 646 118 
472 4 545 444 657 128 
473 7 152 130 256 177 626 547 598 
474 4 186 357 502 93 
475 7 477 532 93 613 623 176 667 
476 7 537 303 279 16 156 181 180 
477 6 475 65 532 613 176 93 
478 5 315 657 487 128 524 
479 7 447 291 179 456 340 506 247 
480 4 246 494 223 171 
481 5 501 567 42 597 454 
482 4 439 638 46 535 
483 5 635 6 543 362 496 
484 7 154 457 654 335 278 652 431 
485 6 92 648 471 504 646 499 
486 7 430 600 48 595 645 653 498 
487 4 621 128 419 478 
488 7 312 53 656 322 582 601 86 
489 7 627 523 39 664 466 581 248 
490 7 290 615 384 96 137 599 142 
491 7 400 225 568 324 427 162 85 
492 6 590 441 497 146 534 664 
493 6 438 630 423 90 499 519 
494 4 566 171 446 480 
495 4 588 647 29 612 
496 4 560 458 483 30 
497 5 534 492 590 441 146 
498 6 653 373 645 48 122 593 
499 5 648 493 485 92 646 
500 7 526 639 89 173 605 91 587 
501 4 567 481 374 42 
502 7 357 93 623 219 474 667 125 
503 7 277 27 259 212 346 467 207 
504 7 471 92 485 542 648 556 646 
505 7 44 324 54 162 225 400 491 
506 2 470 179 
507 6 453 427 85 568 585 254 
508 5 544 422 82 661 429 
509 7 565 464 420 112 518 421 515 
510 6 640 341 218 23 197 325 
511 4 418 614 562 60 
512 5 354 419 621 592 128 
513 7 334 27 212 20 259 250 129 
514 4 282 42 551 477 
515 6 112 668 464 420 660 438 
516 6 64 528 570 617 70 451 
517 7 426 61 573 317 580 522 409 
518 7 172 126 421 509 658 565 557 
519 7 90 423 630 438 493 420 521 
520 7 72 50 101 284 554 559 155 
521 7 423 630 493 25 519 90 391 
522 5 61 573 580 317 517 
523 7 248 489 581 641 176 167 627 
524 6 369 657 634 608 38 315 
525 3 464 515 112 
526 4 587 605 89 500 
527 7 144 666 602 405 638 535 193 
528 3 516 64 637 
529 5 233 551 67 385 79 
530 7 260 289 663 533 29 612 647 
531 7 616 651 20 296 350 7 436 
532 7 613 176 581 248 641 65 167 
533 5 647 29 495 260 588 
534 5 497 492 146 441 590 
535 7 46 633 144 666 439 638 482 
536 7 608 38 634 655 584 353 369 
537 7 303 476 16 156 180 279 181 
538 5 314 612 29 588 647 
539 7 541 126 519 565 387 557 90 
540 4 99 343 191 243 
541 6 387 539 557 126 552 269 
542 7 118 471 338 504 550 556 92 
543 7 6 635 130 483 152 362 473 
544 5 82 508 422 440 661 
545 5 472 444 128 592 657 
546 7 151 69 339 341 325 326 323 
547 6 461 256 177 473 152 283 
548 5 594 425 178 453 456 
549 7 310 316 113 386 206 160 12 
550 7 118 398 338 542 237 556 221 
551 5 282 529 514 79 412 
552 6 387 452 541 25 625 539 
553 2 460 153 
554 7 72 284 101 165 572 192 217 
555 7 66 4 416 59 163 132 363 
556 7 338 471 118 646 542 92 485 
557 7 269 541 126 387 629 658 539 
558 7 307 104 241 575 596 208 413 
559 7 424 135 520 208 241 72 155 
560 3 496 458 30 
561 5 649 70 450 617 570 
562 5 367 418 614 511 60 
563 2 367 60 
564 7 398 542 550 118 582 237 504 
565 7 420 509 112 464 90 515 539 
566 4 446 345 494 178 
567 5 501 481 374 103 642 
568 7 427 491 507 400 585 54 324 
569 4 330 631 397 100 
570 7 70 617 451 64 561 649 516 
571 6 285 167 641 248 569 631 
572 7 165 192 217 284 390 101 2 
573 6 580 522 61 517 426 451 
574 4 637 409 64 426 
575 7 104 558 413 652 307 241 596 
576 2 146 534 
577 6 89 605 587 91 526 500 
578 4 213 217 165 192 
579 7 299 377 665 404 465 14 78 
580 6 573 426 522 61 517 451 
581 7 248 176 641 523 532 613 167 
582 7 601 488 53 398 312 237 221 
583 7 62 8 139 349 170 21 5 
584 4 634 608 536 38 
585 6 453 171 425 427 507 568 
586 6 395 250 129 88 120 622 
587 4 605 89 577 526 
588 4 495 647 29 612 
589 7 432 381 131 644 620 181 166 
590 7 492 441 497 664 146 39 534 
591 6 368 249 459 421 17 433 
592 7 128 419 621 444 512 354 487 
593 5 373 122 153 435 498 
594 4 548 425 456 178 
595 7 486 430 600 48 662 645 643 
596 6 307 46 558 208 413 633 
597 4 238 454 146 441 
598 5 406 11 152 362 473 
599 7 142 434 392 290 490 615 255 
600 7 486 430 48 595 429 645 653 
601 7 582 488 312 53 322 415 656 
602 4 193 527 405 144 
603 6 629 658 269 433 17 557 
604 7 133 149 328 119 114 26 320 
605 4 587 89 577 526 
606 7 305 230 366 127 109 63 275 
607 6 636 99 343 191 540 243 
608 7 536 634 38 584 369 524 655 
609 7 107 3 87 375 51 136 265 
610 7 204 244 382 184 342 5 81 
611 6 654 335 30 154 457 458 
612 7 29 314 647 538 588 289 495 
613 7 532 176 581 248 641 167 475 
614 5 418 511 60 367 562 
615 6 490 384 96 290 397 392 
616 7 531 296 350 651 234 20 120 
617 7 70 570 561 649 64 450 516 
618 7 414 147 370 346 556 88 259 
619 7 293 84 295 34 401 445 155 
620 6 166 381 432 589 644 131 
621 7 419 592 128 512 354 487 444 
622 6 120 250 586 234 296 129 
623 4 667 394 93 475 
624 7 239 40 469 255 13 632 434 
625 3 452 552 25 
626 7 363 177 130 163 342 473 184 
627 6 39 664 489 238 466 523 
628 7 73 329 289 358 94 530 41 
629 6 269 603 658 557 433 126 
630 7 423 519 90 493 438 521 420 
631 6 397 569 330 96 384 571 
632 7 323 13 255 40 339 160 434 
633 7 46 535 666 413 144 527 596 
634 7 608 536 584 38 524 369 315 
635 7 6 543 483 362 11 406 416 
636 6 607 99 343 540 191 243 
637 5 574 409 528 64 426 
638 4 439 144 482 527 
639 5 173 500 213 401 526 
640 6 510 23 275 341 197 218 
641 7 248 167 581 176 523 613 532 
642 4 440 103 544 82 
643 5 645 653 48 498 430 
644 7 17 131 381 432 433 589 603 
645 6 653 643 48 498 430 486 
646 7 92 485 648 499 556 471 504 
647 6 29 495 612 588 314 533 
648 4 499 485 92 646 
649 5 561 450 70 570 617 
650 6 145 352 223 138 200 246 
651 7 531 20 616 109 110 174 212 
652 7 575 659 104 484 413 558 295 
653 5 645 643 48 498 430 
654 5 154 278 431 611 484 
655 5 353 463 536 38 608 
656 6 322 312 53 415 488 86 
657 7 524 315 478 369 128 472 545 
658 7 269 603 629 433 557 172 126 
659 7 295 445 652 34 337 448 293 
660 4 668 515 112 438 
661 7 422 429 435 122 508 373 153 
662 6 595 643 645 653 48 430 
663 7 462 235 105 530 260 274 376 
664 6 39 627 238 441 590 492 
665 7 136 377 579 299 3 229 52 
666 7 144 527 535 633 405 46 431 
667 4 623 394 93 475 
668 5 515 660 112 464 420 
669 7 100 137 287 380 442 182 272 
670 5 437 463 353 655 38 
DEPOT_SECTION
   1
   -1
EOF
