NAME :  X-n957-kX-w95-c7.cctp
COMMENT : 	Adapted by Maziero, Usberti and Cavellucci from the Uchoa, Pecin, Pessoa, Poggi, Subramanian, and Vidal (2013)
TYPE :  CCTP
DIMENSION :    505
EDGE_WEIGHT_TYPE : 	EUC_2D	
CAPACITY : 	11
VERTICES_WITHIN_COVERAGE :  7
VERTICES_WITH_DEMAND : 	95
NODE_COORD_SECTION
1 737 450
2 235 789
3 340 234
4 346 320
5 406 309
6 556 636
7 872 923
8 937 83
9 9 321
10 558 18
11 63 833
12 250 509
13 143 192
14 624 286
15 364 117
16 332 953
17 235 142
18 590 430
19 303 692
20 936 665
21 39 410
22 247 581
23 986 739
24 11 283
25 138 747
26 837 511
27 596 206
28 218 339
29 443 922
30 555 133
31 896 306
32 415 752
33 691 216
34 51 0
35 726 19
36 166 333
37 951 932
38 928 807
39 505 590
40 236 284
41 115 882
42 238 887
43 729 26
44 94 697
45 409 899
46 993 715
47 473 607
48 414 55
49 884 327
50 651 407
51 891 372
52 570 733
53 919 529
54 629 220
55 711 630
56 141 492
57 720 382
58 794 51
59 745 451
60 409 990
61 825 781
62 966 938
63 378 175
64 859 269
65 596 131
66 419 557
67 77 908
68 679 268
69 726 860
70 382 728
71 885 15
72 258 313
73 734 905
74 533 912
75 924 636
76 694 621
77 469 223
78 507 707
79 892 168
80 281 800
81 607 285
82 388 354
83 568 781
84 22 348
85 153 579
86 218 236
87 308 904
88 119 154
89 939 105
90 489 374
91 547 736
92 480 1000
93 124 883
94 647 930
95 295 741
96 213 53
97 589 708
98 133 377
99 896 910
100 870 50
101 587 165
102 542 762
103 995 809
104 266 878
105 27 812
106 45 164
107 174 729
108 252 311
109 681 621
110 594 478
111 848 361
112 897 253
113 729 354
114 811 703
115 677 991
116 781 909
117 971 632
118 540 824
119 887 144
120 897 98
121 971 727
122 972 381
123 375 214
124 895 158
125 196 779
126 379 223
127 22 395
128 119 604
129 622 843
130 289 811
131 261 101
132 820 480
133 433 961
134 656 421
135 426 686
136 870 112
137 941 978
138 744 498
139 7 346
140 166 244
141 604 430
142 912 406
143 423 564
144 162 515
145 647 869
146 784 983
147 736 39
148 833 529
149 922 294
150 373 331
151 471 694
152 39 149
153 813 538
154 153 115
155 244 505
156 716 286
157 140 484
158 652 239
159 141 628
160 30 924
161 877 307
162 586 723
163 856 584
164 648 704
165 19 309
166 661 125
167 614 194
168 253 864
169 5 289
170 419 839
171 562 646
172 516 725
173 75 785
174 309 966
175 743 856
176 121 698
177 70 635
178 824 834
179 742 277
180 977 647
181 268 698
182 973 145
183 569 655
184 765 22
185 427 869
186 11 869
187 377 793
188 424 536
189 37 705
190 126 782
191 490 30
192 808 469
193 107 512
194 782 207
195 859 469
196 148 763
197 403 723
198 978 760
199 214 132
200 467 387
201 853 27
202 855 506
203 591 902
204 213 742
205 203 364
206 183 3
207 143 608
208 904 31
209 997 741
210 26 402
211 902 548
212 47 419
213 125 226
214 189 736
215 79 287
216 412 843
217 924 756
218 474 356
219 533 721
220 445 101
221 579 994
222 652 658
223 633 914
224 889 206
225 464 243
226 420 998
227 798 490
228 27 680
229 367 977
230 777 679
231 856 6
232 777 984
233 909 569
234 612 163
235 987 154
236 883 195
237 207 6
238 39 831
239 703 976
240 260 286
241 6 135
242 821 740
243 491 397
244 140 716
245 529 74
246 860 929
247 524 854
248 102 833
249 653 843
250 260 234
251 864 478
252 425 897
253 482 914
254 646 13
255 722 56
256 611 456
257 832 655
258 275 331
259 851 924
260 746 341
261 811 324
262 950 762
263 368 215
264 458 65
265 174 245
266 277 138
267 624 145
268 696 41
269 839 676
270 717 623
271 752 11
272 732 768
273 5 440
274 556 154
275 137 547
276 855 769
277 269 726
278 415 353
279 961 560
280 432 998
281 903 500
282 446 77
283 710 425
284 883 381
285 776 9
286 267 810
287 924 550
288 207 306
289 734 468
290 654 618
291 102 700
292 978 464
293 987 161
294 342 874
295 501 638
296 557 72
297 246 754
298 577 758
299 200 110
300 581 925
301 672 281
302 333 221
303 366 691
304 384 926
305 512 969
306 29 740
307 361 929
308 874 282
309 769 858
310 878 141
311 820 64
312 429 224
313 611 820
314 26 93
315 268 308
316 426 545
317 28 441
318 669 276
319 445 780
320 762 46
321 935 724
322 937 750
323 390 916
324 934 288
325 435 47
326 990 14
327 830 399
328 748 774
329 566 767
330 873 118
331 833 478
332 82 836
333 311 362
334 975 337
335 148 207
336 986 476
337 769 67
338 114 335
339 59 461
340 12 780
341 154 192
342 27 360
343 787 422
344 774 765
345 521 751
346 408 79
347 917 541
348 295 775
349 754 367
350 252 558
351 122 892
352 267 505
353 234 594
354 512 375
355 505 354
356 91 411
357 85 871
358 688 231
359 584 428
360 476 354
361 473 213
362 422 21
363 330 99
364 241 919
365 80 811
366 429 712
367 330 226
368 247 375
369 619 32
370 671 277
371 403 542
372 473 216
373 529 560
374 532 163
375 760 446
376 240 624
377 719 272
378 58 940
379 788 91
380 231 504
381 93 683
382 648 191
383 692 379
384 65 935
385 308 1000
386 750 582
387 488 236
388 177 583
389 246 760
390 233 820
391 98 932
392 378 219
393 381 89
394 355 930
395 458 212
396 228 583
397 250 804
398 209 808
399 275 671
400 170 388
401 692 415
402 405 186
403 514 583
404 280 735
405 163 510
406 325 804
407 634 395
408 354 927
409 93 921
410 501 576
411 479 583
412 74 907
413 88 945
414 540 167
415 619 292
416 678 278
417 410 380
418 447 579
419 596 421
420 711 456
421 333 359
422 320 932
423 566 207
424 238 331
425 671 214
426 389 596
427 408 282
428 407 355
429 226 880
430 252 556
431 123 748
432 290 691
433 16 824
434 664 191
435 482 371
436 478 725
437 115 585
438 630 209
439 270 798
440 608 283
441 613 272
442 229 882
443 253 521
444 63 939
445 622 245
446 656 232
447 253 812
448 454 558
449 660 200
450 574 213
451 475 401
452 131 896
453 606 292
454 321 965
455 437 899
456 592 292
457 398 315
458 333 236
459 460 532
460 267 520
461 237 292
462 299 943
463 642 304
464 410 533
465 699 373
466 320 373
467 266 512
468 661 386
469 504 387
470 599 274
471 715 73
472 182 583
473 325 263
474 587 472
475 331 307
476 656 400
477 260 910
478 632 287
479 473 358
480 323 246
481 293 971
482 171 190
483 244 521
484 340 856
485 596 289
486 391 390
487 602 631
488 448 189
489 530 131
490 242 924
491 452 224
492 254 592
493 477 236
494 150 541
495 125 870
496 594 407
497 501 372
498 634 289
499 608 220
500 618 428
501 47 856
502 708 471
503 616 295
504 249 810
505 347 720
DEMAND_SECTION
2 1
3 1
4 1
5 1
6 1
7 1
8 1
9 1
10 1
11 1
12 1
13 1
14 1
15 1
16 1
17 1
18 1
19 1
20 1
21 1
22 1
23 1
24 1
25 1
26 1
27 1
28 1
29 1
30 1
31 1
32 1
33 1
34 1
35 1
36 1
37 1
38 1
39 1
40 1
41 1
42 1
43 1
44 1
45 1
46 1
47 1
48 1
49 1
50 1
51 1
52 1
53 1
54 1
55 1
56 1
57 1
58 1
59 1
60 1
61 1
62 1
63 1
64 1
65 1
66 1
67 1
68 1
69 1
70 1
71 1
72 1
73 1
74 1
75 1
76 1
77 1
78 1
79 1
80 1
81 1
82 1
83 1
84 1
85 1
86 1
87 1
88 1
89 1
90 1
91 1
92 1
93 1
94 1
95 1
96 1
COVERAGE_SECTION
2 7 397 504 447 389 390 398 439 
3 7 458 367 302 480 473 263 123 
4 6 475 150 421 457 82 333 
5 6 457 427 150 278 428 82 
6 7 171 183 487 295 403 39 97 
7 7 246 259 99 37 137 116 62 
8 7 89 120 208 182 136 330 100 
9 7 165 139 84 169 24 342 127 
10 5 296 245 369 191 254 
11 6 332 238 365 501 248 105 
12 7 155 443 483 467 352 380 460 
13 7 341 335 482 213 88 140 265 
14 7 415 478 498 503 440 81 441 
15 7 393 363 346 63 48 402 220 
16 7 454 422 174 394 408 462 307 
17 6 199 266 299 131 482 154 
18 4 359 419 141 496 
19 6 432 399 181 277 404 95 
20 7 75 180 117 321 121 46 322 
21 6 212 210 127 317 273 342 
22 5 492 353 396 350 430 
23 7 209 121 198 46 262 322 321 
24 7 169 165 9 139 84 215 342 
25 5 431 196 244 190 107 
26 7 148 202 331 132 153 251 227 
27 5 499 167 450 423 438 
28 7 424 205 288 108 368 72 461 
29 7 455 252 133 253 45 323 185 
30 6 274 489 414 374 65 101 
31 7 161 49 149 308 324 64 112 
32 7 197 70 319 366 187 135 436 
33 7 358 425 449 434 446 158 382 
34 7 314 206 241 152 154 237 106 
35 7 43 147 271 255 268 184 320 
36 6 205 288 28 338 98 400 
37 7 62 137 99 7 246 259 38 
38 7 262 217 322 103 198 276 321 
39 6 403 410 411 47 373 295 
40 7 461 240 108 72 288 315 424 
41 5 93 351 495 452 357 
42 6 442 429 168 104 364 477 
43 7 35 147 271 255 184 268 320 
44 6 291 381 176 244 189 431 
45 7 252 323 455 185 304 29 216 
46 7 23 121 209 198 321 262 322 
47 7 411 39 418 295 410 403 448 
48 7 325 346 362 282 264 393 220 
49 7 161 31 51 308 111 149 284 
50 4 476 134 407 468 
51 7 284 142 111 49 31 161 327 
52 7 162 91 298 97 329 219 102 
53 6 347 287 211 281 233 279 
54 7 438 499 445 158 167 446 382 
55 6 270 76 109 290 386 222 
56 5 157 405 144 193 494 
57 5 465 383 113 349 401 
58 7 311 337 320 379 184 285 271 
59 6 375 289 420 502 283 138 
60 7 226 280 133 229 304 92 29 
61 7 276 242 178 344 328 114 272 
62 7 37 137 99 7 246 259 103 
63 6 402 123 263 392 126 15 
64 7 308 112 161 31 49 149 224 
65 5 267 101 234 30 274 
66 7 143 316 188 371 464 448 418 
67 7 412 409 384 391 444 378 357 
68 4 416 370 318 301 
69 7 175 309 73 116 249 145 328 
70 6 197 505 303 32 366 135 
71 7 208 231 201 100 311 120 8 
72 7 108 315 258 240 424 461 40 
73 7 69 116 175 309 239 232 94 
74 6 300 253 203 247 305 118 
75 7 20 117 180 233 279 163 287 
76 6 109 55 270 290 222 386 
77 7 372 361 493 395 491 225 387 
78 7 172 219 436 151 345 91 102 
79 7 124 119 236 310 224 330 136 
80 7 439 130 286 348 447 397 504 
81 7 440 453 485 503 415 441 470 
82 6 428 150 278 417 486 457 
83 6 329 298 102 52 91 118 
84 7 342 139 9 165 127 210 169 
85 6 388 472 207 275 437 494 
86 7 250 265 40 140 461 240 482 
87 7 422 462 294 477 104 408 394 
88 7 13 154 341 335 482 213 106 
89 7 8 120 182 119 330 124 136 
90 7 435 497 469 218 243 354 479 
91 7 219 52 102 345 172 329 298 
92 7 305 280 226 133 60 29 253 
93 4 41 351 495 452 
94 7 223 145 203 300 115 239 249 
95 7 404 277 348 19 432 181 297 
96 7 237 206 299 131 199 154 17 
97 7 162 52 91 298 183 219 164 
98 4 400 338 356 36 
99 7 7 246 259 37 62 137 178 
100 7 201 71 208 231 311 120 136 
101 6 234 274 65 167 27 267 
102 6 345 329 91 83 298 52 
103 7 198 262 38 209 23 322 121 
104 5 168 42 477 442 429 
105 6 433 238 340 11 501 365 
106 7 152 241 314 88 213 13 335 
107 6 214 244 25 204 196 431 
108 7 72 315 424 461 240 258 40 
109 5 76 290 55 270 222 
110 3 474 256 18 
111 7 284 327 51 49 261 161 31 
112 6 308 64 149 224 324 31 
113 4 260 349 57 465 
114 6 242 269 230 257 344 61 
115 7 239 94 223 221 232 73 146 
116 7 73 309 175 259 69 146 232 
117 7 180 75 20 279 46 233 121 
118 2 247 83 
119 7 310 124 79 330 136 120 236 
120 7 136 330 8 89 119 310 100 
121 7 23 46 209 198 321 262 322 
122 3 334 142 51 
123 4 392 263 126 63 
124 7 79 119 310 236 330 224 136 
125 4 398 2 204 214 
126 4 392 123 263 3 
127 7 210 21 212 342 317 84 273 
128 5 437 207 159 85 177 
129 7 313 249 145 203 223 83 118 
130 7 80 286 439 348 447 406 397 
131 7 266 17 199 299 96 363 15 
132 7 331 192 227 26 195 202 251 
133 7 280 60 226 29 304 92 323 
134 5 50 476 407 468 401 
135 5 366 197 151 303 70 
136 7 330 120 310 119 124 79 100 
137 7 37 62 99 7 246 259 146 
138 5 289 502 59 420 375 
139 7 84 342 9 165 127 169 210 
140 6 265 335 213 86 341 482 
141 6 419 18 500 359 496 256 
142 4 284 51 122 111 
143 7 66 316 188 418 371 448 464 
144 3 405 494 56 
145 7 249 129 223 94 313 203 69 
146 7 232 116 239 259 73 246 7 
147 7 43 35 255 320 271 184 268 
148 6 26 153 202 132 331 227 
149 6 324 31 161 112 308 49 
150 7 82 4 457 5 428 278 475 
151 7 436 78 135 366 172 295 219 
152 7 106 241 314 88 13 213 154 
153 5 148 26 227 202 132 
154 7 299 88 199 341 482 13 17 
155 7 12 380 483 443 352 467 460 
156 4 377 179 416 68 
157 4 56 405 144 193 
158 4 446 54 425 445 
159 3 207 128 85 
160 5 378 444 384 412 67 
161 7 31 49 308 64 149 112 324 
162 7 97 52 298 91 329 219 102 
163 6 233 211 148 153 26 257 
164 4 222 97 162 52 
165 7 9 169 24 84 139 342 215 
166 3 267 234 65 
167 7 27 438 499 54 234 382 101 
168 4 104 42 442 429 
169 7 24 165 9 139 84 215 342 
170 5 216 185 252 45 187 
171 7 183 6 487 295 97 403 39 
172 7 219 78 345 91 436 102 52 
173 5 365 11 190 332 105 
174 6 454 481 462 16 385 422 
175 7 69 309 73 116 328 178 272 
176 6 291 244 44 381 431 25 
177 4 381 128 228 44 
178 7 61 309 276 175 344 116 242 
179 4 377 156 68 260 
180 7 117 20 75 46 121 279 321 
181 6 432 277 399 19 404 95 
182 5 235 293 89 8 124 
183 6 171 6 487 97 162 295 
184 7 271 285 320 147 43 35 58 
185 5 252 216 170 455 45 
186 6 501 433 238 160 105 11 
187 3 406 32 216 
188 4 316 464 66 371 
189 6 228 306 44 381 291 177 
190 3 196 431 25 
191 5 264 325 245 282 10 
192 7 132 227 331 26 195 343 375 
193 3 56 157 275 
194 7 179 33 377 358 64 236 156 
195 7 251 331 202 132 26 192 281 
196 4 25 190 431 107 
197 7 70 366 32 135 303 505 319 
198 7 23 209 262 121 322 46 103 
199 7 17 299 131 154 266 482 96 
200 4 451 435 90 243 
201 7 231 100 71 311 208 58 285 
202 7 26 251 148 331 195 132 281 
203 7 300 223 74 94 145 129 247 
204 7 214 297 389 107 125 2 277 
205 6 28 400 368 36 424 288 
206 7 237 96 299 154 131 34 199 
207 5 159 128 85 437 388 
208 7 71 100 201 231 8 120 89 
209 7 23 46 198 121 262 322 321 
210 7 127 21 212 317 342 273 84 
211 6 347 233 287 53 281 163 
212 6 21 210 317 127 339 356 
213 5 335 13 140 341 265 
214 6 107 204 125 196 25 244 
215 3 338 165 24 
216 6 170 185 45 252 187 455 
217 7 322 262 321 38 198 121 23 
218 4 479 360 435 90 
219 7 172 91 78 345 52 102 162 
220 5 282 264 346 48 325 
221 7 300 305 94 203 74 223 115 
222 5 290 164 109 76 487 
223 7 94 203 145 300 129 249 115 
224 6 236 79 112 124 119 310 
225 5 493 77 491 387 372 
226 7 280 60 133 229 92 29 304 
227 7 192 132 331 26 153 148 138 
228 6 189 306 177 381 44 291 
229 7 16 60 307 454 394 408 304 
230 6 114 257 269 242 55 270 
231 7 201 71 100 208 311 58 285 
232 7 146 239 116 73 259 115 246 
233 6 211 287 347 53 279 163 
234 4 267 101 167 65 
235 4 293 182 89 8 
236 6 224 79 124 119 310 112 
237 7 206 96 299 131 154 199 17 
238 7 105 11 433 501 332 365 186 
239 7 115 94 232 73 146 223 116 
240 5 315 40 461 108 72 
241 7 152 314 106 88 34 13 24 
242 6 114 61 276 344 269 230 
243 3 451 469 90 
244 6 176 25 107 431 291 196 
245 4 296 489 191 10 
246 7 259 7 99 116 37 146 137 
247 2 118 74 
248 4 332 365 11 357 
249 7 145 129 313 223 69 203 94 
250 2 86 240 
251 7 195 202 331 26 132 281 192 
252 6 455 45 185 29 323 304 
253 5 29 455 74 252 305 
254 5 369 268 35 43 255 
255 7 471 147 268 43 35 320 337 
256 5 141 110 474 500 18 
257 6 269 114 230 163 242 75 
258 7 315 72 108 424 240 333 368 
259 7 246 7 99 116 146 178 232 
260 3 113 349 57 
261 7 111 260 161 349 49 64 308 
262 7 322 217 198 121 321 23 38 
263 6 123 392 126 3 302 367 
264 6 282 325 220 48 191 346 
265 6 140 86 335 213 482 341 
266 6 131 17 199 363 299 15 
267 5 234 65 101 166 167 
268 5 255 43 35 471 147 
269 6 257 114 230 242 75 163 
270 6 55 76 109 386 290 222 
271 7 184 285 35 43 147 320 255 
272 6 328 344 175 69 242 61 
273 6 317 210 21 212 127 339 
274 6 30 414 374 101 489 65 
275 5 494 85 144 437 405 
276 7 61 242 217 178 114 344 38 
277 7 404 181 95 297 389 432 19 
278 5 428 82 417 457 486 
279 7 287 347 53 233 211 117 281 
280 7 226 60 133 92 229 29 305 
281 7 53 347 251 202 211 195 287 
282 6 264 220 325 346 48 362 
283 4 401 420 57 59 
284 7 51 142 111 49 327 161 31 
285 7 184 271 320 58 43 147 35 
286 7 439 447 80 397 504 130 390 
287 6 347 53 211 233 279 281 
288 7 461 28 40 424 108 36 72 
289 5 59 420 502 138 375 
290 5 109 76 222 487 55 
291 6 44 176 381 244 431 25 
292 4 336 122 281 53 
293 4 235 182 89 124 
294 6 484 87 408 394 307 422 
295 7 47 39 6 403 411 171 410 
296 5 245 10 30 489 65 
297 7 389 204 277 2 404 397 439 
298 7 329 83 52 102 162 91 97 
299 7 199 17 154 96 131 266 482 
300 7 203 74 223 94 221 305 145 
301 4 370 318 416 68 
302 7 367 3 458 480 263 123 473 
303 4 505 70 197 135 
304 7 323 307 394 408 45 252 229 
305 7 92 74 253 221 133 300 29 
306 6 189 340 228 173 105 44 
307 7 394 408 304 323 16 422 229 
308 7 64 161 31 112 49 149 324 
309 7 175 69 116 73 178 328 344 
310 7 119 124 330 79 136 120 236 
311 7 58 379 201 337 100 320 231 
312 4 491 395 77 225 
313 7 129 249 83 145 329 118 298 
314 7 241 152 106 34 88 154 13 
315 6 72 108 240 258 461 424 
316 6 188 66 143 464 371 448 
317 6 273 212 21 339 210 127 
318 4 370 301 416 68 
319 1 32 
320 7 337 184 147 58 271 43 285 
321 7 322 217 121 262 23 198 20 
322 7 217 262 321 121 198 23 38 
323 7 304 45 307 394 408 252 455 
324 5 149 31 112 161 308 
325 7 48 264 362 282 346 220 191 
326 7 8 208 89 71 100 120 182 
327 7 111 343 284 51 192 195 261 
328 6 272 344 61 242 175 309 
329 7 83 298 102 52 91 162 345 
330 7 136 310 119 120 124 79 89 
331 7 132 192 195 251 26 202 227 
332 6 11 248 365 357 501 238 
333 5 466 421 258 4 475 
334 4 122 324 149 31 
335 7 13 341 482 213 140 265 88 
336 4 292 53 281 279 
337 7 320 58 379 147 184 255 311 
338 3 98 36 215 
339 3 317 212 21 
340 6 105 306 433 238 173 11 
341 7 13 335 482 213 88 140 265 
342 7 84 139 127 210 9 21 165 
343 7 375 327 59 192 349 132 227 
344 7 328 272 61 242 114 276 178 
345 4 102 172 91 219 
346 7 48 393 282 325 220 264 15 
347 6 287 53 211 233 281 279 
348 6 80 95 439 130 406 404 
349 5 260 113 57 465 383 
350 2 430 22 
351 4 93 452 41 495 
352 5 467 460 12 443 155 
353 4 396 22 492 376 
354 4 497 469 355 90 
355 3 497 354 90 
356 2 212 21 
357 6 41 332 67 412 495 93 
358 7 33 425 446 158 68 449 434 
359 3 18 419 141 
360 4 218 479 435 90 
361 6 372 77 395 493 491 387 
362 7 325 48 264 346 282 191 393 
363 7 15 393 266 131 346 63 48 
364 3 490 477 42 
365 5 332 173 11 248 238 
366 7 135 197 32 151 70 436 303 
367 6 302 458 3 480 473 263 
368 3 205 424 28 
369 4 254 10 296 268 
370 4 318 301 416 68 
371 4 464 66 188 316 
372 6 361 77 395 493 491 387 
373 3 403 410 39 
374 4 414 274 489 30 
375 7 59 289 343 420 192 138 283 
376 4 353 492 396 22 
377 5 156 179 68 416 301 
378 6 444 384 413 160 67 412 
379 7 337 58 311 320 184 147 255 
380 4 155 12 483 443 
381 6 44 291 176 177 244 189 
382 7 449 434 438 425 167 54 446 
383 3 465 57 468 
384 6 444 378 413 412 67 409 
385 5 481 174 454 16 462 
386 4 270 55 76 153 
387 4 493 77 225 372 
388 2 472 85 
389 7 297 2 204 277 404 397 439 
390 5 504 447 397 398 2 
391 4 409 413 67 384 
392 4 126 123 263 3 
393 7 346 15 48 363 220 282 325 
394 7 408 307 304 16 422 323 229 
395 7 491 361 77 372 488 312 493 
396 3 353 22 492 
397 7 504 447 286 2 439 390 80 
398 3 390 2 125 
399 3 432 181 19 
400 3 98 205 36 
401 5 283 134 383 476 50 
402 4 63 123 392 488 
403 6 39 410 373 411 47 295 
404 7 277 95 181 297 389 348 432 
405 3 144 56 494 
406 3 130 348 80 
407 3 50 476 468 
408 7 394 307 304 16 422 323 454 
409 4 391 67 412 413 
410 6 39 403 411 373 47 448 
411 7 410 47 39 418 403 448 459 
412 7 67 409 384 444 391 378 357 
413 6 391 384 409 444 378 67 
414 4 374 274 30 489 
415 7 503 14 453 81 440 478 498 
416 4 301 370 318 68 
417 4 486 428 278 82 
418 7 448 143 411 66 47 316 188 
419 5 18 141 359 496 500 
420 4 502 289 283 59 
421 5 466 333 4 150 475 
422 7 16 462 87 454 408 394 174 
423 2 450 27 
424 7 28 108 72 258 315 461 288 
425 7 449 33 446 358 434 158 382 
426 2 143 66 
427 2 5 457 
428 5 278 82 417 486 457 
429 2 442 42 
430 2 350 22 
431 6 25 196 190 244 176 291 
432 6 19 181 399 277 404 95 
433 6 105 238 340 186 501 11 
434 7 449 382 425 33 438 446 54 
435 6 90 479 218 360 497 200 
436 6 151 78 172 345 366 219 
437 5 128 207 85 275 159 
438 7 54 167 382 499 449 27 446 
439 7 80 286 397 447 130 504 348 
440 7 81 453 441 470 485 415 503 
441 6 440 81 470 14 415 453 
442 3 429 42 168 
443 6 483 12 460 467 155 352 
444 6 384 378 413 67 412 409 
445 4 54 441 499 158 
446 6 158 425 54 358 449 438 
447 7 504 397 286 390 439 2 80 
448 6 418 459 316 143 66 411 
449 7 434 382 425 438 446 33 54 
450 2 423 27 
451 3 200 243 90 
452 3 351 93 41 
453 7 81 440 485 503 415 456 14 
454 7 174 16 481 462 422 385 229 
455 6 252 29 45 185 253 323 
456 6 485 453 81 440 470 503 
457 6 5 150 427 82 428 278 
458 6 3 367 480 302 473 263 
459 4 448 188 316 66 
460 5 467 443 352 12 483 
461 7 40 108 240 72 288 315 424 
462 6 422 174 481 454 16 87 
463 3 498 478 14 
464 4 371 188 316 66 
465 3 383 57 113 
466 4 333 421 4 258 
467 5 352 460 12 443 155 
468 3 476 50 407 
469 4 354 497 243 90 
470 4 440 81 441 485 
471 7 255 268 147 43 320 337 35 
472 2 388 85 
473 4 480 458 3 367 
474 4 110 256 18 359 
475 5 4 473 150 421 333 
476 4 50 468 134 407 
477 5 364 490 42 104 442 
478 4 498 14 415 503 
479 4 218 360 435 90 
480 5 458 473 3 367 302 
481 5 174 454 462 385 16 
482 7 341 13 335 140 265 213 88 
483 6 443 12 155 380 460 467 
484 4 294 406 87 130 
485 6 456 453 81 440 470 503 
486 3 417 82 428 
487 5 183 171 6 290 222 
488 7 395 361 491 372 77 312 402 
489 4 30 374 274 414 
490 3 364 477 42 
491 7 395 77 225 372 312 361 493 
492 3 22 353 396 
493 6 387 77 225 372 361 491 
494 4 275 144 405 85 
495 4 93 41 351 452 
496 4 419 18 359 141 
497 6 354 90 469 355 435 243 
498 4 478 14 415 463 
499 6 27 54 438 167 445 450 
500 6 141 419 18 256 496 359 
501 7 238 11 186 332 357 433 105 
502 3 420 289 59 
503 7 415 453 14 81 440 478 498 
504 7 447 397 286 390 439 2 80 
505 6 303 70 19 95 197 432 
DEPOT_SECTION
   1
   -1
EOF
