NAME :  X-n916-kX-w91-c7.cctp
COMMENT : 	Adapted by Maziero, Usberti and Cavellucci from the Uchoa, Pecin, Pessoa, Poggi, Subramanian, and Vidal (2013)
TYPE :  CCTP
DIMENSION :    458
EDGE_WEIGHT_TYPE : 	EUC_2D	
CAPACITY : 	33
VERTICES_WITHIN_COVERAGE :  7
VERTICES_WITH_DEMAND : 	91
NODE_COORD_SECTION
1 0 0
2 471 44
3 63 475
4 766 504
5 895 595
6 816 377
7 462 590
8 997 596
9 775 993
10 16 97
11 839 348
12 558 896
13 423 912
14 169 411
15 75 602
16 402 52
17 388 208
18 202 39
19 510 841
20 555 484
21 920 633
22 369 718
23 432 696
24 624 872
25 472 323
26 753 701
27 584 440
28 292 665
29 202 310
30 764 255
31 662 486
32 822 575
33 469 13
34 640 165
35 814 886
36 554 82
37 336 745
38 950 229
39 142 835
40 407 932
41 69 205
42 86 764
43 202 165
44 376 632
45 639 987
46 775 98
47 503 855
48 38 960
49 215 73
50 566 78
51 4 517
52 44 457
53 676 337
54 338 568
55 623 911
56 626 931
57 97 43
58 799 942
59 725 430
60 93 953
61 264 347
62 986 595
63 631 614
64 331 362
65 158 793
66 760 436
67 115 641
68 307 764
69 469 817
70 315 388
71 906 830
72 564 25
73 88 246
74 671 892
75 181 139
76 723 784
77 609 798
78 174 403
79 76 671
80 984 939
81 830 579
82 3 893
83 176 164
84 625 158
85 249 590
86 663 347
87 21 500
88 501 372
89 572 218
90 483 270
91 604 201
92 548 281
93 125 178
94 759 839
95 545 62
96 161 102
97 16 732
98 24 521
99 848 600
100 585 594
101 618 577
102 44 300
103 479 978
104 768 731
105 274 30
106 546 837
107 890 640
108 498 448
109 473 5
110 277 752
111 630 686
112 521 401
113 374 186
114 712 433
115 814 730
116 120 490
117 376 534
118 982 560
119 815 625
120 659 994
121 804 110
122 549 366
123 57 742
124 381 700
125 442 808
126 581 91
127 416 56
128 163 73
129 160 129
130 468 902
131 694 730
132 319 644
133 524 71
134 987 845
135 998 548
136 550 142
137 637 527
138 168 0
139 178 804
140 587 967
141 331 4
142 811 598
143 560 886
144 712 512
145 528 75
146 980 512
147 90 78
148 665 990
149 400 702
150 131 24
151 238 610
152 392 541
153 40 394
154 713 806
155 823 571
156 863 568
157 145 20
158 509 893
159 629 447
160 695 620
161 721 979
162 594 451
163 772 937
164 533 82
165 399 742
166 273 688
167 360 780
168 650 339
169 716 823
170 307 627
171 28 212
172 38 119
173 832 952
174 106 653
175 934 692
176 638 325
177 126 820
178 382 958
179 884 840
180 424 652
181 841 543
182 863 886
183 512 412
184 111 1
185 366 758
186 227 575
187 398 905
188 285 104
189 245 215
190 569 401
191 159 310
192 20 90
193 212 39
194 13 641
195 855 610
196 95 571
197 780 936
198 63 84
199 334 695
200 988 790
201 497 712
202 676 581
203 625 400
204 351 55
205 572 827
206 584 930
207 110 723
208 540 63
209 161 162
210 177 274
211 916 866
212 634 157
213 42 213
214 655 154
215 21 698
216 435 615
217 120 425
218 54 726
219 475 624
220 391 94
221 463 618
222 568 659
223 999 831
224 796 547
225 123 595
226 515 939
227 695 337
228 40 727
229 217 284
230 536 956
231 262 332
232 91 91
233 697 755
234 703 346
235 416 895
236 330 596
237 475 780
238 365 803
239 844 845
240 802 755
241 77 246
242 759 835
243 71 176
244 244 82
245 564 436
246 749 216
247 30 624
248 677 208
249 421 870
250 183 454
251 867 873
252 35 597
253 527 786
254 991 617
255 581 780
256 964 211
257 696 784
258 102 90
259 76 258
260 752 531
261 246 128
262 834 350
263 809 825
264 468 650
265 110 964
266 422 180
267 940 246
268 513 333
269 446 78
270 992 939
271 17 536
272 142 464
273 621 976
274 286 774
275 349 202
276 134 20
277 103 639
278 555 920
279 608 750
280 471 58
281 482 339
282 966 994
283 501 384
284 3 25
285 180 66
286 300 608
287 591 113
288 569 817
289 165 31
290 137 397
291 858 354
292 846 618
293 0 438
294 308 337
295 772 594
296 684 931
297 76 667
298 750 130
299 538 354
300 725 339
301 758 410
302 664 460
303 90 978
304 480 247
305 481 281
306 291 346
307 297 568
308 32 959
309 351 192
310 402 223
311 356 901
312 456 587
313 993 242
314 499 264
315 22 856
316 120 843
317 285 767
318 647 167
319 681 214
320 303 406
321 306 364
322 443 329
323 256 544
324 246 156
325 744 203
326 795 267
327 403 167
328 970 207
329 159 405
330 142 807
331 631 386
332 374 989
333 568 286
334 369 80
335 166 764
336 74 791
337 787 73
338 787 362
339 547 281
340 24 961
341 687 320
342 156 826
343 297 604
344 500 280
345 216 326
346 788 310
347 50 951
348 521 285
349 566 179
350 51 802
351 602 414
352 568 274
353 363 614
354 266 562
355 21 904
356 436 737
357 85 979
358 553 441
359 118 745
360 348 368
361 281 341
362 479 274
363 589 30
364 486 301
365 261 354
366 934 247
367 547 203
368 366 344
369 121 678
370 150 301
371 520 532
372 185 796
373 184 339
374 785 101
375 944 220
376 392 85
377 223 275
378 451 269
379 590 292
380 816 399
381 10 893
382 431 819
383 507 957
384 104 710
385 445 305
386 530 28
387 772 457
388 568 311
389 649 30
390 792 295
391 310 398
392 108 980
393 113 943
394 469 247
395 299 571
396 319 377
397 506 64
398 277 359
399 325 320
400 585 222
401 131 436
402 280 364
403 678 290
404 960 590
405 927 210
406 494 399
407 563 224
408 227 316
409 125 846
410 420 185
411 16 979
412 746 95
413 874 368
414 16 952
415 698 290
416 392 244
417 822 706
418 567 222
419 569 663
420 939 225
421 64 517
422 875 542
423 786 222
424 205 294
425 93 968
426 497 523
427 329 391
428 548 355
429 630 125
430 390 957
431 435 336
432 144 827
433 131 239
434 484 279
435 413 905
436 775 116
437 932 226
438 807 379
439 332 319
440 456 720
441 18 846
442 50 970
443 370 207
444 46 964
445 541 303
446 206 314
447 533 279
448 307 397
449 561 527
450 47 963
451 960 209
452 698 347
453 677 170
454 37 1000
455 133 830
456 107 466
457 798 121
458 996 220
DEMAND_SECTION
2 8
3 6
4 7
5 6
6 10
7 10
8 5
9 7
10 8
11 8
12 6
13 6
14 6
15 6
16 5
17 8
18 6
19 10
20 9
21 8
22 9
23 6
24 10
25 10
26 6
27 6
28 6
29 9
30 9
31 10
32 9
33 6
34 5
35 5
36 6
37 10
38 8
39 5
40 6
41 9
42 8
43 7
44 8
45 6
46 7
47 6
48 5
49 7
50 9
51 8
52 8
53 10
54 8
55 7
56 10
57 6
58 5
59 6
60 10
61 7
62 6
63 7
64 8
65 9
66 9
67 9
68 6
69 10
70 7
71 9
72 5
73 7
74 9
75 6
76 5
77 9
78 6
79 5
80 5
81 5
82 7
83 10
84 10
85 6
86 9
87 7
88 10
89 10
90 7
91 10
92 7
COVERAGE_SECTION
2 7 280 33 109 397 269 127 133 
3 7 52 421 456 87 116 98 51 
4 5 260 387 224 144 66 
5 7 156 195 21 107 99 292 422 
6 6 438 380 262 338 11 291 
7 6 312 221 219 216 264 180 
8 7 62 254 404 118 135 21 146 
9 5 58 161 163 197 173 
10 6 192 172 198 284 232 147 
11 5 262 291 6 413 438 
12 7 143 278 206 158 106 226 230 
13 7 435 235 40 187 249 130 430 
14 7 78 329 290 250 401 217 272 
15 7 196 252 277 225 247 67 174 
16 7 127 376 220 334 204 269 2 
17 7 443 310 113 416 275 410 309 
18 7 193 285 49 289 128 138 157 
19 7 47 106 69 158 253 205 288 
20 7 358 449 245 162 27 371 108 
21 7 107 5 404 175 195 254 62 
22 7 124 149 165 185 199 37 167 
23 7 149 440 356 180 124 165 264 
24 7 55 74 56 143 205 12 206 
25 7 281 364 322 385 431 268 305 
26 6 104 131 115 417 240 233 
27 7 162 245 358 351 190 159 20 
28 6 166 132 170 199 286 343 
29 6 446 424 345 408 229 373 
30 6 326 423 246 390 325 346 
31 7 302 137 159 144 114 162 59 
32 7 155 81 142 99 181 224 156 
33 7 109 2 280 386 397 127 269 
34 7 318 212 84 214 453 429 91 
35 6 182 239 251 58 197 263 
36 7 50 164 95 208 145 126 133 
37 7 185 68 167 22 199 317 274 
38 7 375 420 437 267 451 256 366 
39 6 432 455 342 409 177 316 
40 7 13 187 435 430 178 235 311 
41 7 213 243 171 241 73 259 93 
42 6 336 123 359 207 218 350 
43 7 83 75 209 324 129 261 189 
44 7 353 180 132 236 216 124 170 
45 7 120 273 148 140 56 296 55 
46 6 374 436 337 412 121 457 
47 7 19 158 106 69 130 143 12 
48 7 308 444 450 340 347 442 414 
49 7 244 193 18 285 128 96 261 
50 7 36 126 95 208 164 145 133 
51 7 98 271 87 421 3 52 293 
52 7 3 293 87 153 421 456 98 
53 7 86 227 341 452 168 234 176 
54 7 236 395 307 117 353 286 343 
55 7 56 24 206 74 296 273 12 
56 7 55 206 273 140 45 296 24 
57 7 147 150 184 276 258 232 157 
58 5 197 163 173 9 35 
59 7 114 66 301 387 302 144 31 
60 5 425 265 393 303 357 
61 6 365 231 361 398 402 306 
62 7 8 254 404 118 135 21 146 
63 7 101 100 202 160 111 222 419 
64 7 360 396 321 427 70 294 368 
65 4 330 139 372 335 
66 7 387 301 59 114 380 4 438 
67 7 277 174 369 225 297 79 15 
68 4 317 274 110 37 
69 6 125 237 382 19 47 253 
70 7 391 396 448 427 320 321 64 
71 6 179 211 251 239 182 134 
72 7 363 386 95 208 50 36 133 
73 7 241 259 433 41 213 171 102 
74 7 296 24 55 56 169 206 154 
75 6 129 83 209 43 96 261 
76 7 154 257 233 169 131 242 94 
77 6 255 288 205 279 106 24 
78 6 14 329 290 250 401 217 
79 7 297 174 277 369 384 67 218 
80 4 270 282 134 211 
81 7 32 155 142 99 156 181 195 
82 3 381 355 315 
83 7 209 75 43 129 93 96 324 
84 7 212 34 318 214 429 91 453 
85 7 151 186 354 323 343 307 395 
86 7 168 53 176 227 452 341 234 
87 7 98 51 271 421 3 52 293 
88 7 283 406 112 281 183 268 299 
89 5 418 407 400 367 91 
90 7 362 434 305 314 344 304 394 
91 7 400 89 418 349 407 84 34 
92 6 339 447 333 352 445 348 
93 7 209 83 243 129 433 41 75 
94 7 242 169 263 154 76 35 257 
95 7 208 145 36 133 164 50 386 
96 5 129 128 285 75 209 
97 5 228 215 218 123 42 
98 7 271 51 87 421 3 52 252 
99 7 195 292 81 156 32 142 155 
100 5 101 63 222 419 449 
101 6 100 63 137 202 449 160 
102 3 259 241 73 
103 7 383 226 230 130 40 13 158 
104 7 26 240 115 417 76 131 233 
105 7 244 141 193 18 49 188 204 
106 7 205 288 19 47 143 253 12 
107 7 21 5 195 292 99 175 119 
108 6 183 406 112 358 283 20 
109 7 33 2 280 386 397 127 269 
110 3 317 274 68 
111 7 419 222 279 63 131 160 233 
112 7 183 283 406 88 122 190 299 
113 6 443 309 17 275 327 310 
114 7 59 66 301 302 387 31 144 
115 4 417 240 104 26 
116 6 456 272 401 3 421 217 
117 2 152 54 
118 7 135 62 404 8 146 254 5 
119 5 142 292 99 195 81 
120 7 148 45 273 161 296 56 140 
121 4 457 374 436 46 
122 6 428 299 190 112 88 268 
123 5 218 228 42 97 336 
124 7 149 22 165 199 23 185 37 
125 5 382 69 237 249 356 
126 7 50 287 36 95 164 208 145 
127 7 16 269 376 220 334 280 2 
128 5 285 96 289 18 49 
129 5 75 96 209 83 43 
130 7 158 13 235 435 249 47 226 
131 7 233 257 76 26 104 111 154 
132 7 170 28 286 343 236 199 353 
133 6 145 164 208 397 95 36 
134 6 223 200 211 71 80 270 
135 6 118 146 8 62 404 254 
136 4 349 287 36 126 
137 7 31 101 202 302 144 449 159 
138 7 157 289 276 150 18 184 193 
139 2 372 65 
140 7 273 206 230 56 45 278 55 
141 7 204 105 334 16 127 376 220 
142 6 32 81 119 155 99 295 
143 7 12 278 206 106 158 205 47 
144 6 260 4 31 302 137 202 
145 7 133 164 208 95 397 36 50 
146 5 135 118 404 62 8 
147 4 232 258 198 57 
148 7 120 45 273 161 296 56 140 
149 7 124 23 22 165 356 180 440 
150 7 276 157 184 289 57 138 128 
151 7 85 186 354 343 286 323 170 
152 2 117 54 
153 2 293 52 
154 7 169 76 257 233 242 94 131 
155 7 32 81 142 181 224 99 156 
156 7 422 181 81 99 155 5 32 
157 7 276 150 289 138 184 57 128 
158 7 47 130 226 12 143 19 278 
159 7 162 302 351 27 203 31 331 
160 4 202 63 295 101 
161 7 9 148 296 120 163 197 45 
162 7 27 245 159 351 358 20 190 
163 7 197 58 9 173 35 161 296 
164 7 145 133 208 36 95 397 50 
165 6 185 356 22 149 124 167 
166 5 28 199 110 132 170 
167 6 185 238 37 165 68 22 
168 5 86 176 53 341 227 
169 7 154 76 257 242 94 233 74 
170 7 286 132 343 236 28 353 395 
171 7 213 41 243 241 259 73 102 
172 6 10 192 198 232 147 243 
173 2 58 197 
174 6 277 67 369 297 79 384 
175 3 21 107 254 
176 4 168 86 53 341 
177 4 455 432 330 39 
178 7 430 332 40 187 435 13 311 
179 6 71 251 239 211 182 263 
180 7 216 264 23 44 221 149 219 
181 5 155 156 422 32 81 
182 4 251 239 35 179 
183 6 112 406 283 108 88 358 
184 7 150 276 157 57 138 289 147 
185 7 167 37 165 22 238 68 124 
186 4 85 151 354 323 
187 7 435 235 13 40 249 311 430 
188 7 261 244 324 105 49 204 334 
189 4 324 377 43 229 
190 6 245 351 122 27 358 112 
191 6 370 373 210 29 446 424 
192 6 10 172 198 284 147 232 
193 7 18 49 285 289 244 138 128 
194 7 247 252 215 297 79 15 228 
195 7 99 292 81 5 119 156 107 
196 6 15 225 421 252 277 67 
197 6 163 58 173 9 35 161 
198 6 147 232 258 172 192 10 
199 7 22 124 37 28 132 166 149 
200 5 223 134 71 211 175 
201 4 440 356 23 264 
202 4 160 63 101 137 
203 6 331 351 159 190 27 162 
204 7 334 16 376 141 220 127 105 
205 7 288 106 77 255 143 253 19 
206 7 278 140 56 12 55 143 230 
207 4 384 359 369 42 
208 7 95 145 133 164 36 50 397 
209 6 83 75 129 93 43 96 
210 7 424 370 191 229 29 377 446 
211 6 71 179 251 182 134 239 
212 7 84 34 318 214 429 453 91 
213 7 171 41 243 241 259 73 102 
214 6 318 34 212 453 84 429 
215 7 97 228 218 123 194 79 297 
216 7 221 312 7 180 219 264 44 
217 7 401 290 456 329 272 14 78 
218 6 228 123 97 215 42 384 
219 6 221 264 7 216 312 180 
220 5 376 334 16 127 204 
221 6 219 7 216 264 312 180 
222 5 419 100 111 63 201 
223 6 134 200 211 71 270 80 
224 6 155 32 181 81 260 4 
225 6 196 67 277 15 174 369 
226 7 383 230 278 158 103 130 12 
227 7 452 234 53 341 300 86 168 
228 5 218 123 97 215 42 
229 6 377 424 29 446 408 210 
230 7 226 383 278 140 206 103 12 
231 4 61 361 365 398 
232 4 258 147 198 57 
233 7 131 257 76 154 169 104 26 
234 6 452 227 300 53 341 86 
235 7 435 13 187 249 40 130 311 
236 7 54 286 343 353 170 395 307 
237 4 69 125 253 356 
238 4 167 185 37 382 
239 7 251 179 263 182 35 71 211 
240 6 115 104 417 263 26 76 
241 7 73 259 41 213 433 171 102 
242 7 94 169 263 154 76 35 257 
243 6 41 213 93 171 172 241 
244 7 49 261 188 193 18 105 285 
245 7 358 27 162 190 351 20 112 
246 3 325 423 30 
247 7 194 252 15 297 79 215 277 
248 6 319 453 318 34 214 212 
249 7 235 435 13 187 382 130 40 
250 3 272 14 78 
251 5 182 239 179 211 35 
252 7 247 15 194 271 196 98 277 
253 5 237 288 106 255 19 
254 7 8 62 404 118 135 21 175 
255 5 77 288 279 205 253 
256 5 451 328 375 38 420 
257 7 76 154 233 169 131 242 94 
258 4 232 147 198 57 
259 7 241 73 41 102 213 433 171 
260 6 4 144 224 295 387 155 
261 7 324 188 244 43 49 75 83 
262 6 11 291 6 438 413 338 
263 7 239 242 94 35 240 251 179 
264 6 219 221 180 216 23 7 
265 5 392 425 60 393 303 
266 3 410 327 17 
267 5 366 38 420 437 375 
268 7 281 299 88 428 445 25 364 
269 6 280 127 2 16 376 220 
270 4 80 282 134 211 
271 7 98 51 87 421 252 3 52 
272 6 401 116 456 250 217 14 
273 7 45 140 120 56 148 206 55 
274 2 317 68 
275 4 309 443 113 17 
276 7 150 157 184 289 138 57 128 
277 7 67 174 297 79 369 15 225 
278 7 12 206 143 230 226 158 140 
279 5 255 77 111 288 205 
280 6 2 269 397 33 109 127 
281 7 25 268 88 364 322 431 283 
282 2 80 270 
283 7 88 406 112 183 299 281 122 
284 6 192 10 198 57 172 147 
285 6 128 18 49 289 96 193 
286 7 343 170 236 395 307 132 85 
287 6 126 429 50 36 136 84 
288 5 205 106 255 77 253 
289 7 157 138 276 150 18 285 128 
290 5 329 217 14 78 401 
291 4 11 413 262 6 
292 6 195 99 119 142 81 32 
293 6 52 153 87 3 51 98 
294 7 306 399 321 361 439 64 398 
295 4 142 32 119 224 
296 7 74 56 161 148 55 120 45 
297 7 79 174 277 369 67 384 215 
298 4 436 412 46 374 
299 7 428 122 268 88 283 112 445 
300 6 234 452 227 341 53 415 
301 7 66 59 387 114 338 438 380 
302 7 31 159 114 59 144 162 137 
303 5 357 425 392 265 60 
304 3 394 90 314 
305 7 434 362 90 344 364 314 378 
306 7 361 294 398 402 321 61 365 
307 6 395 354 343 286 54 236 
308 7 48 340 444 450 414 347 442 
309 4 275 113 443 17 
310 3 17 416 443 
311 4 187 435 40 235 
312 6 7 221 216 219 264 180 
313 4 458 256 328 38 
314 4 344 90 434 362 
315 3 441 381 82 
316 3 409 455 39 
317 3 274 110 68 
318 7 34 214 212 84 453 429 248 
319 6 248 453 318 34 325 214 
320 3 448 391 70 
321 7 396 306 64 70 402 294 398 
322 4 431 385 25 281 
323 3 354 186 85 
324 6 261 43 189 188 75 83 
325 3 246 423 30 
326 4 390 30 346 423 
327 4 266 410 113 17 
328 5 256 451 375 458 38 
329 7 14 78 290 401 217 250 272 
330 6 432 65 177 342 455 39 
331 6 203 351 86 168 159 176 
332 7 178 430 40 187 311 13 435 
333 6 352 92 339 379 388 445 
334 5 376 220 204 16 127 
335 3 65 372 139 
336 2 350 42 
337 2 46 374 
338 5 438 6 380 262 346 
339 6 92 447 333 352 445 348 
340 7 308 414 48 411 444 450 347 
341 7 227 53 452 234 403 415 86 
342 4 432 39 455 330 
343 7 286 170 395 236 307 132 85 
344 6 314 434 305 90 348 362 
345 4 408 446 29 424 
346 4 390 326 338 30 
347 3 450 444 48 
348 5 447 344 339 92 445 
349 6 367 89 136 418 91 407 
350 2 336 42 
351 6 203 27 190 162 331 159 
352 7 333 92 339 379 447 388 445 
353 7 44 236 54 132 170 286 343 
354 5 323 307 85 395 186 
355 2 381 82 
356 5 440 165 23 149 237 
357 4 303 425 392 60 
358 7 245 27 162 20 190 183 112 
359 4 207 42 384 335 
360 6 64 368 396 427 70 321 
361 7 306 61 398 231 402 365 294 
362 7 90 305 434 314 344 304 364 
363 7 72 50 95 208 386 389 126 
364 7 305 434 344 25 362 90 281 
365 5 61 398 402 231 361 
366 4 267 437 420 38 
367 4 407 418 89 349 
368 3 360 64 439 
369 5 174 384 67 277 79 
370 6 191 210 373 29 424 446 
371 5 426 449 20 7 312 
372 2 139 65 
373 5 446 29 345 191 408 
374 5 46 436 121 457 337 
375 7 420 38 437 451 405 256 267 
376 5 220 334 16 127 204 
377 5 229 424 29 408 446 
378 3 362 394 90 
379 4 333 352 388 92 
380 4 6 438 338 262 
381 3 82 355 315 
382 6 125 69 249 237 238 235 
383 7 226 230 103 278 158 130 12 
384 5 207 369 359 79 297 
385 4 322 25 431 378 
386 7 72 208 95 133 397 145 164 
387 5 66 4 301 59 114 
388 5 333 445 379 92 339 
389 3 363 72 126 
390 3 346 326 30 
391 5 448 70 320 427 396 
392 5 265 303 425 357 60 
393 2 265 60 
394 3 304 90 378 
395 6 307 343 354 286 54 236 
396 7 70 427 321 64 391 448 360 
397 7 133 145 164 208 280 95 2 
398 6 402 365 61 361 306 321 
399 4 439 294 64 306 
400 6 89 418 407 91 367 349 
401 7 217 272 456 290 329 14 78 
402 6 398 306 365 61 361 321 
403 6 415 341 53 227 176 168 
404 7 62 8 118 254 135 21 5 
405 4 437 420 375 38 
406 5 283 183 112 88 108 
407 4 418 89 400 367 
408 4 345 446 29 424 
409 3 316 455 39 
410 4 266 327 17 310 
411 7 340 308 414 48 454 444 442 
412 3 46 298 436 
413 3 291 11 262 
414 6 340 308 48 411 444 450 
415 7 403 341 227 53 234 300 452 
416 2 310 17 
417 4 115 240 104 26 
418 4 407 89 400 367 
419 5 222 111 100 63 201 
420 7 375 437 38 405 267 366 451 
421 7 98 3 87 271 51 116 196 
422 4 156 181 5 81 
423 4 246 30 325 326 
424 7 29 229 446 377 408 210 345 
425 5 303 357 60 265 392 
426 4 371 449 20 108 
427 7 70 396 391 448 64 320 360 
428 6 299 122 268 388 88 190 
429 7 212 84 214 34 287 318 126 
430 7 178 40 332 187 13 435 311 
431 3 322 385 25 
432 5 39 455 342 177 330 
433 7 73 241 210 259 93 370 41 
434 7 305 362 90 344 314 364 304 
435 7 235 13 187 40 249 130 311 
436 6 46 374 457 298 121 412 
437 6 420 375 405 38 366 267 
438 7 6 380 338 262 11 291 301 
439 5 399 294 368 64 306 
440 5 356 23 201 149 165 
441 3 315 381 82 
442 5 444 450 48 347 308 
443 6 17 113 275 309 310 416 
444 6 450 442 48 347 308 340 
445 7 92 339 447 348 388 333 352 
446 6 29 345 424 408 229 373 
447 4 348 339 92 445 
448 5 391 320 70 396 427 
449 7 371 20 426 100 101 137 162 
450 5 444 442 48 347 308 
451 5 256 328 375 38 420 
452 6 234 227 53 300 341 86 
453 6 214 318 34 248 319 212 
454 6 411 442 444 450 48 308 
455 5 39 432 177 316 409 
456 6 116 272 401 217 3 52 
457 4 121 374 436 46 
458 5 313 328 256 451 38 
DEPOT_SECTION
   1
   -1
EOF
