NAME :  X-n979-kX-w195-c7.cctp
COMMENT : 	Adapted by Maziero, Usberti and Cavellucci from the Uchoa, Pecin, Pessoa, Poggi, Subramanian, and Vidal (2013)
TYPE :  CCTP
DIMENSION :    822
EDGE_WEIGHT_TYPE : 	EUC_2D	
CAPACITY : 	998
VERTICES_WITHIN_COVERAGE :  7
VERTICES_WITH_DEMAND : 	195
NODE_COORD_SECTION
1 0 0
2 236 951
3 735 289
4 841 735
5 846 821
6 907 810
7 55 136
8 699 326
9 731 899
10 739 753
11 807 828
12 775 783
13 891 689
14 62 93
15 780 220
16 799 739
17 661 348
18 865 688
19 12 4
20 829 827
21 845 896
22 136 243
23 878 584
24 908 794
25 820 771
26 895 788
27 747 915
28 860 746
29 829 754
30 94 149
31 940 847
32 884 747
33 226 904
34 738 802
35 194 98
36 789 744
37 929 895
38 864 696
39 84 161
40 764 615
41 283 937
42 776 807
43 877 427
44 828 266
45 297 994
46 665 900
47 15 93
48 100 956
49 850 790
50 854 794
51 898 679
52 948 888
53 731 282
54 60 87
55 826 362
56 716 264
57 885 814
58 932 825
59 308 926
60 225 130
61 853 861
62 794 753
63 771 729
64 264 853
65 780 693
66 837 723
67 895 849
68 746 715
69 736 862
70 734 730
71 616 228
72 7 80
73 93 860
74 860 765
75 877 734
76 819 798
77 706 922
78 861 714
79 710 149
80 268 903
81 783 808
82 811 865
83 231 950
84 929 771
85 717 857
86 767 755
87 250 924
88 972 543
89 114 955
90 931 866
91 796 414
92 708 270
93 893 755
94 175 956
95 928 757
96 712 401
97 911 968
98 73 240
99 273 9
100 729 595
101 35 166
102 144 36
103 855 718
104 246 872
105 145 125
106 828 875
107 991 591
108 256 913
109 916 785
110 572 373
111 794 708
112 293 607
113 954 807
114 929 743
115 766 280
116 649 291
117 467 677
118 754 655
119 739 882
120 914 788
121 840 785
122 688 415
123 872 383
124 100 253
125 825 737
126 934 881
127 61 122
128 805 306
129 723 293
130 210 984
131 871 845
132 263 916
133 689 176
134 916 696
135 267 798
136 709 162
137 778 748
138 868 711
139 888 705
140 275 849
141 721 780
142 39 209
143 725 784
144 732 339
145 153 957
146 228 685
147 133 309
148 968 772
149 856 654
150 9 152
151 241 951
152 713 376
153 838 377
154 876 764
155 597 423
156 114 992
157 877 851
158 919 703
159 904 766
160 72 31
161 466 393
162 781 784
163 901 846
164 832 916
165 82 123
166 854 803
167 860 788
168 886 728
169 721 227
170 821 575
171 833 775
172 740 699
173 815 870
174 987 925
175 912 794
176 52 131
177 278 957
178 978 690
179 771 292
180 823 346
181 707 335
182 169 906
183 735 870
184 881 748
185 286 992
186 852 889
187 795 680
188 234 986
189 950 871
190 93 187
191 242 902
192 166 240
193 831 436
194 826 244
195 913 959
196 762 783
197 899 829
198 838 765
199 869 785
200 953 964
201 936 737
202 819 800
203 226 948
204 900 582
205 716 261
206 724 340
207 882 786
208 76 158
209 932 900
210 16 220
211 697 613
212 794 288
213 843 826
214 944 819
215 182 953
216 871 819
217 795 277
218 27 151
219 90 898
220 837 658
221 768 713
222 703 796
223 784 302
224 626 928
225 847 721
226 27 180
227 791 822
228 836 834
229 840 350
230 267 903
231 865 981
232 887 753
233 213 883
234 132 331
235 99 100
236 976 899
237 716 733
238 866 711
239 268 882
240 867 615
241 929 807
242 625 238
243 237 947
244 209 895
245 766 806
246 464 628
247 723 817
248 756 859
249 149 12
250 46 127
251 709 1000
252 829 844
253 973 811
254 689 268
255 13 80
256 896 935
257 754 764
258 942 954
259 716 719
260 813 654
261 834 758
262 756 865
263 265 892
264 757 729
265 915 874
266 6 88
267 913 733
268 853 309
269 875 839
270 32 84
271 715 176
272 847 710
273 444 396
274 914 878
275 856 642
276 226 73
277 968 877
278 781 749
279 922 793
280 821 387
281 110 34
282 672 327
283 879 696
284 624 939
285 908 891
286 938 847
287 869 297
288 814 792
289 980 924
290 978 788
291 942 817
292 752 219
293 182 910
294 935 940
295 14 181
296 873 727
297 896 683
298 571 612
299 938 763
300 697 393
301 818 777
302 741 316
303 760 270
304 291 911
305 998 998
306 774 940
307 838 610
308 837 729
309 863 747
310 110 210
311 941 368
312 840 786
313 27 249
314 885 720
315 726 72
316 927 828
317 936 839
318 67 303
319 6 173
320 450 456
321 267 996
322 835 904
323 19 162
324 169 925
325 697 124
326 503 227
327 762 808
328 995 982
329 625 396
330 278 907
331 789 275
332 169 67
333 909 870
334 731 272
335 17 50
336 40 968
337 912 691
338 895 657
339 227 938
340 789 714
341 44 140
342 833 331
343 819 774
344 863 563
345 7 208
346 251 969
347 929 741
348 857 859
349 828 756
350 176 937
351 861 803
352 142 224
353 785 320
354 732 656
355 702 411
356 89 906
357 259 902
358 896 852
359 124 963
360 88 97
361 763 297
362 855 747
363 161 273
364 171 74
365 237 989
366 780 303
367 886 835
368 189 960
369 823 650
370 123 142
371 846 781
372 866 728
373 692 575
374 816 730
375 670 282
376 844 756
377 220 944
378 773 798
379 879 728
380 807 714
381 185 301
382 797 735
383 934 784
384 667 332
385 24 204
386 901 705
387 845 758
388 692 835
389 195 161
390 984 717
391 65 312
392 167 965
393 21 154
394 262 49
395 804 363
396 513 373
397 886 775
398 754 423
399 289 968
400 685 588
401 821 861
402 232 876
403 802 662
404 152 128
405 913 784
406 45 151
407 648 249
408 174 343
409 902 811
410 287 979
411 759 909
412 170 875
413 871 772
414 231 949
415 757 759
416 73 64
417 181 209
418 781 691
419 939 690
420 776 662
421 696 935
422 914 713
423 569 224
424 835 929
425 716 466
426 814 851
427 760 725
428 918 734
429 801 957
430 980 884
431 881 597
432 922 516
433 42 137
434 788 704
435 239 159
436 823 797
437 477 752
438 785 161
439 901 843
440 968 847
441 816 769
442 16 117
443 850 917
444 835 817
445 568 403
446 688 214
447 968 840
448 831 736
449 926 697
450 260 801
451 760 280
452 328 778
453 853 694
454 825 825
455 966 756
456 918 833
457 880 747
458 869 741
459 861 227
460 682 353
461 783 872
462 684 255
463 95 811
464 719 331
465 852 809
466 287 911
467 849 735
468 908 743
469 842 941
470 773 87
471 829 790
472 0 210
473 990 962
474 720 777
475 785 786
476 769 726
477 286 795
478 33 167
479 783 578
480 48 159
481 8 59
482 719 304
483 53 77
484 792 744
485 934 879
486 823 685
487 857 240
488 850 780
489 116 45
490 624 288
491 164 904
492 870 767
493 844 854
494 277 820
495 805 821
496 878 755
497 916 435
498 146 86
499 856 887
500 110 922
501 931 578
502 672 355
503 732 259
504 317 931
505 973 525
506 39 229
507 257 153
508 814 742
509 82 116
510 176 916
511 150 211
512 726 634
513 710 884
514 850 733
515 964 690
516 212 235
517 275 975
518 935 759
519 770 210
520 988 760
521 804 712
522 23 152
523 783 812
524 212 922
525 820 750
526 608 976
527 842 734
528 939 896
529 810 778
530 909 838
531 759 793
532 211 892
533 827 748
534 685 761
535 774 211
536 804 287
537 770 312
538 763 294
539 839 263
540 723 658
541 72 220
542 268 921
543 12 122
544 101 42
545 797 844
546 39 252
547 120 148
548 836 712
549 750 802
550 833 737
551 846 867
552 850 818
553 774 522
554 658 197
555 857 742
556 932 844
557 183 127
558 235 950
559 237 941
560 868 831
561 878 677
562 826 794
563 643 146
564 284 964
565 990 710
566 923 535
567 828 780
568 251 928
569 951 836
570 985 682
571 35 186
572 803 801
573 689 269
574 734 819
575 856 239
576 814 773
577 660 351
578 178 887
579 672 213
580 859 867
581 800 771
582 769 706
583 692 282
584 976 867
585 938 693
586 716 682
587 726 598
588 609 290
589 168 990
590 777 711
591 818 877
592 959 768
593 258 768
594 796 724
595 119 103
596 958 780
597 659 309
598 181 203
599 874 708
600 732 350
601 295 849
602 898 842
603 624 381
604 892 741
605 746 300
606 335 926
607 231 136
608 966 841
609 910 716
610 853 779
611 959 893
612 800 283
613 863 788
614 827 797
615 136 807
616 830 719
617 806 209
618 963 696
619 229 974
620 789 841
621 886 810
622 875 762
623 763 718
624 852 757
625 737 866
626 862 712
627 667 399
628 207 902
629 252 978
630 135 237
631 308 943
632 776 317
633 271 910
634 773 824
635 947 602
636 823 315
637 570 131
638 61 62
639 833 379
640 827 719
641 52 101
642 713 255
643 907 845
644 608 269
645 684 35
646 871 858
647 264 753
648 932 800
649 903 857
650 751 885
651 64 178
652 941 908
653 847 779
654 98 179
655 904 597
656 931 746
657 905 794
658 720 166
659 1000 903
660 805 243
661 244 869
662 707 281
663 915 854
664 851 601
665 746 297
666 864 201
667 775 388
668 851 678
669 820 904
670 44 30
671 871 740
672 622 948
673 732 204
674 850 899
675 885 799
676 274 938
677 967 914
678 178 992
679 129 97
680 814 836
681 233 962
682 847 409
683 760 285
684 963 944
685 764 749
686 835 828
687 899 710
688 700 183
689 2 53
690 156 160
691 815 861
692 61 239
693 802 823
694 312 683
695 80 983
696 322 951
697 848 746
698 817 752
699 816 765
700 132 885
701 544 344
702 84 115
703 732 699
704 876 743
705 895 863
706 855 741
707 909 770
708 225 216
709 698 282
710 62 45
711 63 74
712 916 952
713 733 350
714 843 720
715 741 389
716 15 700
717 755 393
718 784 775
719 284 984
720 735 247
721 699 915
722 876 761
723 687 312
724 703 304
725 828 841
726 640 831
727 799 827
728 856 774
729 119 158
730 783 686
731 811 194
732 886 733
733 938 870
734 50 152
735 852 386
736 663 797
737 784 231
738 947 808
739 199 66
740 874 731
741 950 736
742 792 362
743 738 343
744 260 934
745 739 293
746 302 925
747 920 680
748 727 777
749 737 663
750 792 789
751 777 747
752 84 103
753 63 130
754 988 787
755 531 320
756 67 892
757 932 891
758 70 70
759 820 800
760 806 848
761 664 357
762 887 761
763 907 786
764 254 765
765 888 615
766 758 801
767 897 690
768 831 711
769 850 832
770 764 223
771 963 762
772 888 719
773 801 237
774 818 899
775 896 832
776 784 445
777 66 147
778 797 805
779 833 398
780 845 852
781 783 782
782 906 809
783 528 179
784 936 778
785 850 711
786 968 849
787 305 869
788 824 742
789 794 779
790 34 17
791 884 859
792 3 78
793 867 798
794 825 537
795 750 924
796 859 772
797 928 885
798 805 790
799 728 309
800 47 96
801 846 891
802 665 274
803 76 950
804 912 823
805 836 730
806 722 262
807 876 816
808 812 315
809 126 210
810 986 649
811 100 21
812 582 337
813 833 725
814 714 839
815 842 793
816 763 751
817 778 664
818 881 774
819 874 366
820 801 210
821 736 780
822 883 819
DEMAND_SECTION
2 38
3 48
4 57
5 60
6 56
7 74
8 41
9 95
10 77
11 95
12 54
13 85
14 66
15 18
16 83
17 3
18 84
19 86
20 96
21 69
22 51
23 100
24 77
25 51
26 96
27 53
28 70
29 99
30 58
31 53
32 87
33 12
34 64
35 62
36 64
37 59
38 64
39 51
40 55
41 7
42 64
43 47
44 5
45 20
46 100
47 75
48 41
49 87
50 72
51 74
52 68
53 27
54 72
55 18
56 25
57 68
58 56
59 14
60 68
61 85
62 83
63 88
64 2
65 78
66 98
67 59
68 99
69 88
70 59
71 9
72 87
73 4
74 62
75 89
76 86
77 82
78 74
79 50
80 5
81 72
82 86
83 20
84 98
85 77
86 71
87 29
88 55
89 13
90 57
91 29
92 24
93 82
94 45
95 55
96 42
97 85
98 69
99 90
100 93
101 78
102 78
103 56
104 39
105 56
106 77
107 53
108 43
109 65
110 10
111 67
112 23
113 96
114 52
115 36
116 10
117 18
118 74
119 73
120 95
121 88
122 47
123 11
124 73
125 57
126 100
127 51
128 34
129 50
130 34
131 87
132 13
133 39
134 71
135 5
136 42
137 79
138 65
139 56
140 15
141 76
142 72
143 56
144 4
145 8
146 28
147 70
148 56
149 73
150 65
151 8
152 41
153 12
154 80
155 36
156 4
157 77
158 69
159 69
160 91
161 79
162 89
163 70
164 79
165 89
166 52
167 83
168 72
169 9
170 95
171 53
172 80
173 68
174 57
175 70
176 94
177 33
178 51
179 3
180 47
181 40
182 21
183 67
184 62
185 49
186 96
187 53
188 41
189 88
190 54
191 4
192 91
193 14
194 8
195 94
196 92
COVERAGE_SECTION
2 7 558 243 83 151 414 203 559 
3 7 745 53 129 665 605 334 799 
4 7 527 308 805 467 550 514 448 
5 7 552 213 444 769 465 686 228 
6 7 782 409 804 24 657 175 197 
7 7 176 753 341 250 433 127 777 
8 6 181 723 464 724 282 206 
9 7 119 27 650 513 183 411 795 
10 7 257 415 70 816 685 748 821 
11 7 495 693 727 680 227 454 545 
12 7 162 781 475 718 196 378 750 
13 7 767 297 51 283 139 561 386 
14 7 54 641 800 483 711 752 758 
15 7 535 737 519 770 820 773 292 
16 6 382 484 36 62 508 594 
17 7 577 761 502 384 460 282 597 
18 7 38 453 283 561 668 599 138 
19 6 790 670 335 689 481 710 
20 7 454 686 228 444 213 725 252 
21 7 801 674 186 322 499 443 164 
22 7 630 352 192 809 511 124 363 
23 7 431 204 344 655 664 240 765 
24 7 657 175 120 763 405 109 26 
25 7 343 441 301 576 699 529 567 
26 7 657 763 207 24 675 397 175 
27 7 795 411 9 650 119 306 77 
28 7 309 362 555 706 458 697 671 
29 7 349 261 533 525 698 788 198 
30 7 39 208 547 729 777 165 370 
31 6 286 317 556 569 90 58 
32 7 184 457 232 704 496 604 93 
33 6 191 244 532 628 524 233 
34 7 549 574 766 247 143 821 531 
35 7 557 739 364 332 276 60 498 
36 7 484 278 62 16 137 382 751 
37 7 757 209 528 797 126 485 652 
38 7 18 453 238 283 138 599 626 
39 5 208 30 654 777 651 
40 7 100 118 479 512 587 420 817 
41 7 676 177 542 746 744 466 631 
42 7 81 378 523 245 327 634 766 
43 7 682 497 123 193 735 779 819 
44 7 539 194 536 612 660 217 487 
45 7 185 719 410 399 517 321 564 
46 7 721 77 421 224 513 284 672 
47 7 266 255 72 270 792 442 543 
48 7 89 359 803 695 500 156 356 
49 7 50 815 167 371 488 121 312 
50 7 49 167 166 351 613 815 793 
51 7 297 767 13 337 561 338 747 
52 7 528 611 126 757 189 485 37 
53 7 3 334 129 745 665 806 56 
54 7 14 483 711 641 800 758 638 
55 7 180 229 639 153 395 280 342 
56 7 205 806 642 92 334 503 662 
57 5 621 822 807 216 675 
58 6 316 214 291 317 456 241 
59 7 746 504 631 304 466 41 606 
60 7 607 435 507 557 389 35 276 
61 6 348 580 551 493 780 646 
62 7 484 36 278 16 137 382 751 
63 7 476 427 264 623 221 590 751 
64 7 140 104 661 239 601 494 263 
65 7 418 730 434 582 590 187 111 
66 7 813 308 714 805 616 225 548 
67 7 358 163 439 602 649 643 705 
68 7 172 427 623 264 70 703 221 
69 7 625 183 85 119 248 262 650 
70 7 237 68 259 264 10 427 623 
71 4 242 407 644 423 
72 7 792 255 266 47 481 270 689 
73 6 219 756 356 700 463 500 
74 7 796 492 728 624 413 622 154 
75 7 740 379 296 671 704 732 168 
76 6 202 759 436 288 562 614 
77 7 721 421 9 513 27 795 46 
78 7 626 238 103 138 785 599 272 
79 7 136 658 271 325 133 688 673 
80 7 230 633 357 263 330 132 108 
81 7 523 42 378 778 227 245 634 
82 7 173 691 401 426 591 760 106 
83 7 414 558 2 203 243 151 559 
84 7 784 299 518 95 383 109 707 
85 7 814 69 183 625 513 119 388 
86 7 816 685 415 137 751 278 257 
87 7 568 108 744 132 542 559 191 
88 7 505 566 107 501 432 635 204 
89 7 359 48 500 156 803 145 695 
90 7 733 485 126 265 797 189 286 
91 7 667 776 280 779 193 398 717 
92 7 56 662 205 642 709 806 254 
93 7 232 762 32 184 604 457 496 
94 5 215 392 368 350 145 
95 7 518 656 299 84 114 347 201 
96 7 355 300 152 122 715 717 627 
97 6 195 712 258 256 294 200 
98 7 692 541 124 506 546 142 313 
99 7 394 276 739 35 332 364 249 
100 6 587 211 512 40 373 400 
101 7 478 480 226 323 218 393 406 
102 6 249 489 281 332 544 811 
103 7 78 225 626 785 272 714 238 
104 7 661 402 239 64 263 191 357 
105 7 404 370 679 547 595 690 557 
106 7 591 173 401 691 82 551 801 
107 5 635 88 810 501 505 
108 7 132 357 87 542 230 633 80 
109 7 405 120 763 175 279 24 657 
110 7 445 812 701 603 155 329 396 
111 7 434 340 521 380 594 590 65 
112 7 694 146 647 764 593 246 452 
113 6 738 214 291 253 648 241 
114 7 347 656 201 95 428 518 267 
115 7 451 683 303 179 538 361 331 
116 5 597 375 802 490 588 
117 4 246 437 298 694 
118 7 749 354 420 817 540 512 40 
119 7 650 183 625 9 69 262 248 
120 7 109 405 175 763 24 279 657 
121 7 312 371 815 653 49 488 171 
122 7 355 300 627 96 152 425 715 
123 7 819 735 153 682 639 779 43 
124 7 98 22 630 692 541 310 809 
125 7 788 448 550 374 533 508 805 
126 7 485 797 757 733 37 90 52 
127 7 753 176 7 250 165 509 641 
128 6 808 536 636 212 223 353 
129 7 482 3 53 745 799 662 334 
130 6 619 188 365 368 681 678 
131 6 269 157 646 560 367 791 
132 7 542 108 633 80 230 87 357 
133 7 688 136 271 658 79 554 446 
134 7 337 158 449 747 386 422 767 
135 7 450 477 494 593 764 647 140 
136 7 658 79 271 688 133 325 673 
137 7 751 278 36 86 685 484 816 
138 7 238 626 599 78 103 38 296 
139 7 687 283 386 599 772 314 13 
140 7 64 601 494 239 787 104 661 
141 7 474 143 748 821 222 34 10 
142 7 385 506 571 210 226 345 541 
143 7 141 748 474 821 34 222 549 
144 7 743 206 600 713 464 181 302 
145 7 392 94 215 350 359 324 368 
146 7 647 694 764 593 112 135 450 
147 7 234 363 381 408 124 22 318 
148 7 592 771 596 455 290 520 754 
149 7 275 220 668 561 369 18 338 
150 6 393 323 522 218 319 478 
151 7 2 243 558 83 414 559 681 
152 7 300 96 715 600 713 355 206 
153 7 639 735 55 280 779 229 682 
154 7 622 722 492 413 496 762 818 
155 7 445 329 603 110 627 812 122 
156 7 359 695 89 48 145 589 803 
157 6 131 646 791 269 67 367 
158 7 134 449 422 337 609 386 585 
159 7 707 93 762 397 405 763 232 
160 6 710 670 811 544 416 638 
161 7 273 396 320 701 755 445 110 
162 7 781 475 12 718 750 789 378 
163 7 439 602 643 67 358 530 649 
164 7 322 424 669 443 774 21 674 
165 7 509 702 752 753 127 360 30 
166 7 465 351 50 49 793 167 552 
167 7 613 50 199 49 610 793 488 
168 7 732 379 314 772 75 740 296 
169 7 720 673 642 292 205 503 446 
170 7 479 794 307 664 344 23 240 
171 7 567 198 121 312 25 343 371 
172 7 703 68 586 582 623 221 259 
173 6 82 591 691 401 106 426 
174 6 289 677 659 236 684 473 
175 7 24 120 657 763 109 279 405 
176 6 7 250 753 341 433 127 
177 7 564 399 517 676 41 410 719 
178 5 570 515 618 565 390 
179 7 538 361 115 683 366 223 451 
180 7 55 229 342 395 636 808 153 
181 7 8 464 206 144 600 713 723 
182 5 491 510 293 324 578 
183 7 625 69 119 85 262 650 248 
184 7 457 32 704 232 496 604 671 
185 7 719 45 410 321 517 399 564 
186 6 499 801 21 674 322 551 
187 7 730 418 403 65 817 434 420 
188 7 365 619 629 130 346 681 321 
189 7 733 52 485 126 277 90 611 
190 6 654 39 310 651 208 30 
191 7 33 357 108 87 132 230 263 
192 7 352 22 630 363 511 417 598 
193 7 682 779 91 43 776 280 735 
194 7 660 44 539 773 575 487 459 
195 5 712 97 256 258 294 
196 7 531 12 766 162 378 257 781 
197 7 775 530 602 367 439 804 163 
198 7 261 387 171 376 349 29 624 
199 7 613 167 207 413 793 796 818 
200 6 258 684 294 473 712 195 
201 4 347 114 656 741 
202 6 759 76 436 288 562 614 
203 7 83 414 377 558 2 339 243 
204 6 655 23 431 501 765 344 
205 7 56 806 642 92 503 334 662 
206 7 144 464 600 713 743 181 8 
207 6 397 818 26 199 675 413 
208 4 39 777 30 651 
209 7 37 528 757 652 797 126 52 
210 7 345 385 472 142 506 313 295 
211 5 400 587 512 100 373 
212 6 612 536 217 331 223 128 
213 7 5 686 769 228 552 444 20 
214 7 291 738 58 113 569 241 316 
215 4 94 368 350 392 
216 4 807 560 822 57 
217 6 331 612 212 536 223 179 
218 5 522 393 323 101 478 
219 7 356 756 500 73 700 803 48 
220 7 369 149 260 668 275 486 403 
221 7 582 623 590 476 427 63 264 
222 7 141 143 474 247 748 34 821 
223 6 366 179 212 537 632 353 
224 7 284 672 46 526 421 721 77 
225 6 714 103 66 785 272 514 
226 7 571 295 478 101 323 319 385 
227 7 727 693 523 495 81 11 634 
228 7 686 20 213 725 252 454 769 
229 7 180 55 342 153 639 395 735 
230 7 80 357 633 263 330 132 108 
231 4 469 97 195 256 
232 7 93 32 184 762 457 496 604 
233 5 532 244 402 628 33 
234 6 147 408 381 363 391 318 
235 7 360 752 595 702 509 165 679 
236 7 430 677 611 277 659 289 174 
237 3 259 70 10 
238 7 138 626 78 599 103 38 785 
239 7 263 80 230 357 104 330 661 
240 7 664 765 431 275 307 23 149 
241 7 648 279 291 58 738 214 175 
242 4 71 407 644 490 
243 7 2 558 151 414 559 83 203 
244 4 532 628 233 33 
245 7 327 766 42 378 531 549 81 
246 5 117 298 437 694 112 
247 7 574 34 814 222 549 143 388 
248 3 262 69 625 
249 6 102 281 489 811 544 332 
250 4 176 433 7 341 
251 7 421 77 721 795 306 27 672 
252 6 725 228 20 426 680 686 
253 3 113 290 738 
254 7 573 462 583 709 92 662 375 
255 7 72 792 266 47 270 481 689 
256 2 712 195 
257 7 415 86 816 685 10 196 821 
258 5 200 294 684 712 195 
259 4 237 70 703 68 
260 7 369 403 220 187 486 817 420 
261 7 29 349 198 376 387 533 525 
262 5 248 625 69 650 183 
263 7 239 80 230 357 633 330 108 
264 7 427 476 623 63 68 221 685 
265 7 274 333 797 90 285 126 485 
266 7 72 47 792 255 270 481 442 
267 5 428 468 609 347 114 
268 6 287 342 636 808 229 128 
269 6 131 560 157 367 646 216 
270 7 47 255 800 483 72 266 641 
271 7 658 136 688 133 79 673 446 
272 5 785 103 225 548 714 
273 7 161 320 396 701 755 445 110 
274 7 265 333 285 797 126 485 90 
275 7 149 220 240 369 668 307 561 
276 7 739 35 394 364 60 332 607 
277 7 584 430 611 189 52 236 786 
278 7 137 751 36 484 62 86 685 
279 7 120 109 175 648 405 24 383 
280 7 639 779 153 55 395 735 682 
281 6 544 489 811 102 160 249 
282 6 384 723 597 17 8 577 
283 7 139 599 13 38 18 138 561 
284 7 672 224 526 46 421 721 77 
285 5 274 265 37 333 797 
286 6 31 556 317 569 90 316 
287 5 268 539 636 342 44 
288 7 76 202 798 436 759 562 572 
289 6 174 677 236 684 659 611 
290 4 754 148 596 253 
291 7 214 738 58 113 241 316 648 
292 7 770 519 535 673 15 169 720 
293 4 510 182 491 324 
294 5 258 712 684 195 200 
295 7 319 226 323 571 478 385 101 
296 7 740 379 372 75 168 671 314 
297 7 51 767 13 337 561 283 139 
298 3 246 400 117 
299 7 518 84 95 784 656 383 114 
300 7 96 355 152 122 627 460 715 
301 7 343 25 576 441 529 567 699 
302 7 799 605 665 745 144 482 464 
303 7 451 115 683 538 179 361 331 
304 7 466 330 746 633 59 80 230 
305 6 328 473 200 684 258 174 
306 7 795 429 411 27 669 9 650 
307 7 664 240 275 170 369 431 23 
308 7 805 66 813 4 527 448 550 
309 7 28 362 458 555 706 671 704 
310 6 809 190 654 352 630 541 
311 5 819 123 497 43 735 
312 6 121 815 371 653 49 471 
313 5 546 506 210 692 142 
314 7 772 168 379 732 296 139 75 
315 5 470 645 325 79 136 
316 5 58 456 317 804 556 
317 6 556 286 31 316 58 569 
318 5 391 546 124 98 692 
319 7 295 323 150 226 393 522 478 
320 7 273 161 396 445 701 110 155 
321 7 185 719 517 629 410 45 346 
322 7 164 21 669 674 801 774 443 
323 7 393 522 150 218 478 101 319 
324 4 510 350 182 293 
325 7 79 136 658 133 271 563 688 
326 7 783 423 755 71 644 637 242 
327 7 245 766 549 42 378 531 634 
328 6 305 473 200 684 174 258 
329 7 603 155 627 761 445 577 110 
330 7 633 466 80 230 304 132 542 
331 6 217 212 612 536 115 179 
332 6 364 498 739 35 102 679 
333 7 265 274 649 705 663 285 90 
334 7 53 503 806 3 56 205 129 
335 6 481 689 255 792 72 670 
336 7 803 695 48 89 156 356 756 
337 7 134 158 747 449 767 51 297 
338 7 51 297 561 13 767 747 337 
339 6 377 203 559 414 83 243 
340 7 111 434 590 594 521 380 221 
341 5 433 406 7 176 250 
342 7 180 636 229 808 268 55 128 
343 7 25 301 576 441 699 529 567 
344 7 23 431 664 204 170 794 240 
345 7 472 210 385 295 142 226 319 
346 7 629 681 151 2 619 188 365 
347 7 114 656 201 428 95 267 518 
348 6 61 580 493 551 646 780 
349 6 29 261 533 525 698 198 
350 4 324 215 94 510 
351 4 166 793 50 465 
352 6 511 630 22 809 192 310 
353 6 632 537 223 366 128 808 
354 6 540 749 118 512 586 703 
355 7 96 122 300 152 627 715 398 
356 7 219 500 756 73 803 700 48 
357 7 230 80 108 263 633 132 191 
358 7 67 163 649 439 602 705 643 
359 7 89 48 145 156 392 500 695 
360 7 752 235 702 509 14 165 54 
361 7 538 179 683 115 451 537 605 
362 7 28 555 706 697 309 624 467 
363 7 192 381 22 630 147 352 511 
364 7 332 498 739 35 102 679 557 
365 7 188 619 629 346 130 681 321 
366 6 223 537 179 632 353 361 
367 7 775 269 197 602 822 67 439 
368 4 215 94 392 350 
369 7 260 220 403 149 275 486 668 
370 6 547 729 105 30 404 690 
371 7 653 488 121 610 312 49 728 
372 7 296 740 75 379 458 671 78 
373 4 400 211 587 100 
374 7 125 508 788 448 640 380 550 
375 5 802 583 116 573 254 
376 7 387 624 261 198 697 362 29 
377 5 203 339 414 83 558 
378 7 42 245 81 12 327 531 766 
379 7 75 296 740 168 732 314 372 
380 7 521 111 594 340 374 434 640 
381 7 363 408 147 234 192 516 22 
382 7 16 484 594 36 62 508 374 
383 7 784 84 279 648 109 120 299 
384 7 282 17 577 502 597 761 460 
385 7 142 345 210 571 226 295 472 
386 6 687 139 609 422 767 134 
387 7 376 624 198 261 697 362 29 
388 7 814 85 247 222 574 736 69 
389 7 557 690 60 435 598 607 417 
390 3 565 178 618 
391 3 318 546 147 
392 7 94 145 215 368 589 350 678 
393 6 522 218 323 150 101 478 
394 7 99 276 739 35 60 607 364 
395 6 742 55 180 280 639 153 
396 7 701 161 755 110 445 273 812 
397 7 818 207 762 154 413 26 622 
398 7 717 715 776 667 91 96 355 
399 7 564 410 177 517 719 185 45 
400 4 373 211 587 100 
401 6 691 82 173 426 106 591 
402 7 661 104 233 532 191 33 244 
403 7 260 187 369 817 420 486 730 
404 7 105 557 370 690 547 679 595 
405 7 109 120 763 175 24 279 657 
406 5 734 480 341 433 7 
407 4 242 802 462 71 
408 7 381 234 147 363 192 22 391 
409 7 782 6 621 804 57 657 24 
410 7 719 399 185 517 564 45 177 
411 7 27 795 650 9 119 306 262 
412 3 578 491 182 
413 7 492 154 818 622 722 796 74 
414 7 83 558 2 203 243 151 559 
415 7 257 816 86 685 10 751 137 
416 6 758 638 711 710 483 54 
417 6 598 511 192 516 352 708 
418 7 65 730 434 187 582 590 111 
419 6 585 449 747 134 158 515 
420 7 817 118 730 187 403 418 65 
421 7 77 721 46 9 513 27 795 
422 5 609 158 386 687 134 
423 7 71 242 644 783 326 588 407 
424 6 164 469 443 322 669 21 
425 7 355 398 122 96 776 300 553 
426 6 760 691 401 82 680 252 
427 7 264 623 476 63 221 68 582 
428 6 267 347 468 114 201 656 
429 6 306 424 469 164 669 774 
430 7 277 236 584 611 659 52 189 
431 7 23 765 240 655 204 664 344 
432 7 566 505 88 501 204 344 23 
433 4 341 250 176 7 
434 7 111 340 590 65 418 521 582 
435 7 507 607 60 389 708 557 598 
436 6 76 562 614 759 202 471 
437 2 117 246 
438 6 731 519 535 617 820 15 
439 7 163 602 643 67 530 358 775 
440 6 786 608 447 569 584 31 
441 6 25 576 699 343 301 529 
442 2 543 47 
443 5 164 674 424 322 21 
444 6 686 5 20 213 454 552 
445 7 110 155 329 603 396 701 812 
446 5 579 688 554 169 133 
447 6 608 440 786 569 584 31 
448 7 550 125 805 308 788 4 527 
449 7 158 134 585 337 419 747 422 
450 7 135 494 477 593 764 647 140 
451 7 683 115 303 538 179 361 665 
452 7 477 135 494 647 593 450 764 
453 7 38 18 668 272 785 626 238 
454 7 20 686 444 228 680 725 11 
455 6 771 592 148 520 596 741 
456 5 316 530 804 58 643 
457 7 184 32 704 496 232 671 75 
458 7 671 704 309 28 75 740 555 
459 7 575 487 666 194 539 44 617 
460 7 502 761 17 577 384 282 181 
461 5 262 82 248 545 173 
462 5 254 573 802 92 583 
463 4 615 73 700 756 
464 7 206 181 144 8 743 600 713 
465 5 166 552 351 5 50 
466 7 304 330 633 80 542 746 230 
467 7 514 527 4 706 555 697 308 
468 6 267 428 604 93 114 347 
469 3 424 443 164 
470 6 315 438 325 79 658 136 
471 5 562 614 436 567 121 
472 7 345 210 385 295 319 142 226 
473 6 328 684 174 200 305 289 
474 7 141 748 143 821 222 10 34 
475 7 162 781 750 12 718 789 378 
476 7 63 427 623 264 221 590 582 
477 7 135 450 494 593 764 452 647 
478 7 101 226 323 218 480 393 522 
479 7 170 40 100 553 794 587 307 
480 3 734 406 101 
481 7 689 335 792 72 255 266 47 
482 6 799 129 724 3 745 53 
483 6 711 54 638 14 758 800 
484 7 36 16 62 382 278 137 751 
485 7 126 797 733 757 90 37 52 
486 5 768 187 668 220 548 
487 7 575 459 539 194 44 666 660 
488 7 610 653 371 728 49 121 312 
489 6 281 544 102 811 160 249 
490 7 588 116 644 597 802 375 407 
491 6 182 510 293 324 578 412 
492 7 413 154 622 722 74 796 818 
493 6 780 61 551 348 252 580 
494 7 135 450 477 140 601 64 593 
495 7 693 11 727 227 680 778 454 
496 7 722 184 457 622 154 232 32 
497 7 43 123 311 682 432 735 819 
498 6 679 364 332 595 105 404 
499 6 186 801 674 21 580 551 
500 7 356 219 89 48 359 700 803 
501 5 635 204 655 566 23 
502 7 761 460 17 577 384 282 8 
503 7 806 720 334 205 56 642 53 
504 5 59 631 746 606 696 
505 7 88 566 432 107 501 635 204 
506 7 142 313 546 692 210 385 541 
507 7 435 607 60 389 708 557 35 
508 5 525 698 788 125 374 
509 7 702 165 752 360 127 235 753 
510 4 293 324 182 491 
511 6 352 809 630 417 598 192 
512 6 354 540 749 118 211 587 
513 7 9 85 119 183 625 721 69 
514 7 467 527 4 706 555 225 697 
515 6 618 178 570 419 585 565 
516 7 708 417 598 192 363 511 352 
517 7 410 719 564 399 177 185 321 
518 7 299 95 84 656 114 347 784 
519 7 535 15 770 292 737 820 617 
520 4 455 148 771 754 
521 7 380 111 594 340 434 374 382 
522 6 393 218 323 150 101 478 
523 7 81 42 227 634 778 378 245 
524 3 628 339 33 
525 5 698 533 788 29 349 
526 7 672 284 224 46 421 251 721 
527 7 4 308 467 805 514 550 448 
528 7 209 757 37 52 652 126 797 
529 7 576 301 343 441 25 581 798 
530 6 643 439 456 163 602 197 
531 7 766 196 549 245 327 378 12 
532 4 244 233 628 33 
533 7 29 525 788 349 125 698 261 
534 5 474 222 141 237 736 
535 7 519 15 770 737 292 820 617 
536 6 612 212 217 128 331 223 
537 7 632 366 223 353 361 538 179 
538 7 361 179 683 115 451 665 605 
539 7 44 194 487 575 660 459 536 
540 6 354 749 512 586 118 703 
541 7 98 692 506 142 190 310 124 
542 7 132 633 108 744 330 80 87 
543 2 442 47 
544 6 281 489 811 160 416 710 
545 7 620 760 727 426 11 680 693 
546 5 313 506 692 98 210 
547 6 370 729 30 105 39 404 
548 4 768 616 66 272 
549 7 766 34 327 531 245 196 378 
550 7 448 4 125 805 308 527 788 
551 7 61 493 580 348 780 106 499 
552 7 5 465 213 769 444 166 686 
553 7 794 479 170 776 425 100 587 
554 4 579 446 133 688 
555 7 706 28 362 309 697 467 514 
556 5 317 286 31 316 456 
557 7 35 404 389 105 60 690 607 
558 7 2 83 243 414 151 203 559 
559 7 243 558 2 339 414 83 151 
560 5 269 216 131 807 367 
561 7 18 13 283 297 51 767 38 
562 5 614 436 471 76 759 
563 5 554 133 325 79 136 
564 7 399 177 517 410 719 41 185 
565 3 390 178 570 
566 7 432 501 88 505 204 655 344 
567 7 171 301 471 343 25 121 312 
568 7 87 744 108 132 542 559 243 
569 7 317 31 608 286 447 214 440 
570 6 178 515 618 565 810 390 
571 7 226 478 101 385 295 142 323 
572 7 778 798 288 76 202 750 759 
573 7 254 583 462 709 92 662 375 
574 7 247 34 549 814 327 766 245 
575 7 487 459 539 194 44 666 660 
576 7 441 343 25 301 529 699 581 
577 7 17 761 502 384 460 282 597 
578 5 412 182 491 293 510 
579 3 446 554 133 
580 4 61 348 551 646 
581 7 789 529 576 441 718 699 62 
582 7 221 590 623 65 418 434 476 
583 5 709 573 254 662 92 
584 7 277 430 786 440 189 447 608 
585 6 419 449 158 134 747 618 
586 5 703 540 749 172 354 
587 6 100 211 512 373 40 400 
588 7 490 644 116 597 242 812 407 
589 7 678 392 94 145 368 215 130 
590 7 221 582 340 434 623 111 476 
591 7 173 106 82 401 691 774 426 
592 6 771 148 596 455 299 784 
593 7 764 647 135 450 477 494 452 
594 7 382 340 521 16 380 111 484 
595 6 679 235 360 498 105 752 
596 7 592 148 771 290 784 383 455 
597 5 116 282 384 723 375 
598 7 417 511 192 352 389 516 708 
599 7 138 238 283 626 78 139 38 
600 6 713 743 144 206 464 181 
601 5 140 787 64 494 239 
602 7 439 163 67 643 358 775 530 
603 7 329 577 627 761 17 155 110 
604 7 32 732 184 232 457 93 168 
605 7 665 745 3 302 361 538 799 
606 3 504 59 696 
607 7 60 435 507 389 557 35 276 
608 7 447 440 786 569 31 584 286 
609 5 422 687 386 158 267 
610 7 488 653 728 371 796 49 167 
611 7 52 236 277 528 677 430 652 
612 6 536 212 217 331 128 223 
613 7 167 199 50 793 49 610 351 
614 5 562 436 471 76 759 
615 3 463 73 412 
616 6 640 813 66 768 548 308 
617 7 820 731 15 773 737 535 660 
618 5 515 178 419 585 570 
619 7 188 681 365 130 346 629 2 
620 5 545 727 760 227 11 
621 4 57 822 675 807 
622 7 722 154 492 496 413 762 818 
623 7 221 427 476 264 582 63 590 
624 7 387 376 362 74 697 28 309 
625 7 69 183 119 262 248 85 650 
626 7 78 238 138 103 785 599 272 
627 7 122 300 355 329 761 502 96 
628 5 244 532 33 233 524 
629 7 346 365 188 321 517 619 681 
630 7 22 352 809 511 192 310 124 
631 5 504 696 59 746 41 
632 6 537 353 366 223 361 179 
633 7 80 230 330 132 542 357 108 
634 5 523 42 227 81 245 
635 5 501 655 107 204 765 
636 7 808 342 128 180 268 536 353 
637 5 783 563 423 71 554 
638 6 416 711 758 483 710 54 
639 7 153 280 55 779 735 229 395 
640 6 616 813 768 66 548 308 
641 6 800 14 54 127 483 270 
642 7 205 56 806 92 503 720 334 
643 6 163 439 530 602 663 67 
644 6 588 490 242 71 407 116 
645 4 315 325 470 79 
646 4 157 131 791 348 
647 7 593 764 135 477 450 494 452 
648 7 241 279 383 738 291 175 109 
649 7 358 705 67 163 663 643 333 
650 7 119 262 183 9 625 411 248 
651 4 208 480 39 190 
652 6 209 528 37 757 52 611 
653 7 371 488 610 121 312 728 49 
654 7 190 39 30 208 729 310 651 
655 5 204 431 765 23 501 
656 7 114 347 201 95 518 299 428 
657 7 24 175 763 120 26 405 109 
658 7 271 136 79 688 133 673 325 
659 7 236 174 430 289 677 277 611 
660 7 773 194 737 44 820 15 617 
661 7 104 402 64 239 263 191 233 
662 6 709 92 583 56 129 205 
663 5 643 649 163 333 530 
664 7 307 240 431 23 170 344 765 
665 7 605 745 3 361 538 683 302 
666 7 459 575 487 731 194 617 820 
667 5 717 742 91 715 395 
668 7 453 18 38 220 149 561 486 
669 7 774 322 164 21 591 424 801 
670 6 790 710 160 335 638 19 
671 7 458 704 75 740 309 457 28 
672 7 284 224 526 46 421 721 77 
673 7 169 292 271 770 519 688 658 
674 7 21 801 186 499 322 443 164 
675 3 621 207 26 
676 7 41 744 542 177 132 568 87 
677 6 289 236 611 174 652 684 
678 7 589 392 130 368 94 215 145 
679 6 595 498 235 105 404 360 
680 7 11 760 426 725 454 20 252 
681 7 2 83 558 414 619 151 203 
682 7 779 735 193 153 639 280 43 
683 7 451 115 538 361 179 303 665 
684 6 200 258 289 294 677 174 
685 7 816 86 415 751 137 278 257 
686 7 20 228 213 454 444 5 725 
687 5 386 139 609 772 422 
688 7 133 271 136 658 446 79 673 
689 7 481 335 792 72 255 266 47 
690 5 404 105 729 370 547 
691 6 82 401 173 426 591 760 
692 7 98 541 506 546 313 142 124 
693 7 495 727 11 227 680 778 523 
694 7 112 146 647 452 764 593 477 
695 7 803 48 156 336 89 359 500 
696 4 631 504 606 59 
697 7 362 706 555 376 467 28 387 
698 5 525 508 533 29 349 
699 6 441 25 576 343 301 698 
700 7 491 412 182 500 219 73 578 
701 7 755 812 110 396 445 588 603 
702 7 509 165 752 360 235 127 753 
703 5 172 68 586 259 70 
704 7 457 671 184 458 32 75 496 
705 6 649 358 791 67 333 163 
706 7 555 362 28 467 514 697 309 
707 7 159 405 763 109 120 84 93 
708 7 516 417 598 435 389 192 507 
709 5 583 662 92 573 254 
710 6 160 638 416 670 758 711 
711 6 758 483 638 54 416 14 
712 5 195 97 294 256 258 
713 6 600 743 144 206 464 181 
714 6 225 66 272 308 548 785 
715 5 717 96 152 667 398 
716 4 463 615 73 756 
717 5 715 667 398 96 152 
718 7 781 162 475 789 12 581 750 
719 7 410 185 517 45 399 564 321 
720 7 503 806 642 169 205 56 334 
721 7 77 421 513 9 46 27 119 
722 7 622 154 496 492 762 413 184 
723 4 8 724 282 384 
724 5 482 723 8 129 662 
725 6 252 228 20 680 686 454 
726 6 736 388 222 46 814 85 
727 7 693 11 495 227 545 620 680 
728 7 796 610 488 74 653 371 167 
729 5 547 370 30 654 39 
730 7 418 65 187 434 817 582 111 
731 7 617 820 15 535 438 519 773 
732 7 168 75 379 604 740 314 32 
733 7 90 485 126 189 797 52 757 
734 5 406 480 341 7 433 
735 7 153 123 639 779 682 819 280 
736 6 222 726 534 388 141 474 
737 7 15 773 535 770 660 519 820 
738 7 113 291 214 648 241 58 253 
739 7 276 364 332 35 498 102 557 
740 7 75 296 379 372 671 458 168 
741 3 201 656 114 
742 4 395 667 55 180 
743 6 144 600 713 206 464 302 
744 7 568 87 542 676 132 108 41 
745 7 3 665 605 53 129 799 334 
746 7 59 504 304 631 466 41 330 
747 7 337 134 449 419 51 585 158 
748 7 141 143 474 821 10 34 257 
749 7 354 540 118 586 512 172 703 
750 7 475 789 781 162 798 572 718 
751 7 137 278 36 86 685 484 816 
752 7 360 702 509 235 165 14 54 
753 7 127 7 176 250 777 165 341 
754 3 290 148 520 
755 7 701 812 396 110 588 445 644 
756 7 219 356 73 500 803 700 48 
757 7 37 797 209 528 126 485 52 
758 6 416 711 638 483 54 14 
759 6 202 76 436 562 614 288 
760 7 426 545 680 691 82 620 11 
761 7 577 502 17 460 384 282 627 
762 7 93 232 154 496 722 622 32 
763 7 405 120 24 657 109 175 26 
764 7 593 647 135 450 477 494 452 
765 6 431 240 655 23 204 664 
766 7 327 531 549 245 378 196 42 
767 7 13 297 51 337 386 139 283 
768 4 548 616 640 66 
769 6 213 5 228 552 686 560 
770 7 292 519 15 535 737 673 720 
771 6 455 592 148 596 299 520 
772 6 314 168 379 139 687 732 
773 7 660 737 194 15 820 617 535 
774 7 669 322 164 591 106 21 173 
775 7 197 367 602 439 530 163 67 
776 7 91 398 193 667 717 779 280 
777 4 208 7 734 753 
778 7 572 81 523 750 798 227 495 
779 7 280 682 639 153 735 55 193 
780 6 493 61 348 551 252 228 
781 7 162 475 718 12 750 789 378 
782 7 6 409 24 657 804 175 621 
783 7 326 423 637 71 242 563 644 
784 7 383 84 299 518 109 279 95 
785 6 272 103 225 78 714 626 
786 7 440 608 447 584 569 31 189 
787 5 601 140 239 64 304 
788 7 125 533 448 525 508 550 698 
789 7 581 750 475 718 781 162 529 
790 6 670 19 335 160 710 689 
791 5 157 705 646 358 67 
792 7 72 255 266 47 481 689 270 
793 3 351 613 167 
794 7 170 344 553 479 664 23 307 
795 7 27 411 306 9 650 119 77 
796 7 728 74 610 413 488 492 653 
797 7 126 757 485 37 209 274 528 
798 7 288 572 529 750 76 789 202 
799 7 482 302 129 745 605 3 665 
800 6 641 14 54 270 483 711 
801 7 21 186 674 499 322 106 551 
802 5 375 116 254 573 462 
803 7 48 695 89 336 500 356 359 
804 6 456 6 197 530 782 316 
805 7 308 813 4 66 527 448 550 
806 7 56 205 503 642 334 92 720 
807 4 216 822 57 621 
808 7 128 636 342 353 536 223 212 
809 5 310 352 511 630 22 
810 7 570 178 515 618 107 565 635 
811 7 281 544 489 160 710 102 249 
812 7 110 701 588 755 603 490 445 
813 7 66 308 805 616 640 448 714 
814 7 85 388 247 574 69 625 183 
815 5 312 121 49 50 371 
816 7 685 86 415 137 751 257 278 
817 7 420 187 730 403 118 418 65 
818 7 397 413 154 207 492 622 722 
819 7 123 735 153 229 639 55 682 
820 7 617 731 15 535 737 773 519 
821 7 748 143 141 474 34 257 196 
822 5 57 807 621 216 367 
DEPOT_SECTION
   1
   -1
EOF
