NAME :  X-n936-kX-w93-c11.cctp
COMMENT : 	Adapted by Maziero, Usberti and Cavellucci from the Uchoa, Pecin, Pessoa, Poggi, Subramanian, and Vidal (2013)
TYPE :  CCTP
DIMENSION :    691
EDGE_WEIGHT_TYPE : 	EUC_2D	
CAPACITY : 	138
VERTICES_WITHIN_COVERAGE :  11
VERTICES_WITH_DEMAND : 	93
NODE_COORD_SECTION
1 500 500
2 971 544
3 564 976
4 266 4
5 395 95
6 316 877
7 963 89
8 496 96
9 274 493
10 516 598
11 338 849
12 58 395
13 923 411
14 670 912
15 576 101
16 902 552
17 888 709
18 703 539
19 10 341
20 55 984
21 420 132
22 870 218
23 933 196
24 123 372
25 973 824
26 253 201
27 84 941
28 792 164
29 702 811
30 263 756
31 161 986
32 322 75
33 969 514
34 140 665
35 313 386
36 53 583
37 836 244
38 450 730
39 642 334
40 907 431
41 570 705
42 587 264
43 703 666
44 877 132
45 138 487
46 275 598
47 2 354
48 538 460
49 716 573
50 65 579
51 505 17
52 544 958
53 175 838
54 838 67
55 122 410
56 126 430
57 598 544
58 299 442
59 224 930
60 593 453
61 764 848
62 485 95
63 130 114
64 832 863
65 659 293
66 259 936
67 615 141
68 808 263
69 970 317
70 815 888
71 405 330
72 64 525
73 588 746
74 170 392
75 681 640
76 223 283
77 109 297
78 675 904
79 576 171
80 484 439
81 329 79
82 504 393
83 676 664
84 124 658
85 749 89
86 162 848
87 521 0
88 1 873
89 72 718
90 983 770
91 104 702
92 47 781
93 706 244
94 626 678
95 259 339
96 45 562
97 662 602
98 502 327
99 218 628
100 524 21
101 348 100
102 84 93
103 118 76
104 990 739
105 980 477
106 267 231
107 45 336
108 390 140
109 93 808
110 998 949
111 554 435
112 973 506
113 778 252
114 935 755
115 20 901
116 349 926
117 874 686
118 212 933
119 313 230
120 620 990
121 876 34
122 481 60
123 158 494
124 304 611
125 916 16
126 606 344
127 48 866
128 557 242
129 881 199
130 942 308
131 367 909
132 567 429
133 263 687
134 80 592
135 917 557
136 663 574
137 661 630
138 969 401
139 820 144
140 24 571
141 693 323
142 487 344
143 497 48
144 803 6
145 933 729
146 50 642
147 679 303
148 775 271
149 358 1
150 87 466
151 678 210
152 310 98
153 60 386
154 211 11
155 27 576
156 239 512
157 339 610
158 480 11
159 590 578
160 288 823
161 164 489
162 900 201
163 632 524
164 738 109
165 893 40
166 540 895
167 212 305
168 323 70
169 363 67
170 9 393
171 128 947
172 216 578
173 25 274
174 195 119
175 221 479
176 94 951
177 14 611
178 271 437
179 33 583
180 899 242
181 773 188
182 860 280
183 149 839
184 773 271
185 863 14
186 216 323
187 808 127
188 529 712
189 538 620
190 631 17
191 332 451
192 607 153
193 434 192
194 138 825
195 627 320
196 883 457
197 383 339
198 206 590
199 924 152
200 340 43
201 870 772
202 363 386
203 679 316
204 931 697
205 11 913
206 611 501
207 867 257
208 728 74
209 698 23
210 898 404
211 786 605
212 745 715
213 69 902
214 660 810
215 521 591
216 713 540
217 513 141
218 354 109
219 596 71
220 280 435
221 563 585
222 476 563
223 906 759
224 494 590
225 834 195
226 765 282
227 997 212
228 702 13
229 175 81
230 125 900
231 852 555
232 71 327
233 84 429
234 982 249
235 611 223
236 731 863
237 40 563
238 703 347
239 661 662
240 678 775
241 415 366
242 134 657
243 542 714
244 154 654
245 960 5
246 522 197
247 935 115
248 338 567
249 621 926
250 554 225
251 976 124
252 892 594
253 605 401
254 963 118
255 499 330
256 218 594
257 790 923
258 296 46
259 623 94
260 14 439
261 49 257
262 454 598
263 195 838
264 540 227
265 718 784
266 409 746
267 35 456
268 762 832
269 592 591
270 196 254
271 753 35
272 202 846
273 916 395
274 830 95
275 24 750
276 976 279
277 865 302
278 343 344
279 409 702
280 301 254
281 578 746
282 259 335
283 571 676
284 744 582
285 64 936
286 248 717
287 531 123
288 176 708
289 479 758
290 82 818
291 922 369
292 684 955
293 942 265
294 367 372
295 536 97
296 787 785
297 26 285
298 491 117
299 949 12
300 80 279
301 715 860
302 463 711
303 196 283
304 602 591
305 728 198
306 577 759
307 251 30
308 746 628
309 334 850
310 308 324
311 969 149
312 610 463
313 922 681
314 439 747
315 13 834
316 946 578
317 491 438
318 893 830
319 558 441
320 525 263
321 517 36
322 643 965
323 120 476
324 787 273
325 849 702
326 340 19
327 635 520
328 607 304
329 603 139
330 55 419
331 928 789
332 108 249
333 971 558
334 983 839
335 726 276
336 0 885
337 132 804
338 680 566
339 801 108
340 90 614
341 69 317
342 666 531
343 638 898
344 319 639
345 358 855
346 345 118
347 501 939
348 809 837
349 271 94
350 184 431
351 577 166
352 249 631
353 37 855
354 225 839
355 257 910
356 163 960
357 336 595
358 591 477
359 638 385
360 801 917
361 980 748
362 629 565
363 518 59
364 171 816
365 386 852
366 527 405
367 520 113
368 959 231
369 927 484
370 320 976
371 638 118
372 343 933
373 4 457
374 535 683
375 30 800
376 496 80
377 243 194
378 630 363
379 845 547
380 162 843
381 50 364
382 555 775
383 171 505
384 869 873
385 15 809
386 597 797
387 795 196
388 682 724
389 569 427
390 481 295
391 651 692
392 560 666
393 157 438
394 824 134
395 850 450
396 773 913
397 769 561
398 538 228
399 229 200
400 806 122
401 711 514
402 173 688
403 548 987
404 961 861
405 634 81
406 876 764
407 230 630
408 536 102
409 133 535
410 784 861
411 602 148
412 134 487
413 821 842
414 512 487
415 38 639
416 8 577
417 278 643
418 79 371
419 126 655
420 627 223
421 74 924
422 350 839
423 9 780
424 66 944
425 74 990
426 707 856
427 447 745
428 254 702
429 820 679
430 873 665
431 101 533
432 456 728
433 806 226
434 771 559
435 24 828
436 761 118
437 263 505
438 3 602
439 604 17
440 480 109
441 269 982
442 134 993
443 905 394
444 304 162
445 234 264
446 878 612
447 620 156
448 303 278
449 44 855
450 718 798
451 64 437
452 760 816
453 87 637
454 834 898
455 599 142
456 76 267
457 648 838
458 170 474
459 847 75
460 991 131
461 987 776
462 638 775
463 684 597
464 329 406
465 293 468
466 875 548
467 549 509
468 197 614
469 357 841
470 191 919
471 292 100
472 381 271
473 133 135
474 467 749
475 549 358
476 228 411
477 412 751
478 982 733
479 860 42
480 78 903
481 122 157
482 527 51
483 966 7
484 648 970
485 669 263
486 334 63
487 665 637
488 632 101
489 772 217
490 807 906
491 251 470
492 484 123
493 98 682
494 959 30
495 262 911
496 871 459
497 728 510
498 334 535
499 348 353
500 946 531
501 118 14
502 291 752
503 938 361
504 85 112
505 874 752
506 566 966
507 130 180
508 558 532
509 228 473
510 177 434
511 499 981
512 937 557
513 170 92
514 689 524
515 617 651
516 609 240
517 773 84
518 857 102
519 13 695
520 905 706
521 555 993
522 112 144
523 815 693
524 826 813
525 277 759
526 286 363
527 189 724
528 517 641
529 39 562
530 722 245
531 100 949
532 98 751
533 928 681
534 508 959
535 247 144
536 101 476
537 46 938
538 693 941
539 60 300
540 220 235
541 868 188
542 171 754
543 631 311
544 773 569
545 572 581
546 938 403
547 317 863
548 967 345
549 923 234
550 609 241
551 13 883
552 155 385
553 463 764
554 698 572
555 694 529
556 893 883
557 608 537
558 876 170
559 293 93
560 620 941
561 217 857
562 971 225
563 607 215
564 566 671
565 829 126
566 68 960
567 688 990
568 569 563
569 819 29
570 91 351
571 486 578
572 637 370
573 743 89
574 93 635
575 738 183
576 78 389
577 404 706
578 537 567
579 81 414
580 721 77
581 512 627
582 448 179
583 334 10
584 725 542
585 663 226
586 867 142
587 485 465
588 913 100
589 880 698
590 485 582
591 336 126
592 205 23
593 77 83
594 498 141
595 990 797
596 261 397
597 838 659
598 706 222
599 136 687
600 92 894
601 869 500
602 878 112
603 744 525
604 10 324
605 781 904
606 995 534
607 915 464
608 679 632
609 338 854
610 400 176
611 536 577
612 535 103
613 8 650
614 94 338
615 711 300
616 367 345
617 215 838
618 538 736
619 546 974
620 639 364
621 888 908
622 12 388
623 624 519
624 965 418
625 130 464
626 985 43
627 445 191
628 36 437
629 449 675
630 980 804
631 54 321
632 901 710
633 582 253
634 813 96
635 295 739
636 888 766
637 485 952
638 699 715
639 990 890
640 274 884
641 677 618
642 270 576
643 812 834
644 13 418
645 309 509
646 788 858
647 580 301
648 712 540
649 48 732
650 490 483
651 636 970
652 30 346
653 841 214
654 962 807
655 990 333
656 149 678
657 373 62
658 543 908
659 988 913
660 575 465
661 600 467
662 989 243
663 40 530
664 643 379
665 884 415
666 466 117
667 547 294
668 380 304
669 73 831
670 299 858
671 730 158
672 674 908
673 309 487
674 739 812
675 546 173
676 293 376
677 670 846
678 87 244
679 559 950
680 716 790
681 842 77
682 277 644
683 589 803
684 450 327
685 179 362
686 824 185
687 683 106
688 733 905
689 661 205
690 888 583
691 208 385
DEMAND_SECTION
2 88
3 98
4 94
5 89
6 83
7 65
8 85
9 66
10 89
11 80
12 58
13 54
14 75
15 60
16 77
17 69
18 79
19 99
20 86
21 63
22 84
23 92
24 87
25 54
26 93
27 58
28 62
29 98
30 50
31 71
32 55
33 61
34 76
35 76
36 88
37 51
38 78
39 71
40 90
41 90
42 87
43 80
44 74
45 83
46 79
47 77
48 58
49 53
50 99
51 62
52 95
53 61
54 84
55 86
56 91
57 79
58 93
59 76
60 88
61 68
62 80
63 59
64 82
65 53
66 67
67 90
68 51
69 99
70 72
71 70
72 85
73 80
74 80
75 81
76 100
77 60
78 74
79 52
80 70
81 70
82 53
83 92
84 55
85 73
86 63
87 55
88 68
89 100
90 69
91 77
92 55
93 68
94 81
COVERAGE_SECTION
2 11 333 606 500 33 512 112 316 135 105 16 369 
3 11 506 619 403 521 679 52 120 534 511 560 658 
4 8 307 258 154 592 583 326 200 168 
5 11 657 169 218 21 108 101 346 591 81 486 666 
6 11 547 670 309 609 11 640 345 422 469 116 131 
7 11 254 251 247 460 588 626 494 311 199 299 483 
8 11 62 376 440 298 367 492 666 122 295 408 612 
9 11 437 465 491 673 645 156 509 175 178 58 220 
10 11 215 224 581 611 189 590 571 578 528 221 222 
11 10 309 609 422 345 469 547 6 670 365 160 
12 11 153 576 330 579 381 418 451 233 622 628 170 
13 11 273 546 443 40 210 665 291 624 138 503 607 
14 10 672 78 343 538 292 249 560 322 484 688 
15 11 219 295 408 612 329 455 259 287 411 67 488 
16 11 135 466 690 512 252 500 231 316 379 601 446 
17 11 632 589 520 117 325 313 204 505 430 145 533 
18 11 648 216 555 514 584 401 554 338 49 342 497 
19 11 47 604 652 107 381 622 631 170 297 232 341 
20 11 425 566 424 537 285 176 27 531 421 442 171 
21 11 108 5 610 666 582 193 440 627 492 218 298 
22 11 129 653 541 162 180 207 37 225 558 549 686 
23 11 162 549 368 199 562 129 180 311 558 541 227 
24 11 552 55 570 418 614 576 74 685 56 579 153 
25 11 334 654 630 595 404 461 90 331 639 361 114 
26 8 377 399 106 540 535 444 445 119 
27 11 176 424 531 421 285 566 480 537 213 171 600 
28 11 181 387 139 686 187 394 400 225 565 436 339 
29 11 450 680 265 674 214 240 426 677 301 452 236 
30 8 525 502 635 286 428 133 160 527 
31 11 356 442 171 531 470 118 176 59 425 27 230 
32 10 168 81 486 152 559 101 200 258 471 169 
33 11 112 500 2 606 105 333 369 512 135 316 607 
34 11 242 656 84 419 244 599 402 493 91 288 574 
35 10 676 464 526 499 202 278 596 294 58 220 
36 11 50 179 96 237 529 155 134 140 416 177 340 
37 11 653 68 207 433 22 182 225 324 113 686 180 
38 11 432 427 314 302 474 553 289 477 266 279 577 
39 11 195 543 620 378 572 126 203 65 664 328 147 
40 11 13 210 665 607 196 273 443 546 496 369 624 
41 11 243 283 564 392 374 188 281 73 618 306 94 
42 11 633 550 516 128 647 328 235 667 250 563 420 
43 11 83 75 239 608 487 638 137 641 308 391 388 
44 11 586 602 518 558 565 588 199 394 541 139 247 
45 11 412 123 323 625 161 458 383 536 409 393 150 
46 11 642 124 352 417 682 407 256 344 357 172 99 
47 11 19 652 604 622 170 107 381 631 644 153 12 
48 11 319 111 414 660 132 389 467 317 587 650 60 
49 11 554 284 584 216 648 18 338 463 555 136 397 
50 11 36 134 96 237 529 179 155 140 340 72 663 
51 11 100 321 87 158 143 482 363 122 376 8 62 
52 11 619 679 506 3 403 534 521 347 658 511 637 
53 11 380 86 263 364 183 272 194 617 561 354 337 
54 11 681 459 274 479 634 518 569 121 339 185 565 
55 11 56 24 552 579 233 393 576 74 625 418 510 
56 11 55 393 625 233 323 579 510 536 150 552 24 
57 11 557 159 568 623 362 163 508 327 206 545 269 
58 10 220 465 178 191 673 464 491 9 35 596 
59 11 118 470 66 355 495 356 640 441 561 31 272 
60 10 661 312 660 358 132 389 319 111 206 253 
61 11 268 410 646 452 236 674 348 301 643 413 426 
62 11 8 440 376 298 492 666 122 367 594 143 363 
63 9 473 522 103 481 504 513 102 229 593 
64 11 413 70 348 454 643 384 646 410 490 524 360 
65 11 147 203 485 543 195 39 141 615 328 585 93 
66 9 495 355 59 118 441 640 470 370 6 
67 11 329 192 411 447 455 371 488 351 259 79 15 
68 8 324 113 37 148 184 433 226 182 
69 10 655 548 130 276 503 293 234 291 662 138 
70 11 490 454 64 360 605 646 410 257 413 396 348 
71 10 197 668 241 616 684 294 499 278 472 202 
72 11 663 431 96 237 529 50 36 140 536 150 155 
73 10 281 306 382 41 618 386 243 683 462 188 
74 10 552 685 691 350 510 393 24 55 56 476 
75 10 608 487 137 641 83 239 43 97 463 391 
76 7 445 167 303 270 186 540 282 
77 10 300 614 341 456 232 332 539 570 678 631 
78 10 672 14 343 538 292 249 426 677 688 301 
79 11 351 675 411 192 455 329 447 67 563 250 246 
80 7 317 587 650 82 366 414 48 
81 11 32 168 486 152 101 169 200 218 559 346 471 
82 11 366 317 80 142 475 255 111 98 319 132 389 
83 11 239 75 43 487 608 137 391 641 94 638 388 
84 11 419 242 34 244 599 656 493 574 453 91 340 
85 11 573 164 517 208 580 436 271 339 634 400 687 
86 11 380 53 183 194 364 263 272 337 617 561 230 
87 10 100 51 321 158 482 143 363 122 376 439 
88 11 336 551 115 353 205 315 449 127 435 385 213 
89 10 649 91 532 493 275 519 92 599 84 146 
90 10 461 361 595 104 630 478 654 114 25 331 
91 11 493 599 89 84 532 656 34 419 242 649 453 
92 11 375 423 275 385 649 290 435 109 669 532 315 
93 10 530 598 335 485 151 585 305 615 689 147 
94 10 515 391 239 83 283 487 137 564 41 75 
95 11 282 526 186 676 310 167 596 76 691 35 448 
96 11 237 529 36 140 155 179 50 663 416 72 134 
97 9 641 463 136 137 608 487 338 75 554 
98 9 255 142 390 684 475 667 82 320 366 
99 9 407 468 352 256 198 172 682 417 46 
100 11 321 51 87 482 143 363 158 122 376 295 8 
101 9 218 346 81 591 32 169 152 168 486 
102 6 593 504 103 63 522 473 
103 9 102 63 593 504 513 229 473 501 522 
104 8 478 361 90 461 114 145 595 630 
105 11 112 33 369 606 624 500 607 2 138 333 546 
106 9 26 280 377 119 445 540 399 448 76 
107 11 631 652 232 381 341 19 604 539 47 570 418 
108 10 21 610 5 218 346 591 101 193 582 627 
109 9 290 669 337 194 92 532 183 375 449 
110 7 659 639 404 334 621 556 25 
111 11 319 132 389 48 660 366 60 358 661 253 312 
112 11 33 105 606 500 2 369 333 512 607 135 316 
113 9 148 184 324 68 226 489 433 530 335 
114 10 145 223 331 361 636 90 478 461 632 104 
115 11 205 551 336 88 127 537 213 353 449 285 480 
116 4 372 131 370 6 
117 10 589 430 17 325 632 520 597 313 429 533 
118 11 59 470 66 355 495 356 31 441 561 640 171 
119 7 280 106 448 26 444 377 472 
120 11 651 322 484 560 3 506 249 521 567 403 292 
121 11 165 479 185 125 54 459 681 569 518 274 299 
122 11 143 376 62 363 8 321 482 51 158 440 100 
123 11 161 383 45 458 412 625 323 409 393 536 510 
124 9 46 344 157 357 417 682 642 248 352 
125 11 165 299 121 245 494 483 185 479 626 588 7 
126 9 378 195 39 620 328 572 543 647 664 
127 10 449 353 551 213 669 115 435 315 88 480 
128 10 250 264 398 633 42 320 516 550 667 235 
129 11 541 162 22 558 653 180 225 23 549 586 686 
130 9 69 293 276 548 503 655 291 234 549 
131 5 116 372 345 6 365 
132 10 389 111 319 60 660 48 253 366 661 358 
133 8 428 286 682 417 352 635 407 30 
134 11 50 340 36 574 96 453 179 237 529 155 146 
135 11 16 512 316 500 690 466 252 333 2 231 33 
136 9 338 97 463 362 554 342 641 18 49 
137 8 487 608 641 75 97 239 83 463 
138 11 624 546 13 503 273 548 291 443 40 210 655 
139 11 394 565 187 400 28 339 686 586 634 274 225 
140 11 155 179 416 529 237 96 36 438 177 50 663 
141 9 203 147 238 615 65 39 335 543 485 
142 9 255 98 684 390 82 475 366 241 667 
143 11 122 321 363 482 51 376 100 158 8 62 87 
144 11 569 271 185 479 54 121 681 459 517 634 274 
145 9 114 204 520 632 223 533 17 313 478 
146 11 415 453 613 574 177 340 134 36 179 438 493 
147 10 203 65 141 615 485 39 543 238 335 195 
148 6 184 324 226 113 68 335 
149 11 326 583 200 657 169 486 168 258 32 81 4 
150 11 536 323 233 451 625 412 579 56 267 45 330 
151 10 689 585 598 93 305 420 485 530 575 235 
152 8 471 559 32 81 168 101 591 349 
153 11 12 576 381 418 330 579 570 622 233 652 170 
154 5 592 307 4 229 513 
155 11 140 179 237 529 416 96 36 438 177 50 663 
156 10 437 175 9 509 491 383 172 465 645 642 
157 6 357 124 344 248 46 417 
158 11 51 143 87 100 321 122 363 482 376 62 8 
159 8 269 304 545 568 221 57 362 557 
160 11 670 547 309 11 609 6 640 422 354 525 469 
161 11 123 458 383 45 412 625 323 393 409 510 175 
162 11 129 23 22 541 558 549 180 199 653 207 225 
163 7 327 623 557 206 342 57 362 
164 11 573 85 436 208 580 517 671 687 339 400 187 
165 11 121 125 479 185 459 54 299 588 681 494 518 
166 4 658 679 347 52 
167 9 186 76 303 445 270 282 95 685 540 
168 11 32 81 486 152 200 258 559 101 169 471 218 
169 11 657 486 200 81 101 168 32 5 218 326 346 
170 11 622 644 47 260 12 381 153 652 19 628 330 
171 11 531 176 356 27 442 230 31 421 566 424 600 
172 9 198 256 468 99 407 642 46 352 156 
173 11 297 261 539 456 604 300 631 341 107 19 678 
174 5 513 229 535 473 63 
175 9 509 491 156 437 458 9 383 161 350 
176 11 531 27 566 424 171 285 421 425 537 20 480 
177 11 438 179 416 155 415 613 140 36 146 237 529 
178 9 220 58 465 491 596 476 9 509 191 
179 11 155 140 36 237 529 96 416 50 177 438 134 
180 11 549 207 22 162 129 293 182 23 368 541 37 
181 11 387 489 28 575 305 433 686 671 225 113 139 
182 7 277 207 37 180 68 22 653 
183 9 380 86 194 53 364 337 263 272 109 
184 6 148 226 324 113 68 335 
185 11 121 479 165 569 125 54 144 459 681 299 274 
186 10 167 76 282 303 95 685 445 691 270 526 
187 11 400 394 339 139 565 634 274 28 436 517 518 
188 11 243 618 374 41 283 392 564 281 302 306 73 
189 10 581 528 10 215 221 611 392 545 224 578 
190 8 439 219 405 209 228 259 488 15 
191 5 58 465 673 464 220 
192 11 411 447 67 455 329 351 79 371 488 15 259 
193 6 627 582 610 21 108 594 
194 9 183 337 380 86 364 53 109 290 263 
195 11 543 39 328 126 65 378 620 572 647 203 147 
196 11 496 607 395 40 665 601 369 210 13 443 273 
197 9 616 71 668 294 499 278 241 202 472 
198 9 256 172 468 99 407 352 642 46 244 
199 11 247 23 311 44 558 254 588 162 586 251 602 
200 11 486 326 168 169 583 32 81 657 258 149 101 
201 8 406 636 505 223 331 524 318 17 
202 7 294 499 464 616 278 35 197 
203 10 147 141 65 615 238 39 543 195 485 335 
204 7 533 313 520 145 632 17 589 
205 11 115 336 551 88 537 285 213 127 424 353 421 
206 8 623 163 327 358 557 661 312 57 
207 9 182 37 180 22 277 653 68 129 549 
208 11 580 573 85 164 271 517 436 687 209 228 339 
209 9 228 271 208 580 190 573 85 687 405 
210 8 443 665 273 13 40 546 291 196 
211 9 544 308 397 284 434 597 49 429 231 
212 8 638 388 43 523 265 680 296 429 
213 10 480 421 600 285 27 127 424 537 115 449 
214 10 457 677 240 462 29 450 680 265 386 426 
215 11 10 611 224 578 189 571 581 590 221 528 545 
216 10 648 18 584 555 401 514 49 497 603 554 
217 11 594 287 367 298 492 612 408 440 675 8 295 
218 9 101 346 591 81 5 169 152 32 108 
219 9 259 15 405 488 439 371 190 295 329 
220 11 178 58 465 596 491 191 464 476 9 35 673 
221 10 545 568 159 611 269 578 304 215 189 10 
222 6 571 590 224 262 10 215 
223 9 636 114 406 505 331 201 145 632 17 
224 11 590 571 10 215 222 262 581 611 578 189 528 
225 11 686 653 541 387 433 22 129 37 558 28 139 
226 6 184 148 324 113 335 68 
227 11 562 662 234 368 23 311 276 293 549 460 251 
228 8 209 271 208 580 190 573 85 687 
229 5 513 174 63 103 592 
230 10 600 171 480 531 213 421 27 176 86 183 
231 8 379 466 690 16 252 601 446 135 
232 11 341 631 614 107 539 570 381 418 652 77 300 
233 11 579 451 330 150 576 55 56 12 153 628 536 
234 11 662 562 368 276 227 293 549 69 130 23 180 
235 10 563 420 516 550 633 42 585 689 128 250 
236 10 301 426 61 688 268 674 410 452 646 29 
237 11 529 96 140 155 179 36 50 663 416 72 134 
238 5 141 203 615 147 39 
239 11 83 487 75 137 391 608 94 43 515 641 97 
240 11 214 462 265 680 29 450 388 638 457 674 677 
241 8 71 197 294 616 684 202 499 668 
242 11 419 34 84 244 656 599 493 574 402 453 91 
243 11 188 618 41 374 281 283 564 392 73 306 382 
244 11 34 242 656 419 84 599 402 288 468 493 574 
245 11 483 299 494 125 626 165 7 121 185 588 479 
246 8 675 264 398 250 128 217 79 594 
247 11 588 254 7 199 251 311 602 460 44 586 518 
248 7 357 498 157 124 645 642 46 
249 10 560 343 322 651 14 484 672 78 120 679 
250 10 264 398 128 633 246 320 42 675 563 235 
251 11 254 460 311 7 247 199 588 626 23 227 494 
252 8 690 446 16 135 466 231 316 512 
253 10 359 389 664 378 572 132 620 60 126 111 
254 11 251 247 7 460 311 199 588 626 23 602 44 
255 9 98 142 390 684 475 667 82 320 366 
256 9 198 172 468 99 407 352 642 46 417 
257 5 360 396 605 490 70 
258 11 168 32 486 200 81 559 307 4 326 583 152 
259 11 488 405 371 219 15 67 329 455 411 192 687 
260 11 373 644 628 267 170 330 451 622 12 153 233 
261 10 173 456 297 300 678 539 332 341 631 77 
262 5 590 571 222 224 10 
263 11 272 53 617 561 354 364 380 86 183 194 337 
264 8 398 250 128 246 320 633 675 42 
265 10 680 450 29 674 240 452 214 268 296 388 
266 7 477 314 427 577 38 279 432 
267 11 628 260 373 451 330 644 150 233 579 12 170 
268 11 61 452 674 410 646 236 348 643 296 301 450 
269 7 304 159 545 221 568 362 57 
270 4 303 540 445 76 
271 11 208 517 580 85 573 209 228 144 569 164 436 
272 11 263 617 561 354 53 86 380 364 183 194 470 
273 10 443 13 210 546 291 40 665 503 138 624 
274 11 634 681 459 518 54 565 339 400 187 394 139 
275 11 649 423 92 375 519 89 385 532 435 315 290 
276 11 234 293 69 662 130 368 562 655 548 227 549 
277 3 182 207 37 
278 11 499 616 294 197 310 202 35 668 676 526 71 
279 7 577 266 629 477 38 314 432 
280 9 448 119 106 445 310 26 472 76 377 
281 10 73 306 382 618 41 243 386 683 188 462 
282 11 95 526 186 310 676 167 596 76 691 448 35 
283 11 564 392 41 374 243 515 94 188 528 189 618 
284 10 49 544 397 434 584 308 554 211 216 648 
285 11 424 421 537 27 566 176 213 480 531 20 600 
286 8 428 133 30 525 635 502 527 288 
287 11 367 612 408 217 295 594 298 8 492 15 675 
288 11 402 527 656 599 542 34 244 242 84 91 286 
289 10 474 553 427 432 38 314 302 618 477 188 
290 9 109 669 92 337 449 375 194 353 127 
291 9 503 273 443 546 13 210 548 138 665 
292 8 538 567 484 322 14 672 651 78 
293 10 549 276 368 130 234 180 562 662 69 23 
294 8 202 499 616 197 278 241 464 35 
295 11 408 612 367 287 8 15 363 376 482 298 217 
296 9 452 524 268 643 674 348 413 61 265 
297 11 173 261 539 604 631 456 107 300 341 19 652 
298 11 492 440 8 62 594 666 367 217 376 287 612 
299 11 245 483 494 125 626 165 121 7 185 479 588 
300 11 456 539 77 678 261 341 332 232 631 297 173 
301 10 426 236 677 688 61 29 674 268 78 450 
302 11 432 38 427 474 629 314 289 553 279 577 266 
303 6 76 167 270 445 186 540 
304 7 269 159 545 362 221 568 57 
305 11 575 598 671 181 530 489 93 151 387 689 585 
306 10 281 73 382 386 618 683 41 243 462 188 
307 6 4 154 592 258 349 559 
308 10 211 284 43 49 544 75 608 463 641 397 
309 10 11 609 422 547 345 469 6 670 365 160 
310 11 278 526 448 499 282 95 676 35 616 280 668 
311 11 251 460 254 199 247 23 7 227 588 562 368 
312 9 661 60 358 660 206 132 389 319 623 
313 7 533 204 520 632 17 589 117 
314 9 427 38 432 477 474 553 266 289 302 
315 11 435 385 353 449 375 88 127 551 336 423 669 
316 10 512 333 135 2 500 16 252 690 606 33 
317 9 80 587 650 82 366 48 414 111 319 
318 9 384 556 331 201 636 406 64 524 223 
319 11 111 132 389 48 660 60 366 358 661 312 253 
320 8 398 128 667 264 250 390 633 42 
321 11 100 482 51 143 363 87 122 158 376 8 295 
322 11 484 651 560 120 292 249 567 538 14 672 343 
323 11 625 412 536 45 150 123 56 161 458 393 233 
324 6 148 184 68 113 226 433 
325 10 117 589 523 429 17 430 597 632 505 520 
326 11 583 200 149 486 258 169 168 657 32 81 4 
327 7 163 623 206 557 342 57 362 
328 10 543 195 647 126 42 39 65 633 667 378 
329 11 455 411 67 192 447 351 371 79 15 488 259 
330 11 451 12 579 628 233 153 576 267 644 260 170 
331 9 114 223 654 636 318 630 25 90 406 
332 5 678 456 300 77 261 
333 10 2 316 512 606 500 33 112 135 16 105 
334 11 25 404 630 654 595 639 461 90 331 659 318 
335 7 615 530 93 226 184 148 147 
336 11 88 551 115 205 353 127 315 449 435 537 213 
337 9 194 109 183 364 380 290 86 53 532 
338 11 136 554 463 18 49 342 97 555 648 216 514 
339 11 400 634 187 274 565 394 517 139 436 681 54 
340 11 574 453 134 50 36 146 419 84 415 242 179 
341 11 232 631 539 107 614 300 570 77 652 456 381 
342 8 514 555 327 163 18 338 136 623 
343 8 249 14 78 672 560 457 677 322 
344 6 124 157 417 682 357 46 
345 8 469 422 609 11 309 365 547 6 
346 8 591 218 101 152 81 32 108 168 
347 7 534 637 511 52 658 619 166 
348 11 643 413 524 646 64 410 61 268 70 452 296 
349 4 471 559 152 32 
350 9 510 393 74 458 476 691 552 56 161 
351 11 79 411 675 192 455 329 447 67 563 246 250 
352 9 407 99 417 682 46 256 468 133 124 
353 10 449 127 435 315 551 88 669 336 115 385 
354 11 617 561 272 263 53 364 380 86 160 640 183 
355 11 495 66 640 59 118 561 470 670 6 441 547 
356 11 31 171 442 470 118 531 59 176 230 27 425 
357 7 157 248 124 344 498 46 642 
358 9 661 660 60 312 206 319 467 623 132 
359 8 664 572 620 378 253 39 126 195 
360 6 257 490 605 396 70 454 
361 8 104 478 90 461 114 595 145 630 
362 9 136 557 57 304 159 163 269 327 623 
363 11 482 321 143 376 122 100 295 8 51 408 612 
364 10 53 380 183 86 263 194 337 272 617 354 
365 5 345 469 422 11 609 
366 10 82 111 132 389 319 317 475 80 48 142 
367 11 287 612 408 295 8 217 298 594 492 62 440 
368 11 562 234 662 549 293 227 23 276 180 162 130 
369 11 607 112 500 33 196 105 40 601 496 16 13 
370 4 372 441 116 66 
371 11 488 259 67 405 329 447 455 192 411 687 219 
372 4 116 131 370 6 
373 11 260 267 628 644 451 170 330 622 663 12 150 
374 11 188 392 243 564 283 41 528 618 581 189 281 
375 11 385 92 423 435 315 275 669 290 353 449 109 
376 11 8 62 122 363 143 440 298 367 482 295 492 
377 7 26 399 106 540 535 444 445 
378 10 620 572 664 359 39 126 195 253 543 328 
379 8 231 466 601 690 16 252 135 446 
380 11 86 53 183 364 194 263 272 337 617 561 354 
381 11 153 652 107 418 12 576 232 570 631 622 19 
382 7 306 281 618 73 683 386 243 
383 11 123 161 458 45 412 409 175 625 323 509 156 
384 10 556 64 621 454 318 70 413 643 348 490 
385 11 375 435 315 423 92 353 449 275 669 88 127 
386 6 683 306 382 462 73 281 
387 11 181 489 686 28 433 225 653 139 575 113 37 
388 10 638 391 240 83 43 212 239 462 265 94 
389 10 132 111 319 60 660 253 48 366 661 312 
390 7 98 255 684 142 320 667 71 
391 11 94 239 83 388 515 638 487 43 75 137 608 
392 10 564 283 374 41 528 189 243 188 515 581 
393 11 510 350 56 625 458 55 74 161 45 323 552 
394 11 565 139 187 400 339 274 634 28 586 518 686 
395 6 496 196 665 601 40 210 
396 6 605 257 360 490 688 70 
397 9 434 544 284 603 211 584 49 216 648 
398 8 264 250 128 246 320 633 675 42 
399 7 377 26 540 106 535 270 445 
400 11 187 339 394 565 139 634 274 28 436 517 518 
401 8 497 555 514 18 216 648 584 603 
402 11 288 656 599 244 527 34 242 84 419 542 91 
403 10 521 619 3 506 52 679 511 534 347 120 
404 10 334 25 639 654 659 630 595 556 318 331 
405 9 259 488 371 219 687 15 67 190 329 
406 8 201 505 636 223 17 331 114 632 
407 10 99 352 468 256 198 682 417 172 46 133 
408 11 612 295 367 287 8 15 217 376 298 363 62 
409 9 431 45 123 383 412 161 323 536 72 
410 11 646 61 348 268 643 70 413 605 64 452 490 
411 11 192 455 329 67 447 351 79 371 15 488 259 
412 11 45 323 625 123 161 536 458 383 409 150 393 
413 10 643 348 64 524 646 410 70 61 384 454 
414 7 650 587 48 467 317 80 508 
415 11 146 613 177 453 438 574 179 36 340 519 134 
416 11 140 155 438 179 529 177 237 96 36 50 663 
417 8 682 352 124 344 46 133 407 99 
418 11 576 570 153 381 12 614 579 24 232 107 330 
419 11 84 242 34 244 656 599 493 574 453 91 340 
420 10 235 563 516 550 585 689 151 633 42 485 
421 10 285 27 480 424 213 537 176 600 531 566 
422 8 469 11 345 309 609 365 547 6 
423 11 375 385 275 92 435 315 649 353 290 669 449 
424 11 285 566 27 537 421 176 531 20 213 480 425 
425 11 20 566 176 424 531 27 285 537 442 421 171 
426 11 301 236 677 29 674 688 61 78 450 268 457 
427 9 314 38 432 474 553 289 477 266 302 
428 8 286 133 30 635 525 502 682 417 
429 8 523 597 325 117 430 589 17 211 
430 9 117 589 597 325 17 313 520 446 632 
431 11 409 72 412 536 50 45 323 663 96 134 150 
432 11 38 302 427 474 314 553 289 266 477 629 279 
433 11 387 37 489 68 653 113 225 686 181 324 148 
434 9 397 544 284 603 211 584 49 216 648 
435 11 315 385 375 353 449 127 669 423 88 92 551 
436 11 164 85 573 517 339 400 187 671 28 208 634 
437 11 9 156 491 645 509 465 175 673 178 642 220 
438 11 177 416 155 179 140 613 415 36 237 529 96 
439 8 190 219 405 259 100 482 87 15 
440 11 298 62 492 666 8 376 594 367 217 122 287 
441 6 66 370 59 495 355 118 
442 11 31 356 171 531 176 425 27 566 20 424 285 
443 8 273 210 13 291 665 546 40 503 
444 6 591 346 535 471 26 152 
445 7 76 540 270 303 106 167 186 
446 8 252 690 430 597 231 466 16 135 
447 10 192 67 411 329 455 371 351 79 488 563 
448 10 280 310 119 106 445 282 95 278 472 76 
449 10 353 127 435 315 669 551 88 115 213 290 
450 10 680 265 29 674 240 452 268 214 426 301 
451 11 330 233 628 579 267 150 12 260 576 153 536 
452 11 268 674 61 296 450 646 410 680 265 348 236 
453 11 574 340 146 84 419 134 493 415 242 34 50 
454 11 70 490 64 360 384 257 605 621 413 556 646 
455 11 329 411 192 67 447 351 79 371 15 488 259 
456 11 300 678 261 332 539 77 341 173 297 631 232 
457 8 677 214 29 343 426 462 386 683 
458 11 161 123 383 45 393 412 510 625 350 323 175 
459 11 681 54 274 518 479 634 602 121 565 569 339 
460 11 251 311 254 7 247 199 227 588 23 626 562 
461 10 90 595 361 630 104 654 478 25 114 331 
462 10 240 214 386 683 73 306 457 281 388 29 
463 10 641 97 554 136 338 608 49 137 75 487 
464 8 35 202 191 58 676 294 499 220 
465 10 673 58 9 220 178 491 191 645 437 509 
466 9 231 16 379 690 135 601 252 512 446 
467 10 508 414 48 660 358 568 578 57 206 650 
468 9 99 198 256 407 172 352 244 34 242 
469 7 422 345 11 609 309 365 547 
470 11 118 59 356 355 561 171 230 66 495 31 272 
471 7 559 152 349 32 81 168 591 
472 7 668 71 197 616 448 119 278 
473 8 63 522 481 507 504 513 103 174 
474 9 289 553 427 432 38 314 302 477 266 
475 9 366 98 82 255 126 142 667 647 253 
476 9 691 596 350 178 510 220 74 509 491 
477 7 266 314 427 38 577 279 432 
478 7 104 361 90 461 145 114 204 
479 11 121 185 54 165 459 681 569 518 274 125 144 
480 10 213 600 421 285 27 424 230 537 127 176 
481 5 522 507 473 63 504 
482 11 363 321 100 143 51 376 122 295 87 408 612 
483 11 245 299 494 626 125 165 7 121 185 588 254 
484 10 322 651 120 292 560 567 249 538 14 672 
485 11 65 585 147 93 151 203 598 530 615 335 420 
486 11 168 32 81 200 169 657 101 152 258 326 218 
487 10 137 608 75 641 239 83 97 463 43 515 
488 11 259 371 405 67 219 329 687 455 15 411 447 
489 11 181 387 433 113 305 575 148 184 28 530 68 
490 9 360 70 257 605 454 396 64 410 646 
491 9 509 175 9 437 178 465 156 220 58 
492 11 298 440 666 594 62 8 217 367 376 287 612 
493 11 91 84 599 419 89 242 34 453 574 656 146 
494 11 299 483 245 626 125 7 165 121 588 247 254 
495 11 355 66 640 59 118 6 670 561 441 470 547 
496 8 196 395 601 607 40 665 210 369 
497 6 401 603 584 216 648 18 
498 6 248 645 673 357 9 157 
499 11 278 616 294 202 197 35 310 464 668 676 71 
500 11 2 512 33 112 333 135 316 16 606 369 105 
501 8 103 593 102 592 229 154 513 63 
502 6 635 525 30 286 428 133 
503 10 291 548 273 546 443 138 13 130 69 210 
504 6 102 593 522 63 103 473 
505 9 406 201 636 223 17 632 589 520 325 
506 11 3 679 619 52 403 521 534 120 560 658 249 
507 4 481 522 473 63 
508 10 467 568 578 57 557 611 545 221 159 206 
509 9 175 491 156 437 9 178 458 350 476 
510 9 350 393 458 74 56 552 476 625 161 
511 7 534 637 347 619 403 52 521 
512 11 135 316 500 333 16 2 33 690 252 112 606 
513 5 229 174 63 103 473 
514 8 555 18 342 401 648 216 584 497 
515 9 94 239 137 487 283 391 564 392 83 
516 10 550 235 420 563 633 42 128 585 250 689 
517 11 85 573 436 339 634 164 208 400 580 271 187 
518 11 602 274 459 681 44 565 54 586 634 394 187 
519 11 613 649 275 415 89 146 177 423 493 91 92 
520 9 632 17 589 204 313 533 145 117 430 
521 10 403 3 619 506 52 679 511 534 120 347 
522 6 481 473 63 507 504 102 
523 8 429 325 597 117 430 589 212 17 
524 8 643 348 413 296 64 646 201 410 
525 7 30 502 635 286 428 160 133 
526 11 676 35 95 282 596 310 278 464 499 220 476 
527 11 288 542 402 286 656 599 428 34 244 30 133 
528 11 581 189 10 374 215 392 224 564 283 590 611 
529 11 237 96 140 155 179 36 50 663 416 72 134 
530 11 93 598 335 305 113 151 485 615 184 226 489 
531 11 176 27 171 424 566 421 285 425 480 230 537 
532 10 89 91 649 109 92 337 290 493 542 275 
533 7 313 204 520 632 145 17 589 
534 7 347 511 637 52 619 403 679 
535 7 377 349 26 174 399 444 471 
536 11 150 323 625 412 45 233 56 451 431 123 72 
537 11 285 424 421 566 27 205 213 115 20 480 176 
538 7 292 14 672 78 567 484 688 
539 11 341 631 232 300 297 456 107 173 261 77 614 
540 6 270 445 399 26 106 377 
541 11 129 558 22 162 225 653 686 586 44 180 37 
542 10 527 288 364 337 402 532 599 194 656 53 
543 11 195 39 328 65 126 203 147 378 647 620 572 
544 9 397 434 284 211 603 584 49 308 216 
545 10 221 159 568 269 304 611 578 57 508 189 
546 10 13 273 138 624 443 291 210 40 503 665 
547 11 6 670 309 609 11 422 345 469 640 160 131 
548 10 655 69 503 130 291 138 546 276 273 624 
549 11 180 293 368 23 162 562 22 129 207 234 662 
550 10 516 235 420 563 633 42 128 585 250 328 
551 11 336 88 115 205 353 127 449 315 435 213 537 
552 11 74 685 24 55 393 691 56 350 510 570 418 
553 9 474 289 427 314 38 432 302 477 266 
554 11 49 338 463 18 136 216 648 584 555 97 284 
555 9 514 18 648 216 401 342 584 497 338 
556 9 621 384 318 454 64 404 70 413 490 
557 8 57 623 163 327 362 206 159 568 
558 11 541 129 586 44 162 22 225 199 686 653 602 
559 7 471 152 349 32 168 81 258 
560 11 249 322 651 484 343 120 14 506 679 672 3 
561 11 272 617 354 263 53 86 380 364 640 355 470 
562 11 368 662 234 227 23 293 549 276 180 162 311 
563 10 235 420 516 550 633 42 79 250 689 128 
564 10 283 392 374 41 243 188 515 528 189 94 
565 11 394 139 187 400 274 339 634 518 586 44 602 
566 11 424 285 27 20 176 425 537 531 421 213 480 
567 7 292 484 538 322 651 120 14 
568 10 545 221 159 578 508 57 269 611 304 557 
569 11 144 54 479 185 681 459 121 271 274 634 517 
570 11 614 418 232 24 341 576 381 153 107 631 12 
571 8 590 224 222 10 215 262 611 578 
572 10 620 378 664 359 39 126 253 195 543 203 
573 11 85 164 208 580 517 436 271 339 687 634 671 
574 11 453 340 84 419 146 134 242 493 415 34 50 
575 11 305 671 181 489 598 28 387 530 151 93 436 
576 11 153 418 12 579 330 381 233 570 24 55 451 
577 7 279 266 477 38 314 629 432 
578 10 611 215 221 568 10 545 508 224 571 189 
579 11 233 576 330 451 12 153 55 418 56 628 150 
580 11 208 573 85 164 687 517 271 436 209 228 671 
581 11 528 189 10 215 224 590 571 611 374 392 262 
582 8 627 193 610 21 594 666 492 108 
583 11 326 149 200 258 486 168 169 657 32 4 81 
584 10 216 648 18 603 401 49 497 555 514 554 
585 10 689 151 420 485 598 93 235 516 550 563 
586 11 44 558 602 518 565 394 541 139 199 129 274 
587 5 650 80 317 414 48 
588 11 247 602 44 7 199 254 518 586 165 251 459 
589 11 117 17 632 520 325 430 313 204 533 505 597 
590 8 571 224 222 10 262 215 611 581 
591 7 346 218 101 152 81 444 471 
592 5 154 307 4 229 513 
593 4 102 504 103 63 
594 11 217 492 298 367 440 287 666 8 62 612 408 
595 11 630 461 90 654 25 334 361 104 331 478 114 
596 10 476 676 178 220 526 35 691 95 58 282 
597 8 429 430 523 325 117 589 446 17 
598 10 93 530 151 305 585 689 575 485 335 489 
599 11 656 34 242 84 419 91 402 244 493 288 527 
600 10 480 213 230 421 27 285 127 424 531 176 
601 9 496 196 466 379 395 231 607 369 16 
602 11 44 518 586 588 459 681 274 565 247 394 558 
603 8 497 584 216 401 648 18 434 397 
604 11 19 652 47 107 297 631 173 539 381 341 232 
605 8 396 257 360 490 70 410 646 688 
606 11 2 33 333 112 500 105 512 316 135 369 16 
607 11 369 196 40 496 13 601 665 210 546 105 395 
608 10 75 641 487 137 83 97 239 463 43 136 
609 10 11 309 422 345 469 547 6 670 365 160 
610 7 108 193 627 21 582 346 5 
611 11 578 215 221 10 545 568 189 224 508 571 590 
612 11 408 295 367 287 8 15 217 376 298 363 62 
613 11 415 177 146 519 438 179 416 155 453 36 140 
614 11 570 232 341 418 631 77 24 107 381 539 576 
615 9 335 141 147 203 238 65 93 485 530 
616 10 197 499 278 294 71 202 668 241 310 35 
617 11 354 272 561 263 53 364 380 86 183 160 640 
618 10 243 188 281 382 41 306 73 374 289 283 
619 10 403 52 3 521 506 679 534 511 347 637 
620 10 572 378 664 359 39 126 195 253 543 203 
621 7 556 384 454 64 70 318 490 
622 11 170 644 47 381 652 12 19 153 260 330 628 
623 7 163 327 206 557 57 342 362 
624 11 138 546 13 273 40 105 503 291 443 210 607 
625 11 323 412 45 536 56 393 123 458 161 150 55 
626 11 494 483 245 299 7 125 254 251 247 460 165 
627 6 193 582 610 21 594 108 
628 11 267 260 330 451 644 373 12 233 579 170 622 
629 6 302 279 432 38 577 427 
630 11 595 654 25 461 90 334 331 361 404 104 114 
631 11 341 107 232 539 652 381 614 604 297 19 570 
632 10 520 17 589 204 117 313 145 533 223 505 
633 11 42 128 516 550 250 235 563 647 264 398 420 
634 11 274 339 400 187 565 681 54 394 459 517 518 
635 6 502 525 30 286 428 133 
636 9 406 201 223 505 331 114 17 632 145 
637 4 347 534 511 52 
638 10 388 212 43 391 83 240 239 265 75 680 
639 10 659 404 334 110 25 630 654 595 556 621 
640 11 495 355 670 6 547 66 160 561 354 59 309 
641 9 608 137 75 97 463 487 83 136 239 
642 11 46 124 172 256 352 198 407 417 682 248 357 
643 11 348 413 524 646 64 410 61 268 70 296 452 
644 11 260 170 622 628 373 330 267 12 451 153 47 
645 9 673 498 9 465 437 191 248 58 156 
646 11 410 61 348 643 268 413 70 64 605 452 490 
647 10 328 667 42 633 126 195 543 128 475 320 
648 10 216 18 584 555 401 514 49 497 554 603 
649 11 89 275 92 519 532 423 91 375 493 385 109 
650 5 587 414 80 317 48 
651 11 322 484 120 560 249 292 567 538 14 506 3 
652 11 107 19 381 47 604 631 232 622 341 153 170 
653 11 225 22 37 686 433 541 129 387 207 558 68 
654 11 630 25 595 331 334 461 90 404 114 361 318 
655 11 69 548 130 276 503 138 291 293 234 546 624 
656 11 34 599 244 242 402 84 419 288 91 493 527 
657 11 169 200 486 5 101 81 168 218 32 326 149 
658 4 166 679 52 347 
659 9 639 110 404 334 25 556 621 630 654 
660 11 358 60 661 319 312 48 111 132 389 206 467 
661 9 312 358 60 660 206 319 132 389 111 
662 11 234 562 227 368 276 293 549 23 69 130 180 
663 11 72 96 529 237 140 155 179 36 50 416 431 
664 8 359 572 620 378 253 39 126 195 
665 9 210 40 443 273 13 196 496 395 546 
666 11 440 492 298 62 8 594 21 376 217 367 122 
667 9 647 320 42 128 633 98 255 328 475 
668 10 472 197 71 616 278 499 294 241 684 310 
669 9 290 109 449 127 353 435 375 92 315 
670 11 547 6 309 640 160 609 11 422 345 469 495 
671 11 575 305 164 436 181 28 598 573 687 85 489 
672 9 78 14 343 538 292 249 688 426 677 
673 10 645 465 9 191 58 437 498 220 491 178 
674 11 452 450 268 680 265 29 61 236 301 426 296 
675 11 79 351 246 217 287 250 264 398 594 411 455 
676 11 526 35 596 464 95 282 310 278 220 499 178 
677 10 457 214 426 29 301 78 343 672 236 14 
678 8 332 456 300 261 77 539 173 297 
679 11 52 506 3 619 403 521 658 534 166 347 560 
680 10 265 450 29 674 240 452 214 268 426 301 
681 11 459 54 274 518 634 479 602 339 565 569 121 
682 8 417 352 344 124 133 46 407 99 
683 6 386 382 306 462 73 281 
684 8 142 71 390 255 98 241 197 668 
685 11 74 552 691 186 24 167 350 476 510 55 393 
686 11 225 387 653 28 139 541 433 181 394 558 22 
687 11 371 580 488 164 208 405 259 573 85 671 67 
688 7 396 236 301 605 538 426 78 
689 10 151 585 420 598 235 563 485 93 516 550 
690 9 252 446 16 466 135 231 512 379 316 
691 9 476 685 74 350 552 596 510 186 95 
DEPOT_SECTION
   1
   -1
EOF
