NAME :  X-n957-kX-w191-c7.cctp
COMMENT : 	Adapted by Maziero, Usberti and Cavellucci from the Uchoa, Pecin, Pessoa, Poggi, Subramanian, and Vidal (2013)
TYPE :  CCTP
DIMENSION :    697
EDGE_WEIGHT_TYPE : 	EUC_2D	
CAPACITY : 	11
VERTICES_WITHIN_COVERAGE :  7
VERTICES_WITH_DEMAND : 	191
NODE_COORD_SECTION
1 737 450
2 235 789
3 340 234
4 346 320
5 406 309
6 556 636
7 872 923
8 937 83
9 9 321
10 558 18
11 63 833
12 250 509
13 143 192
14 624 286
15 364 117
16 332 953
17 235 142
18 590 430
19 303 692
20 936 665
21 39 410
22 247 581
23 986 739
24 11 283
25 138 747
26 837 511
27 596 206
28 218 339
29 443 922
30 555 133
31 896 306
32 415 752
33 691 216
34 51 0
35 726 19
36 166 333
37 951 932
38 928 807
39 505 590
40 236 284
41 115 882
42 238 887
43 729 26
44 94 697
45 409 899
46 993 715
47 473 607
48 414 55
49 884 327
50 651 407
51 891 372
52 570 733
53 919 529
54 629 220
55 711 630
56 141 492
57 720 382
58 794 51
59 745 451
60 409 990
61 825 781
62 966 938
63 378 175
64 859 269
65 596 131
66 419 557
67 77 908
68 679 268
69 726 860
70 382 728
71 885 15
72 258 313
73 734 905
74 533 912
75 924 636
76 694 621
77 469 223
78 507 707
79 892 168
80 281 800
81 607 285
82 388 354
83 568 781
84 22 348
85 153 579
86 218 236
87 308 904
88 119 154
89 939 105
90 489 374
91 547 736
92 480 1000
93 124 883
94 647 930
95 295 741
96 213 53
97 701 446
98 589 708
99 644 147
100 133 377
101 983 343
102 169 651
103 262 450
104 255 422
105 115 640
106 693 344
107 896 910
108 298 531
109 573 416
110 416 512
111 870 50
112 185 436
113 656 268
114 53 522
115 587 165
116 542 762
117 995 809
118 266 878
119 27 812
120 196 522
121 45 164
122 174 729
123 252 311
124 681 621
125 594 478
126 848 361
127 897 253
128 729 354
129 255 410
130 811 703
131 677 991
132 781 909
133 971 632
134 540 824
135 887 144
136 475 860
137 509 336
138 967 433
139 897 98
140 157 676
141 971 727
142 972 381
143 658 504
144 375 214
145 280 526
146 895 158
147 196 779
148 379 223
149 692 470
150 22 395
151 119 604
152 622 843
153 289 811
154 98 365
155 111 426
156 261 101
157 483 818
158 820 480
159 433 961
160 656 421
161 511 273
162 334 794
163 426 686
164 870 112
165 941 978
166 744 498
167 7 346
168 168 877
169 166 244
170 604 430
171 176 452
172 522 306
173 912 406
174 423 564
175 505 779
176 101 383
177 729 307
178 162 515
179 647 869
180 784 983
181 496 811
182 736 39
183 833 529
184 646 367
185 922 294
186 513 535
187 373 331
188 471 694
189 39 149
190 813 538
191 153 115
192 244 505
193 716 286
194 409 228
195 140 484
196 652 239
197 141 628
198 30 924
199 877 307
200 586 723
201 856 584
202 641 671
203 648 704
204 19 309
205 661 125
206 614 194
207 253 864
208 187 687
209 5 289
210 419 839
211 519 347
212 666 486
213 562 646
214 516 725
215 75 785
216 309 966
217 743 856
218 121 698
219 70 635
220 824 834
221 650 350
222 742 277
223 977 647
224 268 698
225 973 145
226 569 655
227 765 22
228 427 869
229 11 869
230 377 793
231 102 444
232 979 386
233 69 483
234 294 395
235 424 536
236 37 705
237 126 782
238 490 30
239 348 771
240 808 469
241 107 512
242 782 207
243 161 793
244 859 469
245 148 763
246 403 723
247 978 760
248 214 132
249 467 387
250 853 27
251 855 506
252 591 902
253 213 742
254 203 364
255 183 3
256 143 608
257 649 492
258 904 31
259 997 741
260 527 299
261 26 402
262 543 506
263 902 548
264 47 419
265 125 226
266 811 668
267 643 265
268 189 736
269 79 287
270 412 843
271 924 756
272 474 356
273 533 721
274 445 101
275 579 994
276 652 658
277 633 914
278 889 206
279 464 243
280 680 735
281 420 998
282 798 490
283 75 518
284 27 680
285 181 428
286 367 977
287 777 679
288 856 6
289 777 984
290 171 874
291 909 569
292 730 509
293 59 533
294 455 853
295 612 163
296 959 409
297 987 154
298 883 195
299 207 6
300 39 831
301 227 416
302 657 701
303 703 976
304 260 286
305 6 135
306 821 740
307 491 397
308 140 716
309 6 773
310 666 487
311 529 74
312 860 929
313 384 223
314 524 854
315 102 833
316 653 843
317 260 234
318 864 478
319 425 897
320 482 914
321 497 805
322 646 13
323 670 113
324 722 56
325 611 456
326 832 655
327 275 331
328 851 924
329 746 341
330 811 324
331 950 762
332 697 467
333 368 215
334 458 65
335 174 245
336 277 138
337 624 145
338 80 463
339 696 41
340 934 241
341 839 676
342 717 623
343 752 11
344 732 768
345 5 440
346 556 154
347 137 547
348 178 892
349 363 804
350 855 769
351 269 726
352 415 353
353 961 560
354 432 998
355 655 357
356 903 500
357 446 77
358 710 425
359 883 381
360 776 9
361 119 538
362 267 810
363 924 550
364 207 306
365 734 468
366 654 618
367 102 700
368 196 533
369 978 464
370 987 161
371 342 874
372 501 638
373 105 260
374 557 72
375 246 754
376 577 758
377 200 110
378 107 621
379 501 789
380 581 925
381 672 281
382 333 221
383 366 691
384 871 557
385 759 559
386 384 926
387 512 969
388 29 740
389 361 929
390 874 282
391 769 858
392 878 141
393 820 64
394 429 224
395 611 820
396 26 93
397 268 308
398 426 545
399 28 441
400 669 276
401 519 784
402 445 780
403 762 46
404 935 724
405 937 750
406 390 916
407 934 288
408 435 47
409 990 14
410 830 399
411 490 787
412 564 416
413 748 774
414 566 767
415 873 118
416 626 559
417 833 478
418 82 836
419 311 362
420 718 313
421 975 337
422 148 207
423 986 476
424 769 67
425 114 335
426 28 562
427 59 461
428 12 780
429 154 192
430 27 360
431 787 422
432 206 469
433 774 765
434 521 751
435 52 528
436 304 554
437 502 257
438 131 279
439 960 233
440 408 79
441 917 541
442 282 530
443 506 298
444 295 775
445 179 898
446 196 516
447 754 367
448 53 627
449 252 558
450 122 892
451 657 277
452 267 505
453 234 594
454 512 375
455 239 454
456 505 354
457 707 336
458 273 546
459 527 276
460 322 525
461 91 411
462 85 871
463 688 231
464 172 870
465 584 428
466 476 354
467 473 213
468 422 21
469 218 531
470 330 99
471 608 516
472 408 228
473 241 919
474 80 811
475 513 278
476 429 712
477 330 226
478 247 375
479 619 32
480 671 277
481 403 542
482 521 294
483 473 216
484 183 428
485 568 173
486 529 560
487 532 163
488 760 446
489 240 624
490 719 272
491 493 338
492 513 305
493 58 940
494 569 412
495 618 412
496 416 250
497 788 91
498 231 504
499 93 683
500 648 191
501 155 877
502 692 379
503 291 501
504 65 935
505 308 1000
506 655 499
507 750 582
508 488 236
509 566 428
510 177 583
511 246 760
512 233 820
513 450 497
514 98 932
515 164 880
516 378 219
517 381 89
518 355 930
519 458 212
520 228 583
521 516 526
522 250 804
523 209 808
524 275 671
525 170 388
526 514 280
527 692 415
528 405 186
529 494 319
530 527 341
531 514 583
532 625 472
533 280 735
534 74 556
535 644 366
536 125 280
537 491 334
538 728 321
539 163 510
540 325 804
541 634 395
542 497 506
543 354 927
544 264 442
545 113 287
546 93 921
547 501 576
548 670 319
549 500 304
550 479 583
551 74 907
552 88 945
553 540 167
554 619 292
555 678 278
556 410 380
557 447 579
558 214 521
559 596 421
560 711 456
561 333 359
562 668 356
563 225 531
564 320 932
565 566 207
566 238 331
567 544 305
568 316 530
569 666 352
570 671 214
571 508 266
572 389 596
573 408 282
574 186 797
575 407 355
576 184 615
577 226 880
578 252 556
579 192 502
580 123 748
581 405 524
582 604 519
583 578 394
584 290 691
585 16 824
586 664 191
587 482 371
588 478 725
589 115 585
590 630 209
591 499 288
592 670 494
593 270 798
594 212 485
595 84 435
596 608 283
597 613 272
598 275 474
599 549 526
600 229 882
601 253 521
602 63 939
603 622 245
604 656 232
605 253 812
606 454 558
607 176 526
608 397 522
609 660 200
610 574 213
611 319 535
612 688 407
613 475 401
614 131 896
615 606 292
616 623 382
617 178 795
618 321 965
619 437 899
620 643 266
621 592 292
622 398 315
623 356 814
624 333 236
625 460 532
626 267 520
627 618 473
628 237 292
629 564 407
630 0 879
631 568 415
632 520 320
633 299 943
634 642 304
635 410 533
636 699 373
637 320 373
638 266 512
639 661 386
640 504 387
641 329 539
642 583 527
643 198 544
644 599 274
645 554 410
646 649 140
647 715 73
648 664 345
649 182 583
650 70 547
651 751 545
652 325 263
653 587 472
654 331 307
655 656 400
656 260 910
657 632 287
658 292 527
659 473 358
660 323 246
661 683 364
662 289 536
663 183 553
664 514 281
665 293 971
666 171 190
667 244 521
668 340 856
669 516 521
670 596 289
671 391 390
672 602 631
673 448 189
674 530 131
675 242 924
676 658 496
677 452 224
678 401 652
679 254 592
680 477 236
681 150 541
682 224 670
683 125 870
684 649 282
685 594 407
686 501 372
687 634 289
688 608 220
689 618 428
690 532 276
691 47 856
692 708 471
693 448 523
694 616 295
695 249 810
696 299 505
697 347 720
DEMAND_SECTION
2 1
3 1
4 1
5 1
6 1
7 1
8 1
9 1
10 1
11 1
12 1
13 1
14 1
15 1
16 1
17 1
18 1
19 1
20 1
21 1
22 1
23 1
24 1
25 1
26 1
27 1
28 1
29 1
30 1
31 1
32 1
33 1
34 1
35 1
36 1
37 1
38 1
39 1
40 1
41 1
42 1
43 1
44 1
45 1
46 1
47 1
48 1
49 1
50 1
51 1
52 1
53 1
54 1
55 1
56 1
57 1
58 1
59 1
60 1
61 1
62 1
63 1
64 1
65 1
66 1
67 1
68 1
69 1
70 1
71 1
72 1
73 1
74 1
75 1
76 1
77 1
78 1
79 1
80 1
81 1
82 1
83 1
84 1
85 1
86 1
87 1
88 1
89 1
90 1
91 1
92 1
93 1
94 1
95 1
96 1
97 1
98 1
99 1
100 1
101 1
102 1
103 1
104 1
105 1
106 1
107 1
108 1
109 1
110 1
111 1
112 1
113 1
114 1
115 1
116 1
117 1
118 1
119 1
120 1
121 1
122 1
123 1
124 1
125 1
126 1
127 1
128 1
129 1
130 1
131 1
132 1
133 1
134 1
135 1
136 1
137 1
138 1
139 1
140 1
141 1
142 1
143 1
144 1
145 1
146 1
147 1
148 1
149 1
150 1
151 1
152 1
153 1
154 1
155 1
156 1
157 1
158 1
159 1
160 1
161 1
162 1
163 1
164 1
165 1
166 1
167 1
168 1
169 1
170 1
171 1
172 1
173 1
174 1
175 1
176 1
177 1
178 1
179 1
180 1
181 1
182 1
183 1
184 1
185 1
186 1
187 1
188 1
189 1
190 1
191 1
192 1
COVERAGE_SECTION
2 7 522 695 605 511 512 523 593 
3 7 624 477 382 660 652 333 144 
4 6 654 187 561 622 82 419 
5 6 622 573 187 352 575 82 
6 7 213 226 672 372 531 39 98 
7 7 312 328 107 37 165 132 62 
8 7 89 139 258 225 164 415 111 
9 7 204 167 84 209 24 430 150 
10 5 374 311 479 238 322 
11 6 418 300 474 691 315 119 
12 7 192 601 667 638 452 498 626 
13 7 429 422 666 265 88 169 335 
14 7 554 657 687 694 596 81 597 
15 7 517 470 440 63 48 528 274 
16 7 618 564 216 518 543 633 389 
17 6 248 336 377 156 666 191 
18 7 465 559 170 109 685 509 631 
19 6 584 524 224 351 533 95 
20 7 75 223 133 404 141 46 405 
21 7 264 261 150 399 345 430 595 
22 5 679 453 520 449 578 
23 7 259 141 247 46 331 405 404 
24 7 209 204 9 167 84 269 430 
25 6 580 245 308 237 122 243 
26 7 183 251 417 158 190 318 282 
27 5 688 206 610 565 590 
28 7 566 254 364 123 478 72 628 
29 7 619 319 159 320 45 406 228 
30 7 346 674 553 487 65 485 115 
31 7 199 49 185 390 407 64 127 
32 7 246 70 402 476 230 163 588 
33 7 463 570 609 586 604 196 500 
34 7 396 255 305 189 191 299 121 
35 7 43 182 343 324 339 227 403 
36 7 254 364 28 425 100 525 438 
37 7 62 165 107 7 312 328 38 
38 7 331 271 405 117 247 350 404 
39 7 531 547 550 47 486 372 186 
40 7 628 304 123 72 364 397 566 
41 5 93 450 683 614 462 
42 6 600 577 207 118 473 656 
43 7 35 182 343 324 227 339 403 
44 7 367 499 218 308 236 580 105 
45 7 319 406 619 228 386 29 270 
46 7 23 141 259 247 404 331 405 
47 7 550 39 557 372 547 531 606 
48 7 408 440 468 357 334 517 274 
49 7 199 31 51 390 126 185 359 
50 6 655 160 541 639 495 612 
51 7 359 173 126 49 31 199 410 
52 7 200 91 376 98 414 273 116 
53 7 441 363 263 356 291 353 384 
54 7 590 688 603 196 206 604 500 
55 7 342 76 124 366 507 276 202 
56 7 195 539 178 241 607 681 361 
57 7 636 502 128 447 612 661 527 
58 7 393 424 403 497 227 360 343 
59 7 488 365 560 692 97 358 166 
60 7 281 354 159 286 386 92 29 
61 7 350 306 220 433 413 130 344 
62 7 37 165 107 7 312 328 117 
63 7 528 144 333 516 148 313 15 
64 7 390 127 199 31 49 185 278 
65 7 337 115 295 30 346 485 99 
66 7 174 398 235 481 635 606 557 
67 7 551 546 504 514 602 493 462 
68 7 555 480 400 381 113 451 684 
69 7 217 391 73 132 316 179 413 
70 7 246 697 383 32 476 239 163 
71 7 258 288 250 111 393 139 8 
72 7 123 397 327 304 566 628 40 
73 7 69 132 217 391 303 289 94 
74 7 380 320 252 314 387 136 134 
75 7 20 133 223 291 353 201 363 
76 7 124 55 342 366 276 507 202 
77 7 483 467 680 519 677 279 508 
78 7 214 273 588 188 434 91 116 
79 7 146 135 298 392 278 415 164 
80 7 593 153 362 444 605 522 695 
81 7 596 615 670 694 554 597 644 
82 6 575 187 352 556 671 622 
83 7 414 376 116 52 401 91 134 
84 7 430 167 9 204 150 261 209 
85 7 510 649 256 347 589 681 663 
86 7 317 335 40 169 628 304 666 
87 7 564 633 371 656 118 543 518 
88 7 13 191 429 422 666 265 121 
89 7 8 139 225 135 415 146 164 
90 7 587 686 640 272 307 454 659 
91 7 273 52 116 434 214 414 376 
92 7 387 354 281 159 60 29 320 
93 4 41 450 683 614 
94 7 277 179 252 380 131 303 316 
95 7 533 351 444 19 584 224 375 
96 7 299 255 377 156 248 191 17 
97 7 560 332 358 149 692 527 365 
98 7 200 52 91 376 226 273 203 
99 7 646 337 205 295 323 500 586 
100 7 176 154 525 425 155 461 36 
101 7 421 142 232 296 407 185 138 
102 6 140 197 576 208 256 105 
103 6 544 455 598 104 129 301 
104 7 129 544 103 301 455 234 478 
105 7 378 197 151 256 219 499 102 
106 7 457 661 562 569 648 636 548 
107 7 7 312 328 37 62 165 220 
108 7 658 662 442 568 145 611 436 
109 7 631 494 412 629 509 465 645 
110 7 581 608 635 235 481 398 693 
111 7 250 71 258 288 393 139 164 
112 7 484 285 171 432 301 525 594 
113 6 451 267 620 400 684 480 
114 7 435 293 283 650 534 233 426 
115 7 485 295 346 65 206 27 337 
116 7 434 414 91 83 401 376 52 
117 7 247 331 38 259 23 405 141 
118 5 207 42 656 600 577 
119 7 585 300 428 11 309 691 474 
120 7 446 368 558 579 607 643 469 
121 7 189 305 396 88 265 13 422 
122 7 268 308 25 253 245 208 580 
123 7 72 397 566 628 304 327 40 
124 6 76 366 55 342 276 202 
125 7 653 627 325 532 471 582 18 
126 7 359 410 51 49 330 199 31 
127 7 390 340 64 185 278 407 31 
128 7 329 447 457 57 538 636 106 
129 7 104 301 544 478 103 234 455 
130 7 266 306 341 287 326 433 61 
131 7 303 94 277 275 289 73 180 
132 7 73 391 217 328 69 180 289 
133 7 223 75 20 353 46 291 141 
134 7 314 401 181 321 83 379 157 
135 7 392 146 79 415 164 139 298 
136 7 294 157 228 314 181 320 619 
137 7 211 491 456 537 530 632 529 
138 7 296 369 423 232 142 173 101 
139 7 164 415 8 89 135 392 111 
140 7 102 208 218 308 197 105 122 
141 7 23 46 259 247 404 331 405 
142 7 232 296 101 421 138 173 51 
143 6 506 676 257 592 310 212 
144 7 516 333 148 313 472 194 63 
145 7 442 658 662 626 108 638 458 
146 7 79 135 392 298 415 278 164 
147 7 574 617 523 243 2 253 268 
148 7 516 313 144 333 472 194 3 
149 7 332 692 560 97 212 310 592 
150 7 261 21 264 430 399 84 345 
151 7 589 378 256 197 105 85 219 
152 7 395 316 179 252 277 83 134 
153 7 80 362 593 444 605 540 522 
154 7 176 425 100 461 155 430 595 
155 7 231 461 595 176 338 100 154 
156 7 336 17 248 377 96 470 15 
157 7 181 321 411 379 136 175 294 
158 7 417 240 282 26 244 251 318 
159 7 354 60 281 29 386 92 406 
160 7 50 655 541 612 639 527 495 
161 7 475 526 571 664 459 437 591 
162 7 540 239 623 349 230 444 153 
163 6 476 678 246 188 383 70 
164 7 415 139 392 135 146 79 111 
165 7 37 62 107 7 312 328 180 
166 7 292 365 692 59 651 560 488 
167 7 84 430 9 204 150 209 261 
168 5 290 515 464 501 348 
169 7 335 422 265 438 86 429 666 
170 7 559 18 689 465 495 685 325 
171 7 112 285 484 432 195 594 579 
172 7 260 492 482 632 443 549 567 
173 7 359 51 296 138 142 232 126 
174 7 66 398 235 557 481 606 635 
175 7 379 401 411 321 434 181 116 
176 7 154 461 100 155 425 595 231 
177 7 420 538 193 222 457 490 329 
178 7 539 607 681 56 579 446 120 
179 7 316 152 277 94 395 252 69 
180 7 289 132 303 328 73 312 7 
181 7 321 157 379 411 175 401 134 
182 7 43 35 324 403 343 227 339 
183 7 26 190 251 384 158 417 282 
184 7 535 355 221 639 562 569 616 
185 7 407 31 199 127 390 49 340 
186 7 521 669 486 542 599 262 547 
187 7 82 4 622 5 575 352 654 
188 7 588 78 163 476 214 372 273 
189 7 121 305 396 88 13 265 191 
190 7 183 26 282 251 158 385 384 
191 7 377 88 248 429 666 13 17 
192 7 12 498 667 601 452 638 626 
193 7 490 177 420 222 538 555 68 
194 7 472 394 496 313 148 516 144 
195 7 56 539 178 241 171 231 579 
196 7 604 267 620 113 54 570 603 
197 7 256 105 151 378 102 576 85 
198 6 493 602 504 551 67 630 
199 7 31 49 390 64 185 127 407 
200 7 98 52 376 91 414 273 116 
201 7 384 291 263 183 190 26 326 
202 7 276 203 302 366 672 98 124 
203 7 302 202 280 276 98 200 52 
204 7 9 209 24 84 167 430 269 
205 6 323 646 99 337 295 65 
206 7 27 590 688 54 295 500 115 
207 4 118 42 600 577 
208 6 140 102 682 122 268 308 
209 7 24 204 9 167 84 269 430 
210 7 270 228 294 319 136 45 230 
211 6 530 137 456 632 491 454 
212 6 310 592 676 506 257 143 
213 7 226 6 672 372 98 531 39 
214 7 273 78 434 91 588 116 52 
215 5 474 11 237 418 119 
216 6 618 665 633 16 505 564 
217 7 69 391 73 132 413 220 344 
218 7 367 308 44 499 140 580 25 
219 7 448 378 105 499 151 284 44 
220 7 61 391 350 217 433 132 306 
221 6 355 648 569 184 535 562 
222 7 490 193 177 420 538 68 329 
223 7 133 20 75 46 141 353 404 
224 6 584 351 524 19 533 95 
225 5 297 370 89 8 146 
226 7 213 6 672 98 200 372 202 
227 7 343 360 403 182 43 35 58 
228 7 319 270 210 294 619 45 136 
229 7 630 691 585 300 198 119 11 
230 7 349 623 239 162 540 32 270 
231 7 155 595 338 461 427 233 195 
232 7 142 296 101 138 421 173 369 
233 7 338 427 283 114 241 435 595 
234 7 637 419 129 104 478 561 544 
235 7 398 635 66 481 581 110 693 
236 7 284 388 44 499 367 309 219 
237 4 245 580 25 243 
238 5 334 408 311 357 10 
239 7 162 230 349 540 623 697 444 
240 7 158 282 417 26 244 431 488 
241 7 361 283 56 195 347 233 650 
242 7 222 33 490 463 64 298 193 
243 5 617 574 245 237 147 
244 7 318 417 251 158 26 240 356 
245 6 25 237 580 243 122 617 
246 7 70 476 32 163 383 697 402 
247 7 23 259 331 141 405 46 117 
248 7 17 377 156 191 336 666 96 
249 4 613 587 90 307 
250 7 288 111 71 393 258 58 360 
251 7 26 318 183 417 244 158 356 
252 7 380 277 74 94 179 152 314 
253 7 268 375 511 122 147 2 351 
254 7 28 525 478 36 566 301 364 
255 7 299 96 377 191 156 34 248 
256 7 197 151 85 589 378 510 576 
257 6 506 676 143 212 310 592 
258 7 71 111 250 288 8 139 89 
259 7 23 46 247 141 331 405 404 
260 7 482 172 492 567 443 632 664 
261 7 150 21 264 399 430 345 84 
262 4 599 669 521 186 
263 7 441 291 363 53 384 356 201 
264 7 21 261 399 150 595 427 461 
265 7 422 13 373 169 429 335 438 
266 7 326 341 130 287 306 201 342 
267 5 620 113 451 684 657 
268 7 122 253 147 208 245 25 308 
269 7 545 373 536 438 425 204 24 
270 7 210 228 294 45 319 230 619 
271 7 405 331 404 38 247 141 23 
272 6 659 466 587 90 491 537 
273 7 214 91 78 434 52 116 200 
274 5 357 334 440 48 408 
275 7 380 387 94 252 74 277 131 
276 7 202 366 302 203 124 76 672 
277 7 94 252 179 380 152 316 131 
278 7 298 79 127 146 340 135 392 
279 5 680 77 677 508 483 
280 7 302 203 344 202 413 276 98 
281 7 354 60 159 286 92 29 386 
282 7 240 158 417 26 190 183 166 
283 7 114 293 435 650 241 233 534 
284 7 236 448 388 219 499 44 367 
285 7 484 112 171 525 301 432 455 
286 7 16 60 389 618 518 543 386 
287 7 266 130 326 341 306 55 342 
288 7 250 71 111 258 393 58 360 
289 7 180 303 132 73 328 131 312 
290 5 168 464 515 501 348 
291 7 263 363 441 384 53 353 201 
292 7 166 365 651 692 332 149 560 
293 7 435 114 650 283 534 426 233 
294 7 136 228 210 270 157 619 319 
295 7 337 115 206 65 99 646 485 
296 7 138 232 142 173 369 101 423 
297 5 370 225 89 439 8 
298 7 278 79 146 135 392 127 340 
299 7 255 96 377 156 191 248 17 
300 7 119 11 585 691 418 474 229 
301 7 104 129 455 544 478 484 112 
302 7 203 202 280 276 98 200 366 
303 7 131 94 289 73 180 277 132 
304 5 397 40 628 123 72 
305 7 189 396 121 88 34 13 24 
306 7 130 61 350 433 341 266 287 
307 3 613 640 90 
308 7 218 25 122 580 367 140 245 
309 7 428 388 119 585 300 215 236 
310 6 212 592 676 506 257 143 
311 4 374 674 238 10 
312 7 328 7 107 132 37 180 165 
313 7 148 516 144 333 194 472 496 
314 7 134 136 181 157 321 74 294 
315 4 418 474 11 462 
316 7 179 152 395 277 69 252 94 
317 2 86 304 
318 7 244 251 417 26 158 356 240 
319 7 619 45 228 29 406 386 294 
320 7 29 619 74 136 319 387 294 
321 7 181 379 157 411 175 401 134 
322 5 479 339 35 43 324 
323 5 205 646 99 337 647 
324 7 647 182 339 43 35 403 424 
325 7 627 532 170 125 653 689 18 
326 7 341 266 130 287 201 306 75 
327 7 397 72 123 566 304 419 478 
328 7 312 7 107 132 180 220 289 
329 7 128 447 538 177 457 420 57 
330 7 126 329 199 447 49 64 390 
331 7 405 271 247 141 404 23 38 
332 7 149 692 560 97 212 310 365 
333 7 144 516 148 313 3 382 477 
334 6 357 408 274 48 238 440 
335 7 169 86 422 265 438 666 429 
336 6 156 17 248 470 377 15 
337 7 99 295 646 65 115 205 206 
338 7 427 233 595 231 155 461 264 
339 5 324 43 35 647 182 
340 5 439 127 407 185 278 
341 7 326 266 130 287 306 75 201 
342 7 55 76 124 507 366 276 385 
343 7 227 360 35 43 182 403 324 
344 7 413 433 280 217 69 306 61 
345 7 399 261 21 264 150 427 233 
346 7 30 553 485 487 115 674 65 
347 7 681 361 85 178 589 607 539 
348 4 445 168 515 290 
349 7 623 230 162 239 540 668 270 
350 7 61 306 271 220 130 433 38 
351 7 533 224 95 375 511 584 19 
352 5 575 82 556 622 671 
353 7 363 441 53 291 263 133 356 
354 7 281 60 159 92 286 29 387 
355 7 221 569 184 562 535 648 661 
356 7 53 441 318 251 263 244 363 
357 6 334 274 408 440 48 468 
358 7 527 97 612 560 57 59 332 
359 7 51 173 126 49 410 199 31 
360 7 227 343 403 58 43 182 35 
361 7 347 241 681 589 283 534 178 
362 7 593 605 80 522 695 153 512 
363 7 441 53 263 291 353 384 356 
364 7 628 28 40 566 123 36 72 
365 7 59 560 692 166 488 332 97 
366 6 124 76 276 672 202 55 
367 7 44 218 499 308 580 25 140 
368 7 120 643 446 607 469 558 663 
369 7 423 138 296 232 142 356 53 
370 5 297 225 89 439 146 
371 7 668 87 543 518 389 564 623 
372 7 47 39 6 531 550 213 547 
373 7 536 545 438 269 265 169 422 
374 5 311 10 30 674 65 
375 7 511 253 351 2 533 522 593 
376 7 414 83 52 116 200 91 98 
377 7 248 17 191 96 156 336 666 
378 7 105 151 197 589 256 219 448 
379 7 175 411 321 401 181 157 434 
380 7 252 74 277 94 275 387 179 
381 7 480 400 555 68 451 113 684 
382 7 477 3 624 660 333 144 652 
383 5 697 70 246 678 163 
384 7 201 263 291 183 441 251 363 
385 7 651 507 190 292 166 342 282 
386 7 406 389 518 543 45 319 286 
387 7 92 74 320 275 159 380 29 
388 7 236 309 428 284 215 119 44 
389 7 518 543 386 406 16 564 286 
390 7 64 199 31 127 49 185 407 
391 7 217 69 132 73 220 413 433 
392 7 135 146 415 79 164 139 298 
393 7 58 497 250 424 111 403 288 
394 7 194 472 677 496 519 77 279 
395 7 152 316 83 179 414 134 376 
396 7 305 189 121 34 88 191 13 
397 6 72 123 304 327 628 566 
398 7 235 66 174 635 481 581 606 
399 7 345 264 21 427 261 150 338 
400 7 480 381 555 451 68 113 684 
401 7 175 379 411 321 116 434 181 
402 7 32 411 157 379 321 175 181 
403 7 424 227 182 58 343 43 360 
404 7 405 271 141 331 23 247 20 
405 7 271 331 404 141 247 23 38 
406 7 386 45 389 518 543 319 619 
407 7 185 31 340 127 199 390 439 
408 7 48 334 468 357 440 274 238 
409 7 8 258 89 71 111 139 225 
410 7 126 431 359 51 240 244 330 
411 7 379 175 321 181 401 157 402 
412 6 631 494 109 629 509 645 
413 7 344 433 61 280 306 217 391 
414 7 83 376 116 52 91 200 434 
415 7 164 392 135 139 146 79 89 
416 4 582 471 642 143 
417 7 158 240 244 318 26 251 282 
418 6 11 315 474 462 691 300 
419 6 637 561 234 327 4 654 
420 7 177 538 457 193 106 329 490 
421 7 101 142 232 407 185 296 31 
422 7 13 429 666 265 169 335 88 
423 7 369 138 296 53 356 353 232 
424 7 403 58 497 182 227 324 393 
425 7 154 100 545 176 36 536 269 
426 6 293 435 650 534 114 283 
427 7 338 233 595 399 264 231 21 
428 7 309 119 388 585 300 215 11 
429 7 13 422 666 265 88 169 335 
430 7 84 167 150 261 9 21 204 
431 7 488 410 59 240 447 158 282 
432 7 594 171 455 579 112 498 484 
433 7 413 344 61 306 130 350 220 
434 7 116 214 91 175 273 401 379 
435 7 114 293 283 650 534 426 233 
436 3 662 108 611 
437 4 571 161 475 508 
438 7 536 545 373 169 265 269 335 
439 5 340 407 127 185 278 
440 7 48 517 357 408 274 334 15 
441 7 363 53 263 291 356 353 384 
442 6 145 662 658 108 458 626 
443 5 549 492 591 482 172 
444 7 80 95 593 153 540 162 533 
445 3 348 515 168 
446 7 120 579 368 558 607 469 643 
447 7 329 128 57 538 636 457 502 
448 6 219 378 284 105 499 151 
449 3 578 22 458 
450 4 93 614 41 683 
451 5 113 684 400 480 381 
452 6 638 626 12 601 192 503 
453 4 520 22 679 489 
454 5 686 640 456 90 211 
455 7 103 544 104 432 301 594 598 
456 7 211 137 686 491 454 537 90 
457 7 106 420 538 128 177 661 636 
458 3 442 662 145 
459 6 690 475 526 664 161 482 
460 4 568 611 641 108 
461 7 155 595 176 231 264 154 21 
462 6 41 418 67 551 683 93 
463 7 33 570 604 196 68 609 586 
464 4 290 168 515 501 
465 7 18 559 109 509 170 631 494 
466 6 272 659 587 491 90 537 
467 6 483 77 519 680 677 508 
468 7 408 48 334 440 357 238 517 
469 7 563 558 368 120 643 446 667 
470 7 15 517 336 156 440 63 48 
471 6 582 642 125 627 416 532 
472 7 194 394 496 313 148 516 144 
473 3 675 656 42 
474 5 418 215 11 315 300 
475 7 526 664 161 571 459 591 482 
476 7 163 246 32 188 70 588 383 
477 6 382 624 3 660 652 333 
478 7 129 254 566 28 301 104 234 
479 5 322 10 374 339 323 
480 7 400 381 555 68 451 113 684 
481 6 635 581 608 66 235 398 
482 7 260 172 492 664 443 526 475 
483 6 467 77 519 680 677 508 
484 7 285 112 171 525 301 432 455 
485 6 115 346 553 565 487 610 
486 7 531 186 547 521 39 599 669 
487 5 553 346 674 485 30 
488 7 59 365 431 560 240 166 358 
489 4 453 679 520 22 
490 7 193 222 177 68 420 555 381 
491 5 537 137 529 456 466 
492 6 172 443 549 482 260 632 
493 6 602 504 552 198 67 551 
494 7 631 109 412 629 645 509 583 
495 6 689 170 541 559 685 616 
496 7 194 472 394 573 313 677 148 
497 7 424 58 393 403 227 182 324 
498 7 192 12 667 558 594 563 601 
499 7 44 367 218 105 219 308 236 
500 7 609 586 590 570 206 54 604 
501 5 515 168 290 464 348 
502 7 636 661 57 612 639 562 106 
503 5 696 452 658 145 638 
504 6 602 493 552 551 67 546 
505 5 665 216 618 16 633 
506 6 676 143 257 310 592 212 
507 7 385 651 342 55 76 292 190 
508 5 680 77 279 437 483 
509 7 412 631 109 494 465 629 645 
510 4 649 85 663 576 
511 7 375 2 253 351 533 522 593 
512 5 695 605 522 523 2 
513 4 693 625 110 235 
514 4 546 552 67 504 
515 5 168 290 501 464 348 
516 7 148 144 313 333 472 194 3 
517 7 440 15 48 470 274 357 408 
518 7 543 389 386 16 564 406 286 
519 7 677 467 77 483 673 394 680 
520 3 453 22 679 
521 6 669 186 542 599 262 486 
522 7 695 605 362 2 593 512 80 
523 5 574 512 2 147 617 
524 4 584 224 19 682 
525 7 100 254 285 484 112 36 171 
526 7 664 475 161 459 571 482 591 
527 7 612 358 97 160 502 655 50 
528 7 63 144 194 472 313 516 673 
529 4 537 549 491 137 
530 4 211 137 632 456 
531 7 39 547 486 550 47 186 372 
532 5 627 325 257 125 653 
533 7 351 95 224 375 511 444 584 
534 7 650 293 435 283 114 426 361 
535 7 184 355 221 562 569 616 639 
536 7 438 545 373 269 265 169 425 
537 4 491 529 137 456 
538 7 420 177 457 329 128 193 106 
539 7 178 607 56 579 446 681 120 
540 7 162 623 153 349 239 444 80 
541 5 616 50 495 655 639 
542 3 669 521 186 
543 7 518 389 386 16 564 406 618 
544 7 103 104 455 129 598 301 234 
545 7 536 438 373 269 425 265 169 
546 4 514 67 551 552 
547 7 39 531 550 486 47 186 606 
548 5 648 634 569 106 221 
549 5 443 492 529 591 172 
550 7 547 47 39 557 531 606 625 
551 7 67 546 504 602 514 493 462 
552 6 514 504 546 602 493 67 
553 5 487 346 485 30 674 
554 7 694 14 615 81 596 657 687 
555 7 381 480 400 68 451 113 684 
556 4 671 575 352 82 
557 7 606 174 550 66 47 398 235 
558 7 469 563 120 446 368 498 643 
559 7 18 170 465 685 689 109 495 
560 7 97 692 332 149 365 358 59 
561 6 637 419 4 187 654 234 
562 7 569 648 355 661 221 184 535 
563 7 469 558 667 498 368 120 601 
564 7 16 633 87 618 543 518 216 
565 2 610 27 
566 7 28 123 72 327 397 628 364 
567 2 260 172 
568 4 611 460 641 108 
569 7 562 648 355 221 661 184 535 
570 7 609 33 604 463 586 196 500 
571 6 161 437 475 526 664 459 
572 2 174 66 
573 5 5 496 622 194 472 
574 4 617 147 243 523 
575 5 352 82 556 671 622 
576 4 649 510 102 256 
577 2 600 42 
578 3 449 458 22 
579 7 446 120 594 558 607 539 368 
580 6 25 245 237 308 218 367 
581 6 608 635 110 481 235 398 
582 5 471 642 125 416 627 
583 5 629 494 685 109 631 
584 6 19 224 524 351 533 95 
585 7 119 300 428 229 691 11 309 
586 7 609 500 570 33 590 604 54 
587 6 90 659 272 466 686 249 
588 7 188 78 214 434 476 273 175 
589 7 151 256 378 85 347 361 197 
590 7 54 206 500 688 609 27 604 
591 7 443 549 475 526 664 161 492 
592 6 310 212 676 143 506 257 
593 7 80 362 522 605 153 695 444 
594 7 432 579 498 446 558 192 120 
595 7 231 461 155 338 427 264 233 
596 7 81 615 597 644 670 554 694 
597 6 596 81 644 14 554 615 
598 4 103 503 452 544 
599 6 262 521 669 642 186 486 
600 3 577 42 207 
601 7 667 12 626 638 192 452 145 
602 6 504 493 552 67 551 546 
603 6 54 597 267 688 620 196 
604 7 196 570 54 463 609 267 590 
605 7 695 522 362 512 593 2 80 
606 7 557 625 398 174 66 550 693 
607 7 178 120 368 539 446 643 663 
608 5 581 635 110 481 235 
609 7 586 500 570 590 604 33 54 
610 2 565 27 
611 5 568 460 641 108 436 
612 7 527 358 502 655 639 160 636 
613 3 249 307 90 
614 3 450 93 41 
615 7 81 596 670 694 554 621 14 
616 3 541 535 184 
617 5 574 243 147 523 245 
618 7 216 16 665 633 564 505 286 
619 7 319 29 45 228 320 294 406 
620 5 267 113 684 451 657 
621 6 670 615 81 596 644 694 
622 6 5 187 573 82 575 352 
623 7 349 162 230 540 239 668 371 
624 6 3 477 660 382 652 333 
625 7 693 606 235 398 513 542 66 
626 7 638 145 601 452 442 12 667 
627 5 532 325 125 653 257 
628 7 40 123 304 72 364 397 566 
629 6 494 412 631 645 109 583 
630 6 229 691 198 585 300 119 
631 7 494 412 109 629 509 645 465 
632 5 172 492 137 260 530 
633 6 564 216 665 618 16 87 
634 4 687 657 684 14 
635 7 581 481 235 608 398 110 66 
636 7 502 661 57 106 562 128 612 
637 5 419 561 234 4 327 
638 6 452 626 12 601 145 192 
639 7 655 50 184 535 541 355 562 
640 4 454 686 307 90 
641 5 611 460 568 436 108 
642 5 582 471 599 262 125 
643 6 368 663 120 469 446 558 
644 4 596 81 597 670 
645 6 629 412 494 631 109 509 
646 7 99 205 337 323 295 500 586 
647 7 324 339 182 43 403 424 35 
648 7 569 562 221 355 548 661 184 
649 4 510 85 663 576 
650 7 534 293 435 283 114 426 361 
651 7 385 507 292 166 190 282 365 
652 4 660 624 3 477 
653 6 125 325 627 532 18 465 
654 5 4 652 187 561 419 
655 7 50 639 160 541 612 184 535 
656 5 473 675 42 118 600 
657 5 687 14 554 684 694 
658 7 108 662 442 145 696 568 503 
659 5 272 466 587 90 491 
660 5 624 652 3 477 382 
661 7 502 562 636 569 106 648 355 
662 5 442 658 108 145 458 
663 6 643 368 607 649 510 120 
664 7 526 475 161 459 482 571 591 
665 5 216 618 633 505 16 
666 7 429 13 422 169 335 265 88 
667 7 601 12 192 498 563 626 638 
668 7 371 623 540 349 87 162 153 
669 5 521 186 542 262 599 
670 6 621 615 81 596 644 694 
671 3 556 82 575 
672 6 226 213 6 366 202 276 
673 7 519 467 677 483 77 394 528 
674 4 30 487 346 553 
675 3 473 656 42 
676 6 506 143 257 310 592 212 
677 7 519 77 279 483 394 467 680 
678 3 163 383 572 
679 3 22 453 520 
680 6 508 77 279 483 467 677 
681 7 347 178 607 361 539 663 85 
682 5 208 489 524 224 102 
683 5 93 41 450 614 501 
684 5 451 113 620 687 267 
685 7 559 583 18 109 465 170 494 
686 7 454 90 640 456 587 307 211 
687 5 657 14 554 634 684 
688 6 27 54 590 206 603 610 
689 7 170 495 559 18 325 685 465 
690 5 459 526 475 664 161 
691 7 300 11 229 418 462 585 119 
692 7 332 560 149 97 365 59 292 
693 7 625 513 235 398 110 606 635 
694 7 554 615 14 81 596 657 687 
695 7 605 522 362 512 593 2 80 
696 4 503 658 108 145 
697 7 383 70 239 19 95 246 584 
DEPOT_SECTION
   1
   -1
EOF
