NAME :  X-n916-kX-w366-c11.cctp
COMMENT : 	Adapted by Maziero, Usberti and Cavellucci from the Uchoa, Pecin, Pessoa, Poggi, Subramanian, and Vidal (2013)
TYPE :  CCTP
DIMENSION :    882
EDGE_WEIGHT_TYPE : 	EUC_2D	
CAPACITY : 	33
VERTICES_WITHIN_COVERAGE :  11
VERTICES_WITH_DEMAND : 	366
NODE_COORD_SECTION
1 0 0
2 471 44
3 63 475
4 766 504
5 895 595
6 816 377
7 462 590
8 997 596
9 775 993
10 16 97
11 839 348
12 558 896
13 423 912
14 169 411
15 75 602
16 402 52
17 388 208
18 202 39
19 510 841
20 555 484
21 920 633
22 369 718
23 432 696
24 624 872
25 472 323
26 753 701
27 584 440
28 292 665
29 202 310
30 764 255
31 662 486
32 822 575
33 469 13
34 640 165
35 814 886
36 554 82
37 336 745
38 950 229
39 142 835
40 407 932
41 69 205
42 86 764
43 202 165
44 376 632
45 639 987
46 775 98
47 503 855
48 38 960
49 215 73
50 566 78
51 4 517
52 44 457
53 676 337
54 338 568
55 623 911
56 626 931
57 97 43
58 799 942
59 725 430
60 93 953
61 264 347
62 986 595
63 631 614
64 331 362
65 158 793
66 760 436
67 115 641
68 307 764
69 469 817
70 315 388
71 906 830
72 564 25
73 88 246
74 671 892
75 181 139
76 723 784
77 609 798
78 174 403
79 76 671
80 984 939
81 830 579
82 3 893
83 176 164
84 625 158
85 249 590
86 663 347
87 21 500
88 501 372
89 572 218
90 483 270
91 604 201
92 548 281
93 205 745
94 125 178
95 870 931
96 276 846
97 759 839
98 79 105
99 218 992
100 277 797
101 545 62
102 161 102
103 1 827
104 719 128
105 80 366
106 16 732
107 24 521
108 848 600
109 585 594
110 618 577
111 44 300
112 489 239
113 479 978
114 768 731
115 274 30
116 546 837
117 890 640
118 594 308
119 878 716
120 498 448
121 145 96
122 54 935
123 473 5
124 906 899
125 277 752
126 435 254
127 630 686
128 905 275
129 521 401
130 850 425
131 374 186
132 712 433
133 814 730
134 740 622
135 681 74
136 120 490
137 297 816
138 376 534
139 982 560
140 1 332
141 815 625
142 356 868
143 659 994
144 804 110
145 415 517
146 106 844
147 549 366
148 57 742
149 848 739
150 381 700
151 442 808
152 867 408
153 67 930
154 763 186
155 581 91
156 416 56
157 729 620
158 163 73
159 160 129
160 468 902
161 694 730
162 319 644
163 831 476
164 863 921
165 524 71
166 299 197
167 193 823
168 18 360
169 987 845
170 998 548
171 302 506
172 432 229
173 550 142
174 637 527
175 168 0
176 178 804
177 888 448
178 270 481
179 250 421
180 410 125
181 373 134
182 275 772
183 965 25
184 858 502
185 587 967
186 860 275
187 178 710
188 331 4
189 811 598
190 560 886
191 712 512
192 216 974
193 528 75
194 740 12
195 840 109
196 980 512
197 928 334
198 90 78
199 788 322
200 665 990
201 400 702
202 131 24
203 238 610
204 392 541
205 40 394
206 713 806
207 823 571
208 863 568
209 145 20
210 509 893
211 629 447
212 854 236
213 717 78
214 525 774
215 695 620
216 721 979
217 957 457
218 594 451
219 514 110
220 899 994
221 772 937
222 877 942
223 533 82
224 399 742
225 273 688
226 360 780
227 650 339
228 312 455
229 272 771
230 362 515
231 716 823
232 307 627
233 787 639
234 28 212
235 38 119
236 130 518
237 535 632
238 832 952
239 874 955
240 106 653
241 440 485
242 73 329
243 934 692
244 638 325
245 126 820
246 382 958
247 884 840
248 706 90
249 424 652
250 216 964
251 841 543
252 370 271
253 863 886
254 361 490
255 875 91
256 266 457
257 179 817
258 430 197
259 512 412
260 111 1
261 811 631
262 366 758
263 227 575
264 197 524
265 398 905
266 939 361
267 953 287
268 897 410
269 285 104
270 245 215
271 569 401
272 159 310
273 20 90
274 212 39
275 415 407
276 13 641
277 855 610
278 95 571
279 780 936
280 63 84
281 240 801
282 977 62
283 405 258
284 995 89
285 334 695
286 265 783
287 988 790
288 68 368
289 497 712
290 201 513
291 676 581
292 625 400
293 791 162
294 351 55
295 572 827
296 584 930
297 482 749
298 110 723
299 230 362
300 942 467
301 540 63
302 202 848
303 161 162
304 272 788
305 137 87
306 177 274
307 324 842
308 229 434
309 149 697
310 916 866
311 634 157
312 42 213
313 655 154
314 123 1000
315 460 506
316 21 698
317 435 615
318 838 67
319 120 425
320 54 726
321 475 624
322 923 980
323 391 94
324 105 901
325 463 618
326 568 659
327 999 831
328 719 93
329 290 423
330 796 547
331 123 595
332 515 939
333 550 757
334 954 98
335 898 486
336 695 337
337 40 727
338 217 284
339 910 245
340 536 956
341 262 332
342 91 91
343 697 755
344 894 726
345 919 962
346 909 22
347 253 535
348 703 346
349 416 895
350 330 596
351 524 250
352 475 780
353 365 803
354 844 845
355 909 202
356 802 755
357 77 246
358 266 819
359 759 835
360 850 267
361 71 176
362 244 82
363 881 234
364 867 75
365 564 436
366 749 216
367 30 624
368 677 208
369 980 257
370 582 317
371 421 870
372 183 454
373 442 766
374 875 497
375 217 979
376 867 873
377 280 473
378 582 382
379 35 597
380 287 284
381 527 786
382 991 617
383 448 513
384 581 780
385 415 498
386 215 359
387 478 154
388 964 211
389 886 296
390 696 784
391 102 90
392 227 699
393 76 258
394 705 580
395 752 531
396 246 128
397 834 350
398 838 453
399 809 825
400 468 650
401 204 930
402 523 626
403 110 964
404 422 180
405 940 246
406 513 333
407 446 78
408 992 939
409 58 941
410 24 763
411 17 536
412 70 381
413 142 464
414 621 976
415 878 960
416 286 774
417 349 202
418 841 520
419 134 20
420 107 804
421 278 847
422 103 639
423 555 920
424 427 289
425 987 735
426 905 345
427 608 750
428 471 58
429 482 339
430 319 913
431 966 994
432 288 458
433 225 777
434 501 384
435 3 25
436 259 851
437 632 304
438 180 66
439 300 608
440 591 113
441 569 817
442 165 31
443 137 397
444 820 139
445 858 354
446 846 618
447 0 438
448 308 337
449 772 594
450 684 931
451 76 667
452 750 130
453 538 354
454 725 339
455 758 410
456 664 460
457 837 95
458 90 978
459 898 281
460 301 417
461 480 247
462 441 215
463 749 43
464 119 871
465 77 906
466 30 919
467 481 281
468 680 2
469 262 513
470 892 100
471 291 346
472 297 568
473 248 393
474 41 933
475 904 115
476 32 959
477 535 246
478 383 373
479 790 155
480 351 192
481 974 278
482 853 66
483 402 223
484 946 112
485 282 298
486 125 815
487 542 231
488 414 364
489 126 877
490 867 55
491 356 901
492 432 398
493 943 107
494 50 932
495 152 996
496 456 587
497 249 311
498 993 242
499 499 264
500 801 81
501 740 343
502 947 194
503 413 424
504 885 23
505 22 856
506 120 843
507 878 250
508 285 767
509 62 901
510 923 284
511 967 327
512 647 167
513 284 481
514 474 146
515 879 57
516 69 955
517 226 446
518 681 214
519 10 764
520 303 406
521 306 364
522 443 329
523 256 544
524 902 315
525 99 834
526 246 156
527 244 466
528 744 203
529 795 267
530 484 108
531 152 734
532 182 883
533 862 64
534 403 167
535 80 925
536 918 400
537 888 170
538 122 356
539 970 207
540 838 63
541 772 29
542 481 228
543 159 405
544 73 851
545 142 807
546 631 386
547 927 39
548 220 898
549 374 989
550 269 417
551 568 286
552 289 426
553 936 279
554 869 414
555 197 686
556 187 768
557 369 80
558 166 764
559 908 249
560 224 440
561 337 486
562 220 794
563 74 791
564 53 1000
565 787 73
566 787 362
567 750 177
568 254 284
569 547 281
570 172 865
571 24 961
572 887 262
573 687 320
574 156 826
575 310 852
576 239 787
577 63 961
578 414 304
579 385 451
580 297 604
581 122 849
582 500 280
583 308 485
584 216 326
585 788 310
586 120 859
587 952 262
588 50 951
589 521 285
590 566 179
591 51 802
592 234 720
593 297 461
594 102 907
595 602 414
596 568 274
597 977 339
598 363 614
599 192 888
600 262 418
601 877 28
602 266 562
603 283 404
604 21 904
605 978 188
606 464 235
607 436 737
608 85 979
609 827 264
610 127 983
611 883 290
612 553 441
613 118 745
614 863 44
615 494 238
616 348 368
617 871 87
618 281 341
619 437 236
620 231 337
621 479 274
622 589 30
623 486 301
624 367 425
625 261 354
626 417 390
627 169 825
628 294 291
629 934 247
630 199 952
631 491 210
632 547 203
633 266 398
634 879 167
635 810 114
636 366 344
637 138 699
638 121 678
639 458 199
640 265 932
641 150 301
642 306 272
643 520 532
644 941 342
645 185 796
646 184 339
647 961 294
648 925 179
649 113 864
650 254 377
651 785 101
652 944 220
653 392 85
654 223 275
655 72 966
656 451 269
657 272 419
658 213 987
659 542 240
660 435 278
661 590 292
662 816 399
663 10 893
664 912 350
665 932 281
666 431 819
667 102 918
668 915 417
669 248 506
670 507 957
671 610 313
672 104 710
673 445 305
674 899 164
675 91 921
676 968 286
677 530 28
678 772 457
679 821 71
680 408 363
681 568 311
682 420 267
683 331 433
684 897 47
685 721 109
686 783 26
687 843 135
688 649 30
689 792 295
690 817 187
691 310 398
692 108 980
693 113 943
694 627 268
695 843 9
696 827 183
697 469 247
698 293 476
699 48 802
700 299 571
701 177 983
702 247 818
703 485 205
704 926 105
705 198 537
706 193 518
707 941 160
708 319 377
709 212 832
710 263 293
711 506 64
712 124 894
713 277 359
714 325 320
715 720 133
716 82 861
717 100 923
718 585 222
719 496 113
720 820 51
721 131 436
722 280 364
723 175 812
724 921 343
725 678 290
726 960 590
727 927 210
728 106 895
729 287 535
730 494 399
731 418 389
732 563 224
733 414 374
734 227 316
735 234 332
736 858 251
737 345 175
738 908 99
739 401 449
740 125 846
741 226 934
742 915 307
743 420 185
744 99 895
745 858 255
746 904 280
747 836 295
748 954 91
749 307 462
750 63 942
751 234 500
752 990 351
753 64 844
754 16 979
755 746 95
756 110 822
757 874 368
758 282 437
759 735 65
760 343 882
761 273 905
762 16 952
763 698 290
764 797 162
765 836 112
766 519 268
767 392 244
768 889 215
769 822 706
770 567 222
771 569 663
772 254 984
773 939 225
774 953 324
775 202 931
776 882 219
777 252 380
778 64 517
779 875 542
780 786 222
781 908 103
782 915 177
783 321 438
784 205 294
785 408 460
786 189 798
787 93 968
788 889 238
789 296 871
790 467 189
791 497 523
792 329 391
793 80 869
794 868 149
795 548 355
796 630 125
797 322 213
798 874 134
799 897 281
800 41 883
801 474 446
802 221 764
803 917 309
804 390 957
805 435 336
806 862 457
807 144 827
808 131 239
809 396 258
810 817 68
811 868 115
812 861 244
813 484 279
814 252 836
815 413 905
816 121 908
817 223 490
818 775 116
819 932 226
820 807 379
821 254 997
822 332 319
823 808 87
824 973 410
825 549 147
826 517 226
827 151 969
828 284 419
829 851 84
830 383 311
831 456 720
832 816 63
833 336 428
834 944 359
835 185 820
836 18 846
837 861 274
838 50 970
839 869 277
840 872 242
841 370 207
842 46 964
843 541 303
844 442 386
845 835 160
846 206 314
847 361 437
848 877 322
849 533 279
850 307 397
851 205 953
852 78 882
853 390 508
854 983 411
855 561 527
856 709 161
857 71 969
858 47 963
859 786 186
860 960 209
861 698 347
862 923 254
863 999 380
864 408 243
865 71 883
866 677 170
867 510 245
868 973 291
869 39 922
870 37 1000
871 966 301
872 344 450
873 112 334
874 133 830
875 107 466
876 798 121
877 224 769
878 503 237
879 294 796
880 521 264
881 113 820
882 996 220
DEMAND_SECTION
2 8
3 6
4 7
5 6
6 10
7 10
8 5
9 7
10 8
11 8
12 6
13 6
14 6
15 6
16 5
17 8
18 6
19 10
20 9
21 8
22 9
23 6
24 10
25 10
26 6
27 6
28 6
29 9
30 9
31 10
32 9
33 6
34 5
35 5
36 6
37 10
38 8
39 5
40 6
41 9
42 8
43 7
44 8
45 6
46 7
47 6
48 5
49 7
50 9
51 8
52 8
53 10
54 8
55 7
56 10
57 6
58 5
59 6
60 10
61 7
62 6
63 7
64 8
65 9
66 9
67 9
68 6
69 10
70 7
71 9
72 5
73 7
74 9
75 6
76 5
77 9
78 6
79 5
80 5
81 5
82 7
83 10
84 10
85 6
86 9
87 7
88 10
89 10
90 7
91 10
92 7
93 9
94 5
95 9
96 8
97 7
98 8
99 10
100 10
101 7
102 10
103 6
104 6
105 5
106 10
107 10
108 6
109 5
110 7
111 7
112 5
113 5
114 7
115 9
116 9
117 8
118 5
119 7
120 9
121 7
122 7
123 9
124 5
125 9
126 5
127 6
128 6
129 8
130 10
131 7
132 8
133 9
134 10
135 6
136 8
137 7
138 6
139 7
140 5
141 5
142 6
143 8
144 10
145 10
146 8
147 10
148 9
149 6
150 10
151 5
152 5
153 7
154 5
155 10
156 6
157 8
158 8
159 5
160 9
161 6
162 7
163 7
164 6
165 9
166 8
167 10
168 10
169 6
170 9
171 9
172 5
173 5
174 8
175 10
176 6
177 8
178 5
179 7
180 5
181 5
182 10
183 9
184 10
185 8
186 7
187 6
188 5
189 8
190 6
191 5
192 9
193 9
194 5
195 9
196 7
197 8
198 8
199 9
200 10
201 10
202 7
203 8
204 7
205 6
206 9
207 10
208 10
209 7
210 10
211 5
212 10
213 8
214 8
215 8
216 9
217 8
218 8
219 8
220 10
221 8
222 7
223 6
224 9
225 10
226 7
227 5
228 6
229 9
230 8
231 6
232 8
233 7
234 7
235 5
236 7
237 8
238 6
239 5
240 8
241 6
242 6
243 10
244 8
245 9
246 6
247 7
248 7
249 5
250 7
251 10
252 6
253 5
254 10
255 6
256 10
257 7
258 10
259 9
260 5
261 5
262 5
263 8
264 8
265 5
266 8
267 10
268 6
269 7
270 9
271 8
272 6
273 9
274 10
275 10
276 6
277 10
278 9
279 7
280 10
281 9
282 5
283 6
284 10
285 5
286 5
287 7
288 9
289 9
290 10
291 6
292 5
293 10
294 7
295 7
296 8
297 10
298 5
299 5
300 7
301 10
302 8
303 10
304 7
305 8
306 10
307 9
308 8
309 10
310 7
311 10
312 10
313 6
314 7
315 6
316 8
317 9
318 7
319 6
320 5
321 9
322 6
323 8
324 9
325 6
326 6
327 5
328 7
329 6
330 10
331 7
332 5
333 5
334 8
335 8
336 6
337 6
338 7
339 7
340 7
341 5
342 9
343 7
344 6
345 5
346 9
347 5
348 6
349 7
350 8
351 10
352 9
353 5
354 6
355 9
356 6
357 7
358 5
359 9
360 10
361 10
362 6
363 5
364 8
365 6
366 10
367 10
COVERAGE_SECTION
2 11 428 33 123 711 407 156 165 677 193 530 16 
3 11 52 778 875 87 136 107 51 447 319 411 721 
4 11 395 678 330 191 66 163 418 59 251 207 398 
5 11 208 277 21 117 108 446 779 726 81 251 32 
6 11 820 662 397 566 11 445 130 757 152 199 554 
7 11 496 325 321 317 400 402 249 791 383 643 237 
8 11 62 382 726 139 170 21 196 5 243 117 779 
9 11 58 216 221 279 238 239 415 200 450 95 35 
10 11 273 235 280 98 435 342 198 391 361 57 234 
11 11 397 445 6 757 820 848 747 566 662 199 585 
12 11 190 423 296 210 116 332 340 55 47 24 295 
13 11 815 349 40 265 371 160 804 246 491 142 760 
14 11 78 543 443 372 721 319 413 560 308 517 386 
15 11 278 379 422 331 367 67 240 451 79 276 778 
16 11 156 653 323 557 294 407 2 428 180 33 123 
17 11 841 483 131 767 417 743 480 864 258 404 534 
18 11 274 438 49 442 158 175 209 362 419 115 202 
19 11 47 116 69 210 381 295 441 190 214 352 12 
20 11 612 855 365 218 27 643 120 791 211 259 271 
21 11 117 5 726 243 277 382 62 446 108 8 208 
22 11 150 201 224 262 285 37 226 23 607 68 353 
23 11 201 831 607 249 150 224 400 22 289 373 297 
24 11 55 74 56 190 295 12 296 77 441 423 450 
25 11 429 623 522 673 805 406 467 813 621 582 90 
26 11 114 161 133 769 233 356 343 134 157 76 261 
27 11 218 365 612 595 271 211 20 292 378 546 129 
28 11 225 162 232 285 439 580 392 203 350 592 85 
29 11 846 784 584 734 338 646 735 620 654 272 306 
30 11 529 780 366 689 528 585 609 154 199 859 763 
31 11 456 174 211 191 132 218 59 27 292 595 291 
32 11 207 81 189 108 251 330 208 277 446 141 449 
33 11 123 2 428 677 711 156 407 16 165 193 301 
34 11 512 311 84 313 866 796 91 368 518 856 440 
35 11 253 354 376 58 164 279 399 221 238 95 97 
36 11 50 223 101 301 193 155 165 440 219 711 72 
37 11 262 68 226 22 285 508 416 125 224 150 353 
38 11 652 773 819 405 860 388 629 539 727 587 502 
39 11 807 874 574 740 245 506 581 486 545 627 586 
40 11 13 265 815 804 246 349 491 371 549 160 760 
41 11 312 361 234 357 73 393 94 808 235 111 98 
42 11 563 148 613 420 298 320 591 699 672 337 410 
43 11 83 75 303 526 159 396 270 102 94 121 49 
44 11 598 249 162 350 317 150 232 54 201 285 439 
45 11 143 414 200 185 56 450 55 296 216 74 423 
46 11 651 818 565 755 144 500 876 823 635 452 759 
47 11 19 210 116 69 160 190 12 381 295 441 151 
48 11 476 842 858 571 588 838 762 577 474 409 754 
49 11 362 274 18 438 158 102 396 442 115 75 121 
50 11 36 155 101 301 223 193 165 440 72 622 219 
51 11 107 411 87 778 3 52 447 379 278 367 15 
52 11 3 447 87 205 778 875 107 51 412 319 136 
53 11 86 336 573 861 227 348 244 725 454 763 437 
54 11 350 700 472 138 598 439 580 230 204 729 232 
55 11 56 24 296 74 450 414 12 185 190 423 45 
56 11 55 296 414 185 45 450 24 74 143 200 423 
57 11 198 202 260 419 391 342 209 280 305 98 442 
58 11 279 221 238 9 35 164 95 239 222 415 253 
59 11 132 66 455 678 456 191 31 4 348 861 501 
60 11 787 403 693 516 458 655 608 857 535 577 692 
61 11 625 341 618 713 722 471 650 620 735 777 299 
62 11 8 382 726 139 170 21 196 5 117 243 779 
63 11 110 109 291 215 127 326 771 394 174 157 237 
64 11 616 708 521 792 70 448 636 691 714 850 471 
65 11 545 176 723 645 558 786 257 574 627 807 556 
66 11 678 455 59 132 662 4 820 566 398 6 163 
67 11 422 240 638 331 451 79 15 637 309 672 278 
68 11 508 416 125 182 37 879 229 304 100 286 137 
69 11 151 352 666 19 47 373 381 297 214 371 116 
70 10 691 708 850 792 520 521 64 460 603 616 
71 11 247 310 376 354 124 253 169 287 327 399 164 
72 11 622 677 101 301 50 36 165 193 223 155 711 
73 11 357 393 808 41 312 234 111 361 94 641 242 
74 11 450 24 55 56 231 296 206 200 414 45 216 
75 11 159 83 303 43 102 121 396 526 94 158 305 
76 11 206 390 343 231 161 359 97 114 356 26 399 
77 11 384 441 295 427 333 116 24 381 214 390 343 
78 11 14 543 443 372 721 319 386 560 308 646 517 
79 11 451 240 422 638 672 67 320 316 298 367 337 
80 11 408 431 345 322 124 169 310 220 222 415 327 
81 11 32 207 189 108 208 251 277 446 330 141 261 
82 9 663 604 466 800 505 869 836 474 509 
83 11 303 75 43 159 94 102 526 121 396 270 305 
84 11 311 34 512 313 796 91 866 440 590 368 718 
85 11 203 263 602 523 580 472 700 439 347 729 232 
86 11 227 53 244 336 861 573 348 546 437 725 454 
87 11 107 51 411 778 3 52 447 875 379 136 278 
88 11 434 730 129 429 259 406 453 147 795 25 844 
89 10 770 732 718 632 487 91 659 590 477 596 
90 11 621 813 467 499 582 461 697 623 112 656 615 
91 11 718 89 770 590 732 84 34 311 512 632 313 
92 11 569 849 551 596 843 589 766 880 681 477 351 
93 11 802 556 877 433 592 558 187 392 562 531 576 
94 11 303 83 361 159 808 41 75 73 43 357 102 
95 11 164 222 239 415 238 253 124 345 376 220 35 
96 11 421 436 814 358 789 575 137 702 307 100 879 
97 11 359 231 399 206 76 35 390 354 356 221 279 
98 11 342 280 391 198 235 273 305 10 57 121 361 
99 11 658 375 192 250 821 772 851 701 630 741 775 
100 11 304 879 286 182 358 416 229 137 508 281 702 
101 11 301 193 36 165 223 50 677 711 72 155 622 
102 11 121 159 305 158 438 75 303 391 49 83 342 
103 10 836 505 699 591 519 753 82 663 410 800 
104 11 715 685 452 856 328 248 755 213 818 567 866 
105 11 288 412 242 538 873 205 168 443 319 111 140 
106 11 337 410 519 316 320 148 42 699 591 563 79 
107 11 411 51 87 778 3 52 379 447 278 15 875 
108 11 277 446 81 208 32 189 207 141 5 261 251 
109 11 110 63 237 326 402 771 855 174 643 291 127 
110 11 109 63 174 291 855 394 215 326 771 237 31 
111 11 242 393 140 357 168 73 288 105 873 412 312 
112 11 615 461 542 878 697 867 606 499 631 826 90 
113 11 670 332 340 160 40 13 210 804 423 815 246 
114 11 26 356 133 769 76 161 343 149 390 206 233 
115 11 362 188 274 18 49 269 294 438 396 557 442 
116 11 295 441 19 47 190 381 12 214 210 384 77 
117 11 21 5 277 446 108 243 141 119 208 261 81 
118 11 370 661 671 681 551 437 596 244 694 92 843 
119 11 344 149 769 243 133 117 356 21 446 261 277 
120 11 801 259 730 129 612 434 20 365 241 315 791 
121 11 305 102 158 159 391 438 342 75 198 98 303 
122 11 494 409 750 474 153 588 869 516 535 577 466 
123 11 33 2 428 677 711 156 407 165 16 193 301 
124 11 310 253 376 95 164 222 247 239 345 415 71 
125 11 508 182 229 416 68 286 304 100 879 576 592 
126 11 619 682 656 660 172 864 283 606 697 424 462 
127 11 771 326 427 63 161 215 343 109 384 333 237 
128 11 746 459 799 510 572 559 611 389 665 862 339 
129 11 259 434 730 88 147 271 453 612 120 795 365 
130 11 554 152 398 806 662 177 268 163 6 757 820 
131 11 841 480 17 417 737 534 483 743 404 181 258 
132 11 59 66 455 456 678 31 191 211 348 861 4 
133 11 769 356 149 114 119 26 344 233 399 261 141 
134 11 157 449 215 233 394 261 141 189 291 26 395 
135 11 248 213 328 685 688 759 104 755 715 468 796 
136 11 875 236 413 721 3 778 319 372 706 52 264 
137 11 879 100 358 421 96 307 304 575 416 286 182 
138 11 204 230 853 145 254 54 385 561 383 350 171 
139 11 170 62 726 8 196 382 5 21 300 217 779 
140 11 168 111 242 205 288 412 105 393 447 873 357 
141 11 261 189 233 446 108 277 81 32 449 207 134 
142 11 760 491 307 575 265 430 789 371 349 353 815 
143 11 200 45 414 216 450 56 185 55 296 74 9 
144 11 635 876 651 823 500 818 46 765 444 195 457 
145 11 385 853 204 383 241 138 315 230 785 254 739 
146 11 525 506 581 740 586 649 756 881 716 464 874 
147 11 795 453 378 271 129 88 406 434 681 259 370 
148 11 320 337 42 410 106 519 563 298 316 672 591 
149 11 133 119 769 344 356 114 399 243 26 354 247 
150 11 201 22 224 285 23 262 37 249 607 44 831 
151 11 666 69 373 352 371 297 607 19 47 353 224 
152 11 554 130 268 757 177 668 806 536 662 398 445 
153 11 750 122 409 535 494 516 465 474 675 588 509 
154 11 567 859 528 366 293 479 764 780 690 452 856 
155 11 50 440 36 101 223 301 193 165 173 796 622 
156 11 16 407 653 323 557 428 2 294 33 180 123 
157 11 134 215 394 449 233 291 261 26 189 141 395 
158 11 438 102 121 305 442 18 49 159 209 202 274 
159 11 75 102 303 121 83 305 43 158 94 438 391 
160 11 210 13 349 815 371 47 332 670 40 265 19 
161 11 343 390 76 26 114 127 206 427 231 77 215 
162 11 232 28 439 580 350 285 598 44 225 700 54 
163 11 398 806 184 418 374 130 678 177 251 335 4 
164 11 95 222 253 239 415 238 124 376 35 58 345 
165 11 193 223 301 711 101 36 219 50 677 719 530 
166 11 797 417 737 480 270 526 841 642 131 396 380 
167 11 835 257 709 723 176 627 786 302 645 574 562 
168 11 140 205 288 412 105 242 111 447 873 52 538 
169 11 327 287 310 71 80 408 124 247 425 376 253 
170 11 139 196 8 62 726 382 300 217 5 21 335 
171 11 583 513 698 729 377 561 178 469 749 593 432 
172 11 619 462 126 864 483 258 606 283 639 682 697 
173 10 825 590 219 440 36 155 632 719 223 50 
174 11 31 110 291 456 191 855 211 109 394 63 218 
175 11 209 442 419 202 18 260 274 438 158 57 49 
176 11 723 645 257 786 835 65 627 167 574 545 556 
177 11 806 268 335 554 668 130 152 398 374 300 536 
178 11 377 513 256 698 432 527 469 669 593 583 171 
179 11 600 550 657 308 473 633 560 828 517 758 603 
180 11 323 181 534 653 404 407 557 743 514 156 131 
181 11 180 323 534 737 131 653 557 480 404 743 417 
182 11 229 416 508 286 304 125 100 879 68 576 281 
183 11 282 547 346 748 284 684 334 504 493 601 484 
184 11 374 418 163 335 779 251 806 398 177 208 130 
185 11 414 296 340 56 45 423 55 12 143 332 200 
186 11 837 839 360 745 736 611 572 507 747 812 389 
187 11 555 309 531 637 93 392 558 592 556 638 298 
188 11 294 115 557 16 156 653 323 269 362 274 18 
189 11 32 81 141 207 261 108 449 446 277 233 330 
190 11 12 423 296 116 210 295 47 24 19 55 332 
191 11 395 4 31 394 456 174 291 132 678 59 66 
192 11 375 250 658 99 851 630 772 701 741 821 775 
193 11 165 223 301 101 711 36 50 219 677 719 155 
194 10 463 541 686 759 468 213 565 755 328 248 
195 11 765 457 687 829 811 635 144 444 617 255 823 
196 11 170 139 300 217 726 62 8 335 854 824 374 
197 11 724 644 664 426 774 803 266 742 834 524 511 
198 11 342 391 280 98 57 305 121 235 202 273 158 
199 11 585 689 566 501 397 529 747 11 820 6 454 
200 11 143 45 414 216 450 56 185 55 74 296 9 
201 11 150 23 22 224 607 249 831 262 285 44 37 
202 11 419 209 260 442 57 175 158 305 438 198 391 
203 11 85 263 602 580 439 523 232 472 700 347 28 
204 11 138 145 853 230 385 54 254 383 241 315 561 
205 11 412 288 168 105 447 52 140 242 3 319 538 
206 11 231 76 390 343 359 97 161 114 74 399 356 
207 11 32 81 189 251 330 108 208 277 446 418 141 
208 11 779 251 81 108 207 5 32 277 418 446 189 
209 11 419 202 442 175 260 57 158 438 18 305 274 
210 11 47 160 332 12 190 19 423 670 116 340 296 
211 11 218 456 595 27 292 31 546 365 271 612 174 
212 11 812 736 745 840 363 507 360 776 788 186 609 
213 11 328 248 759 685 755 135 463 104 715 46 452 
214 11 381 333 297 352 384 441 116 289 19 69 295 
215 11 157 394 291 134 63 449 110 127 233 26 395 
216 11 9 200 450 143 221 279 45 58 74 414 56 
217 11 300 824 854 668 196 335 536 177 268 863 374 
218 11 27 365 211 595 612 20 271 292 378 456 546 
219 11 719 530 223 193 165 711 173 36 825 301 514 
220 11 322 345 415 239 222 431 95 238 164 124 80 
221 11 279 58 9 238 35 216 450 164 95 97 359 
222 11 95 239 415 164 238 345 124 220 253 322 376 
223 11 193 165 301 36 101 711 50 219 719 155 677 
224 11 262 607 22 201 150 373 226 23 831 37 353 
225 11 28 392 592 285 125 162 232 555 508 68 229 
226 11 262 353 37 224 68 22 879 307 137 416 508 
227 11 86 244 53 437 573 336 671 861 546 348 725 
228 11 749 593 783 432 698 683 583 872 758 833 377 
229 11 182 286 416 508 304 125 100 879 68 576 281 
230 11 138 254 853 561 204 145 385 54 171 583 872 
231 11 206 76 390 359 97 343 74 399 161 24 114 
232 11 439 162 580 350 28 598 700 472 54 44 85 
233 11 261 141 449 189 134 157 446 26 108 32 81 
234 11 312 41 361 357 393 73 111 235 94 808 10 
235 11 10 273 98 280 342 198 361 391 41 234 312 
236 11 136 413 875 706 278 778 264 290 705 331 3 
237 11 402 326 771 321 109 400 325 7 289 496 63 
238 11 58 239 95 164 222 415 279 221 35 9 253 
239 11 415 222 95 164 238 220 345 322 124 253 58 
240 11 422 67 638 451 79 637 672 15 331 309 298 
241 11 385 315 383 145 785 801 739 853 579 503 120 
242 11 105 288 873 111 412 538 168 393 140 205 641 
243 11 344 21 119 117 425 382 149 5 726 62 287 
244 11 227 437 671 86 53 118 573 725 370 336 661 
245 11 486 874 881 756 807 545 39 506 420 740 581 
246 11 804 549 40 265 815 13 491 349 430 760 142 
247 11 71 376 354 310 253 124 399 35 164 95 222 
248 11 328 213 685 135 759 104 755 715 452 463 46 
249 11 317 400 23 44 325 201 321 150 496 598 7 
250 11 192 375 851 630 658 99 741 401 775 701 772 
251 11 418 207 208 779 32 81 184 330 108 374 189 
252 10 809 767 283 830 864 682 578 483 424 822 
253 11 376 164 124 354 95 35 247 310 222 239 71 
254 11 561 230 853 872 138 579 583 847 385 785 739 
255 11 617 364 470 811 829 533 482 515 738 781 490 
256 11 377 432 178 527 758 513 593 698 657 179 552 
257 11 723 835 176 627 167 786 645 574 65 709 807 
258 11 743 404 462 639 172 483 790 534 619 17 606 
259 11 129 730 434 120 88 612 801 365 271 147 453 
260 11 202 419 209 57 175 442 198 158 391 305 342 
261 11 141 233 189 446 108 277 449 81 32 207 134 
262 11 226 37 224 22 353 68 150 201 285 607 373 
263 11 85 203 602 523 347 705 264 706 290 472 469 
264 11 706 290 705 817 751 669 347 263 523 469 236 
265 11 815 349 13 40 371 491 804 246 142 760 160 
266 11 834 644 724 197 664 426 774 511 536 597 752 
267 11 647 676 553 871 868 665 481 587 510 774 369 
268 11 668 536 554 152 177 757 130 806 664 266 426 
269 11 396 362 526 115 49 294 557 181 737 166 274 
270 11 166 526 654 43 568 338 797 710 380 642 83 
271 11 378 365 595 147 27 612 129 795 218 292 453 
272 11 641 646 306 29 846 784 873 538 584 338 734 
273 11 10 235 280 98 435 198 342 391 57 361 305 
274 11 18 49 438 442 362 175 158 115 209 419 102 
275 11 503 626 731 492 733 844 488 739 680 478 624 
276 11 367 379 316 451 79 15 337 422 106 240 320 
277 11 108 446 81 5 141 208 117 189 32 261 207 
278 11 15 331 778 236 379 422 67 240 367 136 411 
279 11 221 58 238 9 35 216 164 95 239 450 222 
280 11 98 198 342 391 235 273 10 57 305 121 435 
281 11 576 702 562 433 286 358 304 877 100 814 709 
282 11 284 748 183 334 547 493 484 704 738 346 781 
283 11 809 864 682 767 126 483 660 252 424 619 172 
284 11 282 748 334 484 493 183 704 547 738 781 707 
285 11 22 150 37 28 162 225 201 262 232 68 44 
286 11 304 229 182 100 416 508 576 281 879 125 358 
287 11 327 169 425 71 310 243 344 247 119 124 376 
288 11 105 412 205 242 168 538 873 111 443 140 319 
289 11 297 831 607 23 214 400 333 352 373 381 771 
290 11 706 264 705 817 751 669 347 469 372 523 527 
291 11 394 215 63 110 157 174 134 191 395 109 31 
292 11 546 595 211 378 271 27 218 86 227 365 456 
293 11 764 479 859 690 154 444 696 876 567 845 818 
294 11 557 16 653 188 323 156 115 181 269 180 407 
295 11 441 116 77 384 190 381 19 24 12 214 333 
296 11 423 185 56 12 55 190 340 414 24 332 45 
297 11 352 831 289 373 607 214 381 333 69 151 23 
298 11 672 613 637 531 638 309 42 148 320 79 451 
299 11 386 620 650 777 735 625 473 61 584 341 734 
300 11 217 335 177 668 196 824 854 536 268 374 806 
301 11 101 193 165 223 36 50 711 677 72 155 219 
302 11 709 167 835 570 257 532 627 599 723 176 574 
303 11 83 75 159 94 43 102 121 305 808 526 158 
304 11 286 100 182 229 416 879 508 358 576 281 125 
305 11 121 102 158 391 342 159 198 438 57 98 202 
306 11 784 641 272 338 29 654 846 808 584 646 734 
307 11 575 137 789 142 760 421 96 879 353 358 100 
308 11 560 517 179 527 600 550 256 473 657 372 633 
309 11 637 187 638 531 298 672 555 613 240 67 558 
310 11 124 71 247 376 253 169 354 164 95 222 327 
311 11 84 34 512 313 796 866 91 440 368 590 518 
312 11 234 41 361 357 393 73 111 94 808 235 98 
313 11 512 34 311 866 84 796 856 368 518 715 91 
314 9 610 692 495 403 458 827 608 787 60 
315 11 383 241 791 145 385 801 643 120 785 853 204 
316 11 106 337 320 148 276 79 451 410 519 367 672 
317 11 325 496 7 249 321 400 44 598 23 204 402 
318 11 540 482 679 810 829 832 533 720 457 364 490 
319 11 721 443 875 543 413 14 78 136 412 372 538 
320 11 337 148 106 316 410 42 672 298 519 79 451 
321 11 325 400 7 317 496 402 249 237 23 289 831 
322 11 345 220 431 415 239 222 95 80 408 124 164 
323 11 653 557 180 16 181 156 294 407 534 428 404 
324 10 728 594 744 667 816 712 717 675 465 489 
325 11 321 7 317 400 496 249 402 237 23 44 289 
326 11 771 237 402 109 127 63 289 110 321 427 333 
327 11 169 287 310 71 425 408 80 124 247 376 253 
328 11 248 213 685 755 759 104 715 135 452 46 463 
329 11 552 828 460 758 657 603 520 550 600 850 691 
330 11 207 32 251 81 395 4 418 189 449 208 108 
331 11 278 67 422 15 240 236 638 451 379 79 705 
332 11 670 340 423 210 113 160 12 190 296 185 47 
333 11 214 381 384 427 441 297 289 77 295 352 116 
334 11 748 493 484 704 284 282 738 781 475 470 707 
335 11 374 177 184 806 300 779 217 418 163 398 668 
336 11 861 348 53 573 454 86 227 501 763 725 244 
337 11 320 148 106 316 410 519 42 672 79 298 451 
338 11 654 784 29 846 734 568 306 497 584 710 735 
339 11 559 862 788 629 572 819 128 405 363 507 773 
340 11 332 670 423 185 296 113 12 210 190 160 414 
341 11 61 618 625 497 735 620 713 471 722 734 485 
342 11 391 198 98 280 305 57 121 235 102 273 158 
343 11 161 390 76 206 231 114 26 427 127 77 359 
344 11 119 149 243 769 133 117 425 356 21 71 247 
345 11 322 220 415 239 222 431 95 124 80 164 408 
346 11 504 547 684 601 515 614 490 183 533 695 364 
347 11 523 469 669 602 729 751 263 817 85 472 705 
348 11 861 336 454 53 573 501 86 227 763 725 244 
349 11 815 13 265 371 40 160 491 142 804 246 760 
350 11 54 439 580 598 232 700 472 162 44 602 729 
351 11 477 880 867 766 659 826 878 487 499 849 615 
352 11 297 373 69 151 214 381 607 666 831 19 289 
353 11 226 262 307 37 142 666 137 68 224 879 575 
354 11 376 247 399 253 35 71 310 164 124 97 359 
355 11 727 768 782 648 776 819 537 773 502 652 674 
356 11 133 114 149 769 399 26 76 119 359 97 344 
357 11 73 393 41 312 808 234 111 361 94 242 641 
358 11 702 814 100 96 421 137 281 304 436 286 879 
359 11 97 231 399 206 76 35 390 354 356 343 221 
360 11 186 837 745 736 839 609 812 212 747 507 840 
361 11 41 312 94 234 235 357 98 73 393 342 808 
362 11 49 396 269 274 18 115 438 526 158 75 102 
363 11 788 840 776 507 768 812 212 572 736 339 559 
364 11 533 617 482 255 829 490 515 318 540 614 470 
365 11 612 27 218 271 595 20 129 259 378 211 120 
366 11 528 154 780 567 30 859 293 518 856 529 368 
367 11 276 379 15 451 79 316 422 240 278 67 411 
368 11 518 866 512 34 856 313 311 528 84 366 91 
369 11 498 481 587 676 868 267 882 38 405 647 871 
370 11 118 681 661 671 551 843 596 92 569 795 437 
371 11 349 815 13 265 666 160 40 142 151 69 491 
372 11 413 560 517 14 308 78 817 543 721 290 527 
373 11 607 352 151 297 831 224 666 69 23 262 201 
374 11 184 335 418 806 779 163 177 251 398 208 300 
375 11 192 658 99 250 851 630 772 701 821 741 775 
376 11 253 354 247 124 164 310 35 71 95 222 399 
377 11 513 178 698 432 256 593 749 583 758 228 527 
378 11 271 147 595 795 292 546 453 365 27 129 370 
379 11 367 15 276 411 278 107 422 451 79 778 51 
380 10 628 485 642 710 568 497 714 341 448 618 
381 11 214 333 352 441 116 384 19 297 295 69 47 
382 11 8 62 726 139 170 21 243 5 117 196 425 
383 11 315 241 145 385 791 853 204 785 801 496 643 
384 11 77 333 441 427 295 381 214 116 19 24 297 
385 11 145 853 241 383 785 315 204 739 138 254 230 
386 11 299 620 584 735 646 650 777 734 625 846 473 
387 7 514 790 719 530 639 703 219 
388 10 860 539 652 38 502 605 773 882 819 727 
389 11 611 459 799 746 524 839 128 848 742 186 837 
390 11 76 206 343 231 161 359 97 77 114 427 26 
391 11 342 198 98 305 280 121 57 102 158 159 235 
392 11 592 555 225 187 93 802 877 28 125 309 433 
393 11 357 73 41 111 312 808 234 242 361 873 641 
394 11 291 215 157 134 191 395 449 63 174 110 4 
395 11 4 191 330 449 394 678 207 32 189 251 418 
396 11 526 269 362 43 49 75 83 159 166 270 102 
397 11 11 445 6 820 757 566 848 662 199 747 585 
398 11 163 806 130 177 554 184 152 374 662 678 418 
399 11 354 359 97 35 356 376 247 253 231 149 76 
400 11 321 325 249 317 23 7 402 496 289 237 831 
401 9 775 741 630 851 250 548 599 192 375 
402 11 237 321 326 771 400 325 109 7 496 317 289 
403 8 692 787 60 693 458 610 608 314 
404 11 743 258 534 462 639 17 790 483 131 172 180 
405 11 629 862 38 587 773 819 652 339 559 553 665 
406 11 429 453 88 795 843 25 623 147 589 434 582 
407 11 428 156 2 530 16 653 323 180 719 711 33 
408 11 80 431 345 322 169 124 310 220 327 222 415 
409 11 750 122 494 588 153 516 474 577 858 842 535 
410 11 519 106 148 337 699 591 320 563 42 316 103 
411 11 107 51 87 778 379 3 52 278 15 367 447 
412 11 288 105 205 242 168 538 873 319 443 52 721 
413 11 721 136 875 372 319 236 14 543 443 78 706 
414 11 45 185 143 56 200 296 55 450 340 423 74 
415 11 239 222 95 220 345 164 238 322 124 253 58 
416 11 508 182 229 304 68 286 879 125 100 137 358 
417 11 480 841 737 797 131 17 166 483 767 534 181 
418 11 251 184 779 374 163 330 208 207 32 81 335 
419 11 202 209 260 442 175 57 158 438 305 18 198 
420 11 881 756 486 245 525 545 563 874 146 506 807 
421 11 96 436 814 358 789 575 137 702 307 100 879 
422 11 67 240 451 79 638 15 331 278 637 672 309 
423 11 12 296 190 340 332 210 185 670 55 56 47 
424 10 660 578 682 673 656 126 283 522 809 805 
425 11 287 243 344 327 169 119 382 21 71 117 8 
426 11 664 724 197 524 644 848 266 803 742 757 834 
427 11 384 77 333 127 441 295 214 161 343 381 390 
428 11 2 407 711 33 530 123 156 165 193 719 223 
429 11 25 406 88 623 522 805 434 673 453 467 813 
430 11 491 760 761 789 640 142 575 307 246 421 265 
431 11 322 345 80 408 220 415 239 222 124 95 164 
432 11 593 377 698 749 256 758 513 228 178 552 583 
433 11 877 802 576 562 281 93 556 286 786 645 229 
434 11 88 730 129 259 453 429 147 406 795 844 120 
435 11 273 10 280 57 235 198 98 342 260 391 202 
436 11 814 96 421 358 702 789 575 709 137 281 761 
437 11 244 671 694 118 227 661 725 370 86 53 573 
438 11 158 18 49 442 102 274 121 305 209 202 419 
439 11 580 232 350 700 472 162 85 54 602 28 203 
440 11 155 796 50 36 173 825 84 311 223 101 34 
441 11 295 116 384 77 381 214 333 19 190 47 24 
442 11 209 175 419 202 18 438 158 274 260 305 49 
443 11 543 319 14 78 721 538 105 413 873 412 372 
444 11 687 845 635 876 765 144 764 479 195 293 696 
445 11 11 757 397 848 6 426 664 152 820 524 554 
446 11 277 108 141 261 189 81 32 117 207 208 5 
447 11 52 205 87 3 51 168 107 412 288 411 778 
448 10 471 714 521 618 822 64 713 722 708 61 
449 11 189 134 233 157 32 141 330 261 207 81 395 
450 11 74 56 216 200 55 143 45 414 24 221 279 
451 11 79 240 422 638 67 672 316 320 367 15 298 
452 11 818 715 104 755 685 46 651 479 567 328 876 
453 11 795 147 406 88 434 129 843 378 681 271 370 
454 11 501 348 861 336 573 53 763 86 199 566 725 
455 11 66 59 678 132 566 820 662 6 501 454 348 
456 11 31 211 132 59 191 218 174 292 595 546 27 
457 11 195 765 829 318 679 823 540 482 635 810 617 
458 11 608 787 692 857 655 403 60 516 577 610 314 
459 11 799 746 128 611 389 572 510 839 742 524 559 
460 11 520 329 552 828 691 850 603 758 657 783 70 
461 11 697 112 615 542 606 90 499 878 621 867 813 
462 11 172 258 619 639 606 743 790 126 404 483 542 
463 10 759 541 194 686 213 565 755 328 46 248 
464 9 489 649 586 581 712 740 728 506 146 
465 11 509 535 675 852 865 594 744 153 324 667 717 
466 11 869 604 474 494 122 663 409 762 82 509 588 
467 11 813 621 90 582 623 499 656 461 697 589 766 
468 11 688 194 135 463 759 213 248 622 541 328 686 
469 11 669 347 751 523 178 729 513 171 377 817 698 
470 10 738 781 255 475 617 811 704 364 798 829 
471 10 618 448 713 722 521 61 625 341 708 64 
472 11 700 602 729 580 439 54 350 523 85 347 232 
473 10 777 650 633 179 600 550 657 299 603 625 
474 11 494 869 122 466 409 588 750 153 48 476 762 
475 9 781 738 470 704 798 811 255 493 484 
476 11 48 571 842 858 762 588 838 754 474 577 409 
477 11 659 351 487 880 867 766 826 849 878 732 92 
478 8 680 733 488 636 616 626 731 275 
479 11 293 764 859 444 876 154 690 818 845 567 635 
480 11 417 737 131 841 797 17 166 534 483 181 767 
481 11 676 868 647 369 267 871 587 553 498 665 405 
482 11 533 318 540 364 490 829 614 515 617 679 255 
483 11 17 864 767 172 283 809 841 619 258 462 743 
484 10 493 334 704 748 781 738 475 707 284 470 
485 10 628 380 710 568 497 642 341 618 448 714 
486 11 245 881 756 874 545 420 807 39 506 740 525 
487 10 659 477 732 826 351 770 632 89 867 878 
488 9 680 733 731 626 478 805 844 492 275 
489 9 464 712 649 586 728 581 740 816 324 
490 11 533 515 614 482 364 601 540 318 684 617 829 
491 11 760 142 430 265 815 40 349 246 804 307 575 
492 11 844 626 731 275 733 503 488 680 478 739 730 
493 10 484 334 704 748 781 738 475 470 707 284 
494 11 122 474 409 869 750 153 588 466 48 516 535 
495 6 827 610 701 314 692 403 
496 11 7 325 317 321 400 249 383 791 402 204 145 
497 11 710 734 341 735 568 620 485 584 61 338 846 
498 11 369 882 481 388 539 38 587 860 676 405 868 
499 11 582 90 766 813 621 867 880 461 467 615 112 
500 11 823 565 810 679 832 651 144 46 635 720 457 
501 11 454 348 861 336 566 199 573 585 53 763 455 
502 10 860 388 539 652 727 648 605 773 38 707 
503 10 275 739 492 626 731 785 579 624 844 733 
504 11 601 346 684 614 515 490 695 547 533 482 364 
505 9 836 800 103 663 82 753 604 544 865 
506 11 581 740 146 586 874 649 39 525 756 245 881 
507 11 840 572 363 788 812 736 745 212 839 837 559 
508 11 416 182 229 125 68 304 286 879 100 137 576 
509 10 465 865 852 800 153 535 869 494 122 675 
510 11 665 553 746 128 742 459 799 803 267 862 587 
511 11 774 597 871 644 752 647 868 834 197 676 267 
512 11 34 313 311 84 866 796 368 91 518 856 440 
513 11 377 698 178 432 583 593 256 749 171 228 469 
514 8 387 530 719 790 219 639 703 404 
515 11 490 533 614 684 364 482 601 617 255 504 829 
516 11 577 655 750 857 409 588 858 60 838 122 153 
517 11 560 308 527 179 256 372 817 600 550 657 751 
518 11 368 866 512 856 34 528 313 366 311 694 725 
519 11 410 106 337 148 699 591 320 103 316 563 42 
520 10 850 460 691 603 329 70 828 552 792 708 
521 11 708 471 64 70 722 448 713 850 618 691 792 
522 9 805 673 25 578 429 424 488 680 623 
523 11 347 602 469 729 669 263 85 472 751 700 705 
524 11 742 803 389 848 426 611 197 459 724 799 746 
525 11 146 756 881 506 581 740 245 420 544 486 716 
526 11 396 43 270 269 75 166 83 362 303 49 159 
527 11 256 517 178 817 560 308 751 377 669 513 179 
528 11 366 154 567 859 780 856 30 293 518 479 368 
529 11 689 609 30 585 780 747 199 360 745 186 736 
530 11 719 219 514 387 407 711 428 165 193 223 2 
531 11 558 187 613 309 637 298 556 93 672 65 638 
532 4 599 570 302 548 
533 11 482 490 364 515 614 829 318 540 617 255 601 
534 11 404 743 131 258 180 17 181 841 483 480 737 
535 11 675 153 465 717 667 750 409 122 594 509 60 
536 11 668 268 266 834 664 554 152 757 824 177 426 
537 9 634 674 782 794 355 648 798 768 776 
538 11 873 105 443 288 242 412 272 543 641 646 319 
539 10 388 860 605 502 652 882 38 773 498 819 
540 11 318 482 679 720 810 832 533 829 490 364 614 
541 10 686 463 194 565 759 720 832 500 810 679 
542 10 112 615 606 461 631 697 703 878 867 826 
543 11 14 78 443 721 319 372 413 538 646 386 560 
544 9 753 716 793 525 852 865 146 649 800 
545 11 486 807 65 245 574 874 39 627 881 723 420 
546 11 292 595 378 86 227 211 244 271 53 27 218 
547 11 346 684 183 504 515 601 282 748 490 738 614 
548 8 599 401 741 775 532 302 761 640 
549 11 246 804 40 265 491 13 815 430 349 113 760 
550 10 657 600 828 179 603 633 329 552 758 460 
551 11 596 92 569 661 681 843 118 370 849 589 671 
552 11 329 828 758 460 657 550 603 520 600 432 783 
553 11 665 510 267 587 862 647 128 629 746 405 676 
554 11 152 130 268 177 806 668 757 398 536 662 445 
555 11 187 392 309 592 93 637 531 225 638 802 556 
556 11 558 645 93 786 802 176 877 65 433 562 723 
557 11 653 323 294 16 156 181 180 407 188 269 534 
558 11 556 65 531 645 786 176 93 545 723 613 187 
559 11 339 862 788 572 128 629 507 363 746 405 819 
560 11 517 308 179 527 372 600 256 817 550 657 473 
561 11 254 583 872 230 749 171 228 698 593 783 513 
562 11 433 576 281 877 802 786 645 702 709 167 556 
563 11 591 699 42 420 756 881 525 148 753 486 410 
564 11 870 838 857 842 858 608 655 577 48 458 754 
565 10 500 823 46 651 810 832 679 720 144 818 
566 11 820 6 199 662 397 501 585 11 455 454 689 
567 11 154 528 859 366 293 856 479 452 764 715 104 
568 11 710 497 485 654 380 338 628 734 341 784 735 
569 11 92 849 551 596 843 589 766 880 477 681 351 
570 5 532 599 302 627 39 
571 11 476 762 48 754 842 858 588 838 474 409 494 
572 11 507 799 128 459 839 788 559 746 840 611 339 
573 11 336 53 861 348 725 763 86 227 454 244 437 
574 11 807 627 39 874 545 723 257 835 176 245 65 
575 11 307 789 421 96 137 760 142 436 358 879 814 
576 11 281 433 562 877 286 802 702 304 229 100 182 
577 11 516 655 857 588 838 858 842 750 409 48 122 
578 9 424 673 830 660 682 522 805 283 809 
579 10 739 785 847 624 503 872 254 275 833 385 
580 11 439 232 700 350 472 162 85 602 54 203 28 
581 11 740 506 586 146 649 464 874 39 525 489 245 
582 11 499 813 467 90 589 621 766 623 880 849 867 
583 11 698 171 749 513 593 561 228 377 432 178 783 
584 11 734 846 620 735 29 386 784 646 497 299 338 
585 11 199 689 529 747 566 501 30 609 397 11 454 
586 10 649 581 464 740 506 489 146 874 39 525 
587 11 405 553 629 267 481 369 665 676 862 38 647 
588 11 858 409 842 48 122 577 750 494 516 838 474 
589 11 849 766 880 582 569 92 843 499 351 813 623 
590 9 632 825 89 173 770 91 732 718 487 
591 10 699 563 753 410 42 544 836 103 420 519 
592 11 392 93 802 225 555 877 125 187 433 229 182 
593 11 432 749 228 698 377 513 583 758 256 783 178 
594 10 324 667 744 728 717 675 816 465 712 535 
595 11 292 27 271 218 378 546 211 365 612 147 456 
596 11 551 92 569 661 849 681 843 118 477 659 370 
597 11 511 752 774 644 834 871 266 863 647 868 197 
598 11 44 350 54 162 232 439 580 249 317 700 204 
599 5 532 548 570 302 401 
600 10 550 657 179 633 828 603 329 552 758 473 
601 11 504 614 684 490 515 346 533 695 482 364 547 
602 11 523 347 472 85 700 729 263 469 580 203 439 
603 10 828 633 550 657 329 520 460 552 600 850 
604 10 663 466 82 869 800 474 494 509 122 505 
605 10 539 388 860 502 882 707 652 38 648 773 
606 11 697 542 461 112 619 462 615 172 126 639 656 
607 11 831 373 224 23 297 201 352 150 289 22 151 
608 11 458 787 857 655 692 60 577 403 516 838 564 
609 11 360 529 745 747 736 186 837 212 812 839 689 
610 9 314 692 403 495 827 458 787 608 693 
611 11 389 459 799 839 746 128 186 837 572 524 848 
612 11 365 27 218 20 271 259 129 120 595 378 730 
613 11 298 531 42 672 637 558 309 420 148 65 563 
614 11 490 533 515 601 482 504 364 540 318 684 695 
615 11 112 878 542 461 867 499 826 697 631 606 351 
616 11 64 636 708 792 478 70 521 691 850 448 822 
617 11 255 364 829 470 533 482 811 515 490 457 195 
618 11 471 61 713 341 722 625 448 521 485 497 650 
619 11 172 126 462 606 864 697 682 656 483 283 258 
620 11 735 584 734 299 386 341 497 61 625 846 29 
621 11 90 467 813 499 582 461 623 656 697 112 615 
622 11 72 50 101 301 677 688 155 36 193 223 165 
623 11 467 813 582 25 621 90 429 589 499 673 406 
624 10 847 833 579 872 683 739 503 783 275 792 
625 11 61 713 722 341 618 650 777 471 299 620 735 
626 11 731 733 275 492 844 488 680 503 478 805 624 
627 11 257 574 723 835 176 167 807 39 545 645 65 
628 10 380 485 642 710 568 714 822 448 497 341 
629 11 405 862 819 587 773 38 339 559 652 553 665 
630 10 851 250 775 401 192 375 741 658 701 99 
631 7 703 542 615 112 878 826 790 
632 8 732 487 770 89 590 659 826 718 
633 10 603 473 550 600 657 777 650 179 828 329 
634 9 537 674 794 798 782 845 355 648 687 
635 11 144 876 765 444 823 651 195 457 500 818 46 
636 9 616 478 830 64 822 680 714 488 708 
637 11 309 638 672 298 531 187 613 240 555 67 79 
638 11 637 240 309 672 67 422 79 298 451 531 187 
639 9 790 462 258 703 631 606 542 172 743 
640 10 761 741 772 548 430 250 401 775 851 192 
641 11 272 306 873 646 29 784 846 538 808 338 584 
642 10 380 628 485 710 714 568 822 797 252 448 
643 11 791 855 20 315 383 7 496 120 109 241 402 
644 11 197 834 266 724 774 511 664 426 597 803 742 
645 11 786 176 723 257 835 65 167 556 627 562 558 
646 11 846 29 584 386 272 620 734 735 784 299 641 
647 11 871 267 676 868 481 553 774 665 587 511 510 
648 9 782 707 502 355 674 727 537 652 860 
649 10 464 586 581 489 146 506 740 716 712 728 
650 10 777 473 625 633 299 713 722 61 603 600 
651 11 46 818 144 876 500 823 565 635 755 452 810 
652 11 773 38 819 860 727 388 405 502 539 629 355 
653 11 323 557 16 156 180 294 181 407 428 534 2 
654 11 338 784 568 29 734 846 497 710 306 584 735 
655 11 857 577 516 608 787 458 838 60 858 750 842 
656 11 660 126 621 697 424 682 90 467 813 461 606 
657 10 550 600 828 329 552 603 758 179 633 460 
658 11 99 375 192 250 851 701 630 772 821 741 775 
659 11 477 487 351 732 826 770 867 880 766 89 632 
660 11 424 656 682 126 673 578 283 619 621 809 864 
661 11 118 551 370 596 671 681 92 437 569 694 843 
662 11 6 820 130 566 152 397 554 11 398 455 445 
663 9 82 604 466 800 505 869 836 474 509 
664 11 426 724 197 266 644 834 524 803 757 742 848 
665 11 553 510 267 128 587 746 862 742 647 803 459 
666 11 151 69 371 373 352 353 349 47 226 19 607 
667 10 717 594 675 324 816 535 728 744 693 465 
668 11 536 268 177 554 152 300 217 824 266 757 130 
669 11 751 469 347 817 178 523 527 513 377 290 729 
670 11 332 340 113 423 210 160 12 185 296 190 13 
671 11 118 437 370 661 244 681 227 694 551 596 86 
672 11 298 637 638 613 309 79 451 320 531 42 148 
673 11 424 522 660 578 25 805 656 623 467 682 621 
674 9 537 634 782 648 794 355 798 707 475 
675 11 717 667 535 594 465 324 153 744 728 693 60 
676 11 868 481 647 267 871 587 369 553 665 511 774 
677 11 72 301 101 165 711 193 223 36 622 2 123 
678 11 66 4 455 59 163 132 398 662 395 191 130 
679 11 810 832 318 540 720 823 500 457 482 829 565 
680 9 488 733 478 626 731 805 844 492 275 
681 11 370 551 118 843 661 92 569 596 671 849 795 
682 11 283 660 126 424 809 864 656 619 767 578 172 
683 10 833 783 872 228 847 460 624 749 520 691 
684 11 515 504 346 601 490 547 614 533 364 482 617 
685 11 328 104 248 715 755 213 452 759 135 856 818 
686 10 541 463 194 720 565 832 810 500 679 695 
687 11 444 765 195 845 794 798 811 635 457 144 876 
688 11 468 135 622 213 248 72 155 194 759 328 50 
689 11 585 199 529 747 609 30 360 566 397 11 186 
690 11 696 859 764 845 293 479 780 444 154 687 212 
691 11 850 70 520 792 460 708 603 329 828 521 552 
692 10 403 458 610 787 608 314 60 693 655 857 
693 6 403 60 717 667 675 787 
694 11 437 661 671 118 725 244 596 551 718 370 91 
695 11 601 614 504 720 490 540 318 482 533 515 832 
696 11 690 845 764 859 293 444 479 687 794 634 780 
697 11 461 606 112 542 90 615 656 621 499 619 126 
698 11 513 377 593 583 432 749 178 228 171 256 758 
699 10 591 563 753 410 103 836 42 519 544 420 
700 11 472 580 602 439 729 54 350 523 85 232 347 
701 8 495 827 658 630 192 375 851 99 
702 11 281 358 814 576 436 562 100 709 286 304 96 
703 7 631 542 790 639 112 615 606 
704 9 493 781 738 484 475 334 748 470 255 
705 11 264 706 290 263 751 817 347 523 669 469 236 
706 11 264 290 705 817 751 669 347 236 372 263 523 
707 9 648 782 502 674 605 484 727 355 493 
708 11 70 792 521 64 691 850 616 520 448 722 471 
709 11 302 167 835 257 702 562 814 786 281 723 176 
710 10 568 485 497 380 628 341 734 654 338 642 
711 11 165 193 223 301 428 101 2 677 219 530 719 
712 7 816 489 728 324 464 744 594 
713 10 722 625 61 618 471 521 650 341 777 448 
714 10 822 448 64 628 471 485 521 636 618 380 
715 11 104 685 452 856 328 248 755 567 213 866 818 
716 10 793 544 852 753 865 146 649 525 464 586 
717 9 667 675 594 535 324 693 816 744 465 
718 11 89 770 732 91 632 487 590 659 477 596 694 
719 11 530 219 514 387 223 165 193 711 428 173 407 
720 10 832 810 679 540 318 482 500 823 565 533 
721 11 319 413 875 443 543 14 78 136 372 3 538 
722 10 713 471 625 61 618 521 650 777 341 633 
723 11 257 176 835 627 645 786 167 574 65 545 807 
724 11 197 664 426 644 266 834 524 803 742 774 511 
725 11 763 573 53 437 336 244 227 694 86 861 348 
726 11 62 8 139 382 170 21 5 196 117 779 208 
727 11 819 773 355 652 502 38 648 860 782 388 405 
728 10 324 744 594 712 816 667 464 489 717 675 
729 11 523 171 469 347 472 602 700 669 513 583 178 
730 11 434 259 129 88 120 801 844 429 492 453 147 
731 11 626 733 492 275 844 488 680 503 478 805 624 
732 11 770 89 487 718 632 659 477 590 826 91 351 
733 9 488 680 626 731 492 844 478 275 805 
734 11 584 735 620 846 497 29 784 338 341 654 568 
735 11 620 734 584 497 341 299 386 846 61 625 29 
736 11 745 812 212 840 360 507 837 186 839 363 572 
737 11 480 417 131 841 797 181 166 17 534 483 743 
738 11 781 470 475 704 255 493 617 484 811 334 748 
739 10 785 579 503 624 847 275 385 241 254 872 
740 11 581 506 586 874 146 39 649 245 464 807 756 
741 10 401 775 851 250 630 548 640 192 375 658 
742 11 803 524 510 746 197 389 459 665 799 128 553 
743 11 404 258 534 462 17 639 483 131 172 790 619 
744 11 728 324 594 667 465 712 852 816 675 717 865 
745 11 736 812 360 212 837 840 186 507 839 572 363 
746 11 128 459 799 510 611 389 572 665 742 559 553 
747 11 186 360 609 837 839 689 745 611 736 848 389 
748 11 334 493 484 704 282 284 738 781 475 547 470 
749 11 228 593 432 698 583 783 377 513 758 561 683 
750 11 409 122 153 516 494 588 577 474 535 655 858 
751 11 669 817 469 290 527 347 178 264 706 523 705 
752 11 597 863 511 774 834 644 266 871 854 824 868 
753 9 544 716 793 525 852 865 146 505 591 
754 11 571 476 762 48 870 842 838 858 564 588 577 
755 11 328 46 685 759 213 452 818 651 248 104 715 
756 11 881 245 525 486 420 146 506 874 740 581 807 
757 11 445 426 11 152 664 397 554 848 268 724 536 
758 11 552 329 828 657 432 550 256 460 593 600 603 
759 10 213 463 328 755 248 685 46 541 194 565 
760 11 142 491 430 307 575 789 265 349 421 761 815 
761 10 640 789 430 548 741 436 421 96 575 814 
762 11 571 476 48 754 474 842 858 588 466 838 869 
763 11 725 573 336 53 348 454 861 86 437 501 227 
764 11 293 479 859 690 444 696 845 876 154 567 635 
765 11 195 457 687 635 444 144 811 829 823 876 617 
766 11 880 589 849 351 499 582 867 477 569 92 878 
767 11 809 864 283 483 252 17 682 172 841 126 619 
768 11 776 363 788 355 840 339 507 727 559 812 212 
769 11 133 149 356 119 114 26 344 233 261 141 446 
770 11 732 89 718 487 632 659 477 91 590 826 351 
771 11 326 237 402 127 109 63 289 427 333 110 321 
772 11 821 99 375 192 658 250 640 741 851 630 401 
773 11 652 819 38 727 405 629 860 388 502 862 339 
774 11 511 644 871 197 597 647 834 267 724 803 868 
775 9 401 630 851 741 250 548 599 192 375 
776 11 768 363 788 840 507 355 212 812 339 559 736 
777 10 650 473 633 299 625 722 713 61 600 603 
778 11 107 3 87 411 51 136 278 52 236 875 379 
779 11 208 251 418 184 374 5 81 207 335 32 108 
780 11 859 366 30 154 528 529 690 696 567 609 293 
781 10 738 475 470 704 255 493 484 617 811 334 
782 8 648 674 355 537 707 727 502 634 
783 11 683 833 228 872 749 460 593 329 552 520 432 
784 11 29 338 846 654 734 306 584 497 735 272 568 
785 11 739 579 503 385 241 853 847 275 624 254 145 
786 11 645 176 723 257 835 167 556 65 562 627 558 
787 11 458 608 60 403 692 655 857 516 577 693 610 
788 11 363 507 840 776 339 559 768 572 812 736 212 
789 11 575 421 96 307 761 436 430 760 137 814 142 
790 8 639 703 631 387 462 258 542 514 
791 11 643 315 383 855 241 20 120 7 496 801 145 
792 11 70 708 691 850 64 520 616 521 460 833 683 
793 9 716 852 865 544 753 744 649 146 465 
794 9 798 634 537 687 674 811 845 195 444 
795 11 453 147 406 378 681 88 271 370 843 129 434 
796 11 311 84 313 34 440 512 155 866 135 50 91 
797 11 166 417 480 737 841 131 642 17 252 270 767 
798 9 794 811 687 634 475 470 537 674 195 
799 11 459 746 128 611 389 572 510 839 742 524 559 
800 9 509 604 865 505 663 852 466 82 869 
801 11 120 259 730 241 315 492 129 503 785 434 844 
802 11 877 433 93 576 562 556 281 592 786 286 645 
803 11 742 524 510 197 665 746 389 459 724 799 128 
804 11 246 40 549 265 13 815 491 349 430 760 113 
805 9 522 673 488 578 680 25 733 429 424 
806 11 398 177 130 163 374 554 184 335 152 268 418 
807 11 39 874 574 245 545 486 627 740 506 581 881 
808 11 73 357 306 393 94 641 41 272 303 83 361 
809 11 283 767 864 682 252 483 126 424 660 172 619 
810 11 679 832 720 318 500 823 540 565 457 482 829 
811 10 798 255 470 617 195 687 765 794 829 475 
812 11 736 212 745 840 507 363 360 788 837 186 572 
813 11 467 621 90 582 499 623 461 656 697 589 766 
814 11 436 702 358 96 421 281 709 100 137 302 576 
815 11 349 13 265 40 371 160 491 804 246 142 760 
816 7 712 324 594 728 667 717 744 
817 11 751 669 290 527 706 264 517 469 178 560 705 
818 11 46 651 876 452 144 635 755 479 500 823 565 
819 11 773 652 727 38 629 405 339 862 355 559 860 
820 11 6 662 566 397 11 445 455 199 130 152 757 
821 11 772 99 375 658 192 250 640 851 741 630 701 
822 10 714 448 636 64 628 471 521 616 830 485 
823 11 500 679 810 144 565 832 635 651 457 46 876 
824 11 854 863 217 536 668 834 266 752 300 597 644 
825 9 173 590 219 440 632 719 155 36 223 
826 9 878 867 351 487 615 477 659 112 631 
827 5 495 610 701 403 314 
828 11 329 552 657 550 603 460 758 600 520 633 850 
829 11 364 457 482 617 318 533 255 540 195 765 490 
830 9 578 636 252 424 822 809 283 682 680 
831 11 607 23 297 289 373 201 224 352 400 249 150 
832 10 810 679 720 318 540 500 823 565 482 457 
833 10 683 783 872 847 624 228 460 792 520 691 
834 11 266 644 724 197 664 774 511 597 426 752 536 
835 11 257 167 723 176 627 786 645 574 709 302 65 
836 9 505 103 800 753 663 82 699 544 591 
837 11 186 839 360 745 736 611 507 572 812 389 747 
838 11 842 858 48 577 588 476 857 655 516 571 409 
839 11 186 837 611 360 572 389 745 507 736 799 459 
840 11 507 812 363 736 788 212 745 572 776 768 360 
841 11 17 131 417 480 483 737 767 797 534 864 743 
842 11 858 838 48 588 476 577 571 516 857 409 655 
843 11 92 569 849 589 681 551 596 406 766 370 880 
844 11 492 731 626 733 275 488 680 503 805 730 522 
845 11 696 444 687 690 794 764 293 479 634 798 765 
846 11 29 584 784 734 338 646 735 620 497 654 386 
847 10 624 872 833 579 683 783 739 228 785 254 
848 11 524 389 611 426 445 742 803 664 11 459 757 
849 11 589 569 92 766 880 843 351 477 582 596 551 
850 10 691 520 70 460 708 792 603 329 828 521 
851 10 630 250 775 401 192 741 375 658 99 701 
852 10 865 793 716 465 509 744 544 728 324 594 
853 11 145 385 230 138 204 254 785 241 561 579 383 
854 11 824 863 217 752 834 536 266 668 300 597 644 
855 11 643 20 791 109 110 174 218 612 27 365 120 
856 11 715 866 104 567 452 685 313 528 368 154 518 
857 11 655 577 516 608 458 838 787 842 858 60 588 
858 11 842 838 48 588 476 577 516 571 409 655 857 
859 11 154 293 764 479 690 780 567 696 528 366 845 
860 10 388 539 652 502 38 773 605 727 819 882 
861 11 348 336 53 454 573 86 501 227 763 725 244 
862 11 629 339 559 405 128 553 665 819 510 587 746 
863 11 752 854 824 597 834 511 266 644 774 536 197 
864 11 283 767 809 483 682 172 126 619 17 462 660 
865 10 852 793 509 465 716 744 800 544 728 324 
866 11 313 512 856 34 368 518 311 84 715 104 796 
867 11 878 351 615 826 112 499 880 477 766 461 659 
868 11 676 647 871 481 267 369 511 587 553 774 665 
869 11 466 474 494 122 604 409 153 509 588 750 48 
870 11 564 754 838 842 858 48 476 571 857 577 655 
871 11 647 868 676 267 481 511 774 553 665 597 587 
872 10 683 847 833 783 228 624 561 749 579 254 
873 11 538 242 105 641 272 288 412 443 646 111 393 
874 11 39 807 245 486 506 740 581 881 574 756 545 
875 11 136 413 721 319 3 236 52 778 443 372 543 
876 11 144 635 651 818 444 46 479 823 765 500 764 
877 11 802 433 576 562 93 281 556 286 786 645 229 
878 11 615 867 112 826 542 351 461 499 631 880 477 
879 11 100 137 304 416 508 182 286 229 68 358 125 
880 11 766 351 849 589 499 867 477 582 569 92 659 
881 11 756 245 486 420 525 874 506 146 740 581 545 
882 11 498 539 388 605 860 369 38 652 502 773 587 
DEPOT_SECTION
   1
   -1
EOF
