NAME :  X-n979-kX-w391-c11.cctp
COMMENT : 	Adapted by Maziero, Usberti and Cavellucci from the Uchoa, Pecin, Pessoa, Poggi, Subramanian, and Vidal (2013)
TYPE :  CCTP
DIMENSION :    968
EDGE_WEIGHT_TYPE : 	EUC_2D	
CAPACITY : 	998
VERTICES_WITHIN_COVERAGE :  11
VERTICES_WITH_DEMAND : 	391
NODE_COORD_SECTION
1 0 0
2 236 951
3 735 289
4 841 735
5 846 821
6 907 810
7 55 136
8 699 326
9 731 899
10 739 753
11 807 828
12 775 783
13 891 689
14 62 93
15 780 220
16 799 739
17 661 348
18 865 688
19 12 4
20 829 827
21 845 896
22 136 243
23 878 584
24 908 794
25 820 771
26 895 788
27 747 915
28 860 746
29 829 754
30 94 149
31 940 847
32 884 747
33 226 904
34 738 802
35 194 98
36 789 744
37 929 895
38 864 696
39 84 161
40 764 615
41 283 937
42 776 807
43 877 427
44 828 266
45 297 994
46 665 900
47 15 93
48 100 956
49 850 790
50 854 794
51 898 679
52 948 888
53 731 282
54 60 87
55 826 362
56 716 264
57 885 814
58 932 825
59 308 926
60 225 130
61 853 861
62 794 753
63 771 729
64 264 853
65 780 693
66 837 723
67 895 849
68 746 715
69 736 862
70 734 730
71 616 228
72 7 80
73 93 860
74 860 765
75 877 734
76 819 798
77 706 922
78 861 714
79 710 149
80 268 903
81 783 808
82 811 865
83 231 950
84 929 771
85 717 857
86 767 755
87 250 924
88 972 543
89 114 955
90 931 866
91 796 414
92 708 270
93 893 755
94 175 956
95 928 757
96 712 401
97 911 968
98 73 240
99 273 9
100 729 595
101 35 166
102 144 36
103 855 718
104 246 872
105 145 125
106 828 875
107 991 591
108 256 913
109 916 785
110 572 373
111 794 708
112 293 607
113 954 807
114 929 743
115 766 280
116 649 291
117 467 677
118 754 655
119 739 882
120 914 788
121 840 785
122 688 415
123 872 383
124 100 253
125 825 737
126 934 881
127 61 122
128 805 306
129 723 293
130 210 984
131 871 845
132 263 916
133 689 176
134 916 696
135 267 798
136 709 162
137 778 748
138 868 711
139 888 705
140 275 849
141 721 780
142 39 209
143 725 784
144 732 339
145 153 957
146 228 685
147 133 309
148 968 772
149 856 654
150 9 152
151 241 951
152 713 376
153 838 377
154 876 764
155 597 423
156 114 992
157 877 851
158 919 703
159 904 766
160 72 31
161 466 393
162 781 784
163 901 846
164 832 916
165 82 123
166 854 803
167 860 788
168 886 728
169 721 227
170 821 575
171 833 775
172 740 699
173 815 870
174 987 925
175 912 794
176 52 131
177 278 957
178 978 690
179 771 292
180 823 346
181 707 335
182 169 906
183 735 870
184 881 748
185 286 992
186 852 889
187 795 680
188 234 986
189 950 871
190 93 187
191 242 902
192 166 240
193 831 436
194 826 244
195 913 959
196 762 783
197 899 829
198 838 765
199 175 829
200 869 785
201 953 964
202 866 944
203 936 737
204 819 800
205 159 845
206 226 948
207 900 582
208 716 261
209 724 340
210 882 786
211 37 115
212 76 158
213 932 900
214 933 720
215 16 220
216 697 613
217 794 288
218 843 826
219 944 819
220 182 953
221 871 819
222 795 277
223 27 151
224 90 898
225 837 658
226 48 57
227 335 937
228 768 713
229 620 617
230 870 923
231 703 796
232 784 302
233 626 928
234 847 721
235 27 180
236 791 822
237 836 834
238 840 350
239 267 903
240 865 981
241 887 753
242 213 883
243 132 331
244 99 100
245 976 899
246 678 226
247 906 926
248 716 733
249 866 711
250 268 882
251 904 726
252 867 615
253 929 807
254 625 238
255 237 947
256 209 895
257 766 806
258 464 628
259 723 817
260 756 859
261 149 12
262 46 127
263 648 763
264 709 1000
265 829 844
266 973 811
267 689 268
268 13 80
269 896 935
270 754 764
271 942 954
272 716 719
273 813 654
274 834 758
275 207 941
276 756 865
277 265 892
278 757 729
279 915 874
280 184 925
281 6 88
282 913 733
283 853 309
284 875 839
285 32 84
286 715 176
287 834 807
288 847 710
289 444 396
290 914 878
291 856 642
292 226 73
293 968 877
294 781 749
295 922 793
296 821 387
297 110 34
298 134 191
299 672 327
300 879 696
301 624 939
302 813 750
303 908 891
304 818 143
305 938 847
306 869 297
307 814 792
308 980 924
309 637 554
310 642 92
311 978 788
312 942 817
313 752 219
314 182 910
315 935 940
316 14 181
317 873 727
318 896 683
319 571 612
320 938 763
321 219 930
322 697 393
323 818 777
324 741 316
325 760 270
326 291 911
327 998 998
328 774 940
329 901 284
330 838 610
331 702 710
332 837 729
333 863 747
334 110 210
335 941 368
336 840 786
337 955 703
338 27 249
339 885 720
340 726 72
341 927 828
342 936 839
343 67 303
344 6 173
345 450 456
346 814 755
347 916 839
348 267 996
349 885 921
350 835 904
351 19 162
352 169 925
353 697 124
354 503 227
355 762 808
356 995 982
357 625 396
358 278 907
359 789 275
360 661 251
361 35 134
362 169 67
363 909 870
364 731 272
365 880 876
366 17 50
367 40 968
368 912 691
369 895 657
370 970 746
371 227 938
372 789 714
373 831 793
374 628 75
375 44 140
376 833 331
377 819 774
378 863 563
379 7 208
380 251 969
381 877 878
382 929 741
383 857 859
384 828 756
385 982 730
386 176 937
387 861 803
388 828 850
389 142 224
390 785 320
391 732 656
392 702 411
393 885 900
394 89 906
395 259 902
396 896 852
397 124 963
398 685 731
399 88 97
400 763 297
401 855 747
402 161 273
403 202 878
404 171 74
405 237 989
406 780 303
407 886 835
408 189 960
409 823 650
410 123 142
411 846 781
412 866 728
413 692 575
414 816 730
415 670 282
416 844 756
417 220 944
418 773 798
419 879 728
420 183 931
421 807 714
422 185 301
423 797 735
424 934 784
425 667 332
426 24 204
427 901 705
428 845 758
429 692 835
430 195 161
431 984 717
432 878 867
433 874 804
434 65 312
435 167 965
436 21 154
437 262 49
438 804 363
439 513 373
440 886 775
441 754 423
442 289 968
443 685 588
444 821 861
445 232 876
446 877 928
447 868 130
448 802 662
449 152 128
450 913 784
451 45 151
452 648 249
453 662 246
454 174 343
455 902 811
456 287 979
457 874 872
458 759 909
459 170 875
460 871 772
461 231 949
462 757 759
463 830 706
464 73 64
465 181 209
466 346 925
467 781 691
468 939 690
469 696 707
470 776 662
471 696 935
472 914 713
473 569 224
474 835 929
475 716 466
476 814 851
477 949 924
478 760 725
479 918 734
480 801 957
481 980 884
482 881 597
483 922 516
484 937 722
485 42 137
486 788 704
487 239 159
488 823 797
489 477 752
490 989 733
491 785 161
492 901 843
493 617 720
494 968 847
495 816 769
496 16 117
497 850 917
498 835 817
499 568 403
500 688 214
501 968 840
502 831 736
503 338 911
504 926 697
505 260 801
506 760 280
507 328 778
508 853 694
509 825 825
510 966 756
511 918 833
512 880 747
513 869 741
514 861 227
515 675 706
516 682 353
517 783 872
518 684 255
519 8 275
520 95 811
521 719 331
522 852 809
523 287 911
524 849 735
525 908 743
526 842 941
527 773 87
528 829 790
529 116 68
530 0 210
531 832 798
532 172 794
533 990 962
534 720 777
535 785 786
536 769 726
537 286 795
538 33 167
539 882 887
540 783 578
541 925 840
542 48 159
543 8 59
544 719 304
545 53 77
546 792 744
547 934 879
548 823 685
549 857 240
550 850 780
551 116 45
552 624 288
553 197 910
554 164 904
555 870 767
556 844 854
557 277 820
558 805 821
559 878 755
560 916 435
561 146 86
562 856 887
563 110 922
564 931 578
565 672 355
566 732 259
567 317 931
568 973 525
569 905 720
570 39 229
571 257 153
572 950 721
573 814 742
574 82 116
575 767 838
576 176 916
577 184 928
578 150 211
579 726 634
580 710 884
581 850 733
582 964 690
583 863 307
584 212 235
585 275 975
586 935 759
587 770 210
588 588 740
589 988 760
590 804 712
591 23 152
592 783 812
593 212 922
594 820 750
595 608 976
596 842 734
597 939 896
598 987 811
599 810 778
600 909 838
601 759 793
602 211 892
603 1 392
604 827 748
605 685 761
606 774 211
607 804 287
608 770 312
609 763 294
610 839 263
611 700 294
612 723 658
613 72 220
614 268 921
615 12 122
616 892 897
617 101 42
618 797 844
619 39 252
620 957 295
621 682 302
622 120 148
623 836 712
624 750 802
625 929 621
626 764 839
627 833 737
628 706 702
629 846 867
630 850 818
631 774 522
632 789 290
633 658 197
634 857 742
635 932 844
636 183 127
637 235 950
638 237 941
639 759 362
640 868 831
641 878 677
642 774 370
643 826 794
644 643 146
645 284 964
646 990 710
647 923 535
648 828 780
649 251 928
650 774 334
651 386 913
652 996 821
653 951 836
654 195 927
655 985 682
656 35 186
657 803 801
658 689 269
659 734 819
660 917 615
661 856 239
662 30 129
663 683 678
664 814 773
665 660 351
666 178 887
667 672 213
668 868 873
669 859 867
670 800 771
671 769 706
672 692 282
673 976 867
674 938 693
675 716 682
676 980 804
677 726 598
678 996 842
679 609 290
680 168 990
681 777 711
682 200 890
683 818 877
684 981 802
685 959 768
686 258 768
687 796 724
688 119 103
689 958 780
690 659 309
691 181 203
692 874 708
693 894 899
694 680 294
695 732 350
696 295 849
697 898 842
698 624 381
699 892 741
700 746 300
701 335 926
702 231 136
703 966 841
704 910 716
705 853 779
706 959 893
707 800 283
708 839 993
709 863 788
710 874 805
711 827 797
712 136 807
713 830 719
714 806 209
715 963 696
716 229 974
717 789 841
718 886 810
719 875 762
720 763 718
721 852 757
722 737 866
723 862 712
724 667 399
725 207 902
726 252 978
727 135 237
728 308 943
729 776 317
730 271 910
731 356 925
732 773 824
733 947 602
734 823 315
735 570 131
736 61 62
737 833 379
738 827 719
739 52 101
740 841 711
741 713 255
742 907 845
743 608 269
744 684 35
745 361 967
746 871 858
747 264 753
748 932 800
749 903 857
750 751 885
751 64 178
752 941 908
753 769 847
754 847 779
755 98 179
756 904 597
757 931 746
758 181 841
759 905 794
760 720 166
761 1000 903
762 951 722
763 805 243
764 244 869
765 938 162
766 707 281
767 915 854
768 851 601
769 746 297
770 992 731
771 864 201
772 775 388
773 877 877
774 851 678
775 820 904
776 44 30
777 871 740
778 622 948
779 732 204
780 55 163
781 850 899
782 885 799
783 274 938
784 967 914
785 178 992
786 129 97
787 814 836
788 233 962
789 847 409
790 39 279
791 760 285
792 963 944
793 764 749
794 835 828
795 899 710
796 700 183
797 2 53
798 156 160
799 815 861
800 868 814
801 61 239
802 802 823
803 863 924
804 312 683
805 80 983
806 322 951
807 848 746
808 817 752
809 816 765
810 132 885
811 0 296
812 544 344
813 84 115
814 732 699
815 202 948
816 876 743
817 895 863
818 855 741
819 909 770
820 225 216
821 698 282
822 62 45
823 326 960
824 63 74
825 916 952
826 733 350
827 843 720
828 741 389
829 15 700
830 755 393
831 784 775
832 284 984
833 906 914
834 735 247
835 699 915
836 876 761
837 687 312
838 703 304
839 828 841
840 640 831
841 799 827
842 940 721
843 856 774
844 119 158
845 641 38
846 783 686
847 811 194
848 871 802
849 886 733
850 938 870
851 50 152
852 852 386
853 663 797
854 784 231
855 947 808
856 199 66
857 874 731
858 24 135
859 950 736
860 333 878
861 792 362
862 738 343
863 260 934
864 739 293
865 302 925
866 920 680
867 727 777
868 737 663
869 878 872
870 944 251
871 792 789
872 765 844
873 777 747
874 656 600
875 924 279
876 84 103
877 63 130
878 988 787
879 531 320
880 67 892
881 932 891
882 299 878
883 70 70
884 353 901
885 699 636
886 820 800
887 139 176
888 63 163
889 660 210
890 976 725
891 806 848
892 664 357
893 887 761
894 907 786
895 254 765
896 888 615
897 758 801
898 897 690
899 831 711
900 850 832
901 764 223
902 975 180
903 963 762
904 888 719
905 364 975
906 801 237
907 818 899
908 896 832
909 784 445
910 66 147
911 797 805
912 961 977
913 776 865
914 833 398
915 845 852
916 783 782
917 906 809
918 528 179
919 936 778
920 850 711
921 968 849
922 343 963
923 26 377
924 305 869
925 999 797
926 824 742
927 794 779
928 34 17
929 884 859
930 58 297
931 3 78
932 867 798
933 825 537
934 875 801
935 750 924
936 859 772
937 928 885
938 805 790
939 728 309
940 47 96
941 846 891
942 665 274
943 42 148
944 867 826
945 76 950
946 912 823
947 836 730
948 722 262
949 876 816
950 36 129
951 812 315
952 835 705
953 126 210
954 986 649
955 100 21
956 582 337
957 64 163
958 903 926
959 833 725
960 714 839
961 842 793
962 763 751
963 778 664
964 881 774
965 874 366
966 801 210
967 736 780
968 883 819
DEMAND_SECTION
2 38
3 48
4 57
5 60
6 56
7 74
8 41
9 95
10 77
11 95
12 54
13 85
14 66
15 18
16 83
17 3
18 84
19 86
20 96
21 69
22 51
23 100
24 77
25 51
26 96
27 53
28 70
29 99
30 58
31 53
32 87
33 12
34 64
35 62
36 64
37 59
38 64
39 51
40 55
41 7
42 64
43 47
44 5
45 20
46 100
47 75
48 41
49 87
50 72
51 74
52 68
53 27
54 72
55 18
56 25
57 68
58 56
59 14
60 68
61 85
62 83
63 88
64 2
65 78
66 98
67 59
68 99
69 88
70 59
71 9
72 87
73 4
74 62
75 89
76 86
77 82
78 74
79 50
80 5
81 72
82 86
83 20
84 98
85 77
86 71
87 29
88 55
89 13
90 57
91 29
92 24
93 82
94 45
95 55
96 42
97 85
98 69
99 90
100 93
101 78
102 78
103 56
104 39
105 56
106 77
107 53
108 43
109 65
110 10
111 67
112 23
113 96
114 52
115 36
116 10
117 18
118 74
119 73
120 95
121 88
122 47
123 11
124 73
125 57
126 100
127 51
128 34
129 50
130 34
131 87
132 13
133 39
134 71
135 5
136 42
137 79
138 65
139 56
140 15
141 76
142 72
143 56
144 4
145 8
146 28
147 70
148 56
149 73
150 65
151 8
152 41
153 12
154 80
155 36
156 4
157 77
158 69
159 69
160 91
161 79
162 89
163 70
164 79
165 89
166 52
167 83
168 72
169 9
170 95
171 53
172 80
173 68
174 57
175 70
176 94
177 33
178 51
179 3
180 47
181 40
182 21
183 67
184 62
185 49
186 96
187 53
188 41
189 88
190 54
191 4
192 91
193 14
194 8
195 94
196 92
197 100
198 95
199 37
200 52
201 81
202 56
203 66
204 99
205 18
206 12
207 74
208 47
209 22
210 61
211 66
212 91
213 77
214 75
215 63
216 96
217 13
218 63
219 99
220 20
221 79
222 40
223 53
224 14
225 71
226 56
227 43
228 100
229 76
230 73
231 97
232 31
233 69
234 93
235 82
236 80
237 89
238 46
239 7
240 68
241 99
242 18
243 98
244 63
245 59
246 7
247 88
248 84
249 52
250 49
251 65
252 54
253 87
254 16
255 8
256 29
257 85
258 42
259 67
260 71
261 94
262 59
263 64
264 97
265 63
266 86
267 2
268 52
269 69
270 93
271 97
272 80
273 73
274 62
275 11
276 61
277 26
278 51
279 75
280 20
281 87
282 58
283 30
284 68
285 70
286 31
287 79
288 70
289 58
290 67
291 93
292 91
293 82
294 87
295 68
296 41
297 75
298 86
299 21
300 94
301 65
302 96
303 69
304 5
305 98
306 23
307 68
308 71
309 74
310 26
311 83
312 55
313 34
314 43
315 84
316 79
317 61
318 81
319 55
320 62
321 24
322 36
323 73
324 35
325 29
326 10
327 70
328 70
329 29
330 76
331 95
332 92
333 56
334 75
335 38
336 67
337 78
338 97
339 69
340 27
341 75
342 64
343 80
344 53
345 51
346 91
347 52
348 48
349 64
350 100
351 67
352 11
353 30
354 27
355 57
356 75
357 17
358 44
359 50
360 32
361 96
362 58
363 98
364 46
365 52
366 58
367 46
368 100
369 57
370 100
371 47
372 63
373 66
374 37
375 67
376 49
377 68
378 86
379 67
380 17
381 91
382 78
383 63
384 76
385 79
386 32
387 87
388 77
389 72
390 5
391 94
392 13
COVERAGE_SECTION
2 11 637 255 83 151 461 206 638 788 371 417 380 
3 11 864 53 129 769 700 364 939 544 791 506 324 
4 11 596 332 947 524 627 581 502 66 807 959 234 
5 11 630 218 498 900 522 794 237 20 287 166 509 
6 11 917 455 946 24 759 175 197 718 57 253 120 
7 11 176 877 375 262 485 127 910 851 451 943 361 
8 11 181 837 521 838 299 209 621 544 516 611 425 
9 11 119 27 750 580 183 458 935 77 722 835 69 
10 11 270 462 70 962 793 867 967 86 248 278 534 
11 11 558 802 841 787 236 509 618 891 20 717 476 
12 11 162 916 535 831 196 418 871 601 927 42 257 
13 11 898 318 51 300 139 641 427 368 795 692 18 
14 11 54 739 940 545 824 876 883 399 127 574 285 
15 11 606 854 587 901 966 906 313 714 763 847 779 
16 11 423 546 36 62 573 687 302 414 294 346 808 
17 11 665 892 565 425 516 299 690 8 837 181 698 
18 11 38 508 300 641 774 692 138 249 723 13 78 
19 11 928 776 366 797 543 226 822 160 931 72 268 
20 11 509 794 237 498 218 839 265 787 5 287 11 
21 11 941 781 186 350 562 497 164 775 106 907 629 
22 11 727 389 192 953 578 124 402 334 298 465 691 
23 11 482 207 378 756 768 252 896 330 660 564 170 
24 11 759 175 120 894 450 109 26 295 917 6 455 
25 11 377 495 323 664 809 599 648 171 346 384 29 
26 11 759 894 210 24 782 440 175 450 120 964 109 
27 11 935 458 9 750 119 328 77 183 580 835 722 
28 11 333 401 634 818 513 807 777 721 524 581 816 
29 11 384 274 604 594 808 926 198 346 416 302 428 
30 11 39 212 622 844 910 165 410 755 957 888 574 
31 11 305 342 635 653 541 90 58 341 850 347 189 
32 11 184 512 241 816 559 699 93 849 893 75 777 
33 11 191 256 602 725 593 242 321 445 553 682 87 
34 11 624 659 897 259 143 967 601 355 867 141 257 
35 11 636 856 404 362 292 60 561 449 702 105 430 
36 11 546 294 62 16 137 423 873 687 63 86 302 
37 11 881 213 597 937 126 547 752 52 303 290 279 
38 11 18 508 249 300 138 692 723 78 920 288 774 
39 11 212 30 957 888 755 910 751 190 780 844 851 
40 11 100 118 540 579 677 470 963 391 868 612 448 
41 11 783 177 614 865 863 523 728 59 326 645 132 
42 11 81 418 592 257 355 732 897 236 911 601 535 
43 11 789 560 123 193 852 914 965 153 737 296 91 
44 11 610 194 607 707 763 222 549 661 217 359 906 
45 11 185 832 456 442 585 348 645 177 823 726 806 
46 11 835 77 471 233 580 301 778 9 85 429 840 
47 11 281 268 72 285 931 496 615 211 940 543 739 
48 11 89 397 945 805 563 156 394 145 224 367 435 
49 11 50 961 167 411 550 121 336 705 754 709 166 
50 11 49 167 166 387 709 961 932 411 522 550 705 
51 11 318 898 13 368 641 369 866 134 300 427 139 
52 11 597 706 126 881 189 547 37 213 937 752 850 
53 11 3 364 129 864 769 948 56 566 700 766 544 
54 11 14 545 824 739 940 883 736 464 285 876 399 
55 11 180 238 737 153 438 296 376 861 852 914 734 
56 11 208 948 741 92 364 566 766 53 821 834 267 
57 11 718 968 949 710 221 433 782 934 455 800 848 
58 11 341 219 312 342 511 541 253 635 946 347 653 
59 11 865 567 728 326 523 41 701 227 806 503 358 
60 11 702 487 571 636 430 35 292 856 449 798 404 
61 11 383 669 629 556 915 746 668 131 457 157 432 
62 11 546 36 294 16 137 423 873 302 670 346 573 
63 11 536 478 278 720 228 681 873 137 793 294 36 
64 11 140 104 764 250 696 557 277 445 882 924 395 
65 11 467 846 486 671 681 187 111 228 372 963 720 
66 11 959 332 827 947 713 234 623 738 596 4 740 
67 11 396 163 492 697 749 742 817 929 407 908 157 
68 11 172 478 720 278 70 814 228 536 671 63 272 
69 11 722 183 85 119 260 276 750 960 580 872 626 
70 11 248 68 272 278 10 478 720 814 172 536 793 
71 11 254 452 743 473 889 453 360 633 667 552 246 
72 11 931 268 281 47 543 285 797 366 496 615 940 
73 11 224 880 394 810 520 563 205 712 459 554 199 
74 11 936 555 843 721 460 719 154 705 836 428 333 
75 11 857 419 317 777 816 849 168 513 412 512 32 
76 11 204 886 488 307 643 711 373 528 531 657 938 
77 11 835 471 9 580 27 935 46 119 458 750 183 
78 11 723 249 103 138 920 692 288 412 234 38 317 
79 11 136 760 286 353 133 796 779 644 500 633 667 
80 11 239 730 395 277 358 132 108 614 250 523 326 
81 11 592 42 418 911 236 257 732 355 657 871 535 
82 11 173 799 444 476 683 891 106 388 618 265 517 
83 11 461 637 2 206 255 151 638 788 371 417 321 
84 11 919 320 586 95 424 109 819 450 120 295 159 
85 11 960 69 183 722 580 119 429 260 259 276 659 
86 11 962 793 462 137 873 294 270 36 63 831 62 
87 11 649 108 863 132 614 638 191 395 730 255 239 
88 11 568 647 107 564 483 733 207 756 625 660 23 
89 11 397 48 563 156 945 145 805 435 394 94 224 
90 11 850 547 126 279 937 189 305 767 31 290 363 
91 11 772 909 296 914 193 441 830 642 737 789 438 
92 11 56 766 208 741 821 948 267 658 672 364 611 
93 11 241 893 32 184 699 512 559 159 836 154 525 
94 11 220 435 408 386 145 420 815 577 280 352 275 
95 11 586 757 320 84 114 382 203 919 819 525 479 
96 11 392 322 152 122 828 830 724 441 695 826 516 
97 11 195 825 271 269 315 201 247 958 240 202 912 
98 11 801 613 124 570 619 142 338 334 790 190 930 
99 11 437 292 856 35 362 404 261 60 102 702 571 
100 11 677 216 579 40 413 443 885 540 391 612 118 
101 11 538 542 235 351 223 436 451 591 943 656 780 
102 11 261 551 297 362 529 617 955 404 561 786 856 
103 11 78 234 723 920 288 827 249 138 412 581 740 
104 11 764 445 250 64 277 191 395 242 140 239 33 
105 11 449 410 786 622 688 798 636 561 844 887 244 
106 11 683 173 444 799 82 629 941 388 556 907 21 
107 11 733 88 954 564 568 625 660 756 647 207 655 
108 11 132 395 87 614 239 730 80 649 191 863 277 
109 11 450 120 894 175 295 24 759 819 424 84 26 
110 11 499 956 812 698 155 357 439 879 665 679 17 
111 11 486 372 590 421 687 681 65 467 671 846 228 
112 11 804 146 747 895 686 258 507 117 537 135 505 
113 11 855 219 312 266 748 253 676 684 689 58 653 
114 11 382 757 203 95 479 586 282 525 320 484 859 
115 11 506 791 325 179 609 400 359 632 769 406 232 
116 11 690 415 942 552 694 621 679 360 452 299 837 
117 9 258 489 319 588 804 493 229 507 112 
118 11 868 391 470 963 612 579 40 846 467 65 172 
119 11 750 183 722 9 69 276 260 580 85 27 458 
120 11 109 450 175 894 24 295 759 26 819 424 748 
121 11 336 411 961 754 49 550 171 373 528 648 705 
122 11 392 322 724 96 152 475 828 516 565 892 357 
123 11 965 852 153 789 737 914 43 238 55 296 180 
124 11 98 22 727 801 613 334 953 389 343 619 930 
125 11 926 502 627 414 604 573 947 332 594 959 4 
126 11 547 937 881 850 37 90 52 597 189 213 279 
127 11 877 176 7 262 165 574 739 485 813 211 375 
128 11 951 607 734 217 232 632 390 707 406 222 729 
129 11 544 3 53 864 939 766 364 611 769 838 700 
130 11 716 188 405 408 788 785 815 206 83 417 461 
131 11 284 157 746 640 407 929 944 383 432 61 67 
132 11 614 108 730 80 239 87 395 358 649 863 277 
133 11 796 136 286 760 79 633 500 667 889 246 779 
134 11 368 158 504 866 427 472 898 704 674 795 318 
135 11 505 537 557 686 895 747 140 64 696 507 764 
136 11 760 79 286 796 133 353 779 500 633 667 169 
137 11 873 294 36 86 793 546 962 62 63 16 423 
138 11 249 723 692 78 103 38 317 412 920 300 339 
139 11 795 300 427 692 904 339 13 898 138 168 249 
140 11 64 696 557 250 924 104 764 882 277 505 445 
141 11 534 143 867 967 231 34 10 624 259 270 601 
142 11 426 570 656 215 235 379 613 801 316 530 751 
143 11 141 867 534 967 34 231 624 259 10 270 601 
144 11 862 209 695 826 521 181 324 939 8 639 544 
145 11 435 94 220 386 397 352 408 680 89 420 577 
146 11 747 804 895 686 112 135 505 532 537 507 557 
147 11 243 402 422 454 124 22 343 434 727 192 930 
148 11 685 903 689 510 311 589 878 370 320 684 919 
149 11 291 225 774 641 409 18 369 508 252 38 273 
150 11 436 351 591 223 344 858 538 316 101 615 662 
151 11 2 255 637 83 461 638 788 206 371 380 417 
152 11 322 96 828 695 826 392 209 516 181 862 144 
153 11 737 852 55 296 914 238 789 180 123 438 965 
154 11 719 836 555 460 559 893 964 440 74 241 184 
155 11 499 357 698 110 724 956 122 892 812 665 439 
156 11 397 805 89 48 145 680 945 435 785 563 94 
157 11 131 746 929 284 432 67 407 396 457 869 383 
158 11 134 504 472 368 704 427 674 795 214 569 866 
159 11 819 93 893 440 450 894 241 109 525 26 120 
160 11 822 776 955 617 464 736 226 297 883 928 824 
161 11 289 439 345 812 879 499 110 956 155 698 357 
162 11 916 535 12 831 871 927 418 196 670 42 81 
163 11 492 697 742 67 396 600 749 908 767 197 347 
164 11 350 474 775 497 907 21 781 526 941 803 186 
165 11 574 813 876 877 127 399 30 244 910 7 176 
166 11 522 387 50 49 932 167 630 961 709 848 800 
167 11 709 50 200 49 705 932 550 387 843 166 411 
168 11 849 419 339 904 75 857 317 699 251 816 32 
169 11 834 779 741 313 208 566 500 948 56 246 901 
170 11 540 933 330 768 378 23 252 482 40 631 409 
171 11 648 198 121 336 25 377 411 323 754 528 274 
172 11 814 68 675 671 720 228 272 70 478 278 628 
173 11 82 683 799 444 106 476 388 891 907 265 629 
174 11 308 784 761 245 792 533 477 481 706 752 201 
175 11 24 120 759 894 109 295 450 917 6 26 455 
176 11 7 262 877 375 485 127 950 361 943 451 851 
177 11 645 442 585 783 41 456 832 863 380 726 728 
178 11 655 582 715 646 337 431 890 468 385 674 572 
179 11 609 400 115 791 406 232 506 632 608 217 325 
180 11 55 238 376 438 734 951 153 737 861 296 128 
181 11 8 521 209 144 695 826 837 516 838 862 544 
182 11 554 576 314 352 666 280 577 553 420 459 386 
183 11 722 69 119 85 276 750 260 9 580 960 872 
184 11 512 32 816 241 559 699 777 93 513 836 893 
185 11 832 45 456 348 585 442 645 177 726 380 405 
186 11 562 941 21 781 350 629 668 669 381 61 106 
187 11 846 467 448 65 963 486 470 111 548 273 590 
188 11 405 716 726 130 380 788 348 2 83 151 637 
189 11 850 52 547 126 293 90 706 31 673 937 305 
190 11 755 39 334 751 212 30 888 957 613 844 953 
191 11 33 395 108 87 132 239 277 80 445 649 104 
192 11 389 22 727 402 578 465 691 584 953 298 334 
193 11 789 914 91 43 909 296 852 737 153 123 55 
194 11 763 44 610 906 661 549 514 714 966 854 222 
195 11 825 97 269 271 315 247 958 201 833 349 446 
196 11 601 12 897 162 418 270 916 624 257 535 831 
197 11 908 600 697 407 492 946 163 455 742 511 968 
198 11 274 428 171 416 384 29 721 754 411 648 25 
199 11 758 205 532 712 459 403 666 242 682 810 602 
200 11 709 167 210 460 932 936 964 50 705 843 848 
201 11 271 912 792 315 533 825 195 477 97 356 308 
202 11 446 803 230 526 349 269 497 474 240 958 164 
203 11 382 114 757 859 484 842 214 479 572 762 95 
204 11 886 76 488 307 643 711 531 373 528 657 287 
205 11 758 199 459 712 666 810 532 403 554 682 182 
206 11 83 461 417 637 2 371 255 638 151 788 321 
207 11 756 23 482 564 896 660 378 252 625 733 647 
208 11 56 948 741 92 566 364 766 834 53 267 658 
209 11 144 521 695 826 862 181 8 324 939 544 152 
210 11 440 964 26 200 782 934 460 709 848 932 433 
211 11 950 262 662 361 496 739 940 176 485 858 127 
212 11 39 957 888 910 30 780 751 851 542 7 755 
213 11 37 597 881 752 937 126 52 547 303 290 706 
214 11 484 842 203 572 762 472 382 479 158 114 704 
215 11 379 426 530 142 570 338 316 619 656 235 344 
216 11 885 443 677 579 100 413 874 612 391 868 663 
217 11 632 707 607 222 359 232 128 406 179 115 400 
218 11 5 794 900 237 630 498 20 509 522 287 839 
219 11 312 855 58 113 653 253 341 342 748 31 541 
220 11 94 408 386 435 815 420 577 275 280 145 654 
221 11 800 949 944 640 968 710 57 433 718 848 934 
222 11 359 707 217 607 632 232 179 115 406 128 44 
223 11 591 436 351 943 858 101 538 150 451 361 375 
224 11 394 880 563 73 810 945 48 89 397 554 182 
225 11 409 149 273 774 291 548 448 508 18 641 38 
226 11 736 822 545 824 464 883 776 285 54 366 160 
227 11 701 466 567 806 731 823 503 922 728 59 865 
228 11 671 720 681 536 478 63 278 372 68 486 65 
229 11 874 319 309 443 216 885 413 663 493 515 579 
230 11 803 446 349 202 497 393 269 781 526 958 616 
231 11 141 143 534 259 867 34 967 605 659 853 429 
232 11 406 632 179 217 608 729 390 128 400 609 607 
233 11 301 778 46 595 471 835 77 580 840 9 264 
234 11 827 103 66 920 288 581 740 332 524 596 623 
235 11 656 316 538 101 351 344 426 436 591 223 542 
236 11 841 802 592 558 81 11 732 911 717 42 618 
237 11 794 20 218 839 265 509 900 5 498 388 915 
238 11 180 55 376 153 737 438 852 965 734 296 283 
239 11 80 395 730 277 358 132 108 614 250 523 191 
240 11 708 202 526 97 195 446 269 803 230 825 474 
241 11 93 32 184 893 512 559 699 836 719 816 154 
242 11 602 403 256 682 445 725 33 553 764 104 191 
243 11 147 454 422 402 434 343 930 124 22 727 192 
244 11 399 876 688 813 574 165 786 529 14 54 883 
245 11 481 784 706 293 761 308 174 52 673 752 477 
246 11 667 500 889 453 360 518 633 452 169 267 658 
247 11 958 833 269 349 825 446 693 315 616 393 195 
248 11 272 70 331 10 398 469 628 68 814 278 172 
249 11 138 723 78 692 103 38 920 317 412 288 300 
250 11 277 80 239 395 104 358 764 730 64 882 108 
251 11 569 282 704 472 479 525 795 904 168 699 849 
252 11 768 896 482 291 330 23 149 756 207 369 660 
253 11 748 295 312 58 855 219 175 341 6 917 946 
254 11 71 452 743 360 453 889 552 633 667 246 679 
255 11 2 637 151 461 638 83 206 371 788 417 649 
256 11 602 725 682 242 403 33 553 593 445 314 666 
257 11 355 897 42 418 601 624 81 592 732 196 12 
258 11 117 319 489 229 804 588 112 345 493 309 874 
259 11 659 34 960 231 624 143 429 141 897 967 85 
260 11 276 872 753 69 722 913 626 183 575 750 119 
261 11 102 297 551 955 617 362 529 404 561 856 160 
262 11 176 950 485 7 361 375 211 127 662 877 943 
263 11 605 853 398 493 515 231 588 840 534 248 469 
264 11 471 77 835 935 328 27 778 480 9 458 595 
265 11 839 388 237 20 476 787 794 556 915 444 509 
266 11 676 684 598 113 311 652 855 878 501 219 925 
267 11 658 518 672 821 92 766 415 942 56 741 208 
268 11 72 931 281 47 285 543 797 366 496 940 545 
269 11 958 247 349 446 833 825 195 230 202 803 97 
270 11 462 86 962 793 10 196 967 12 137 601 873 
271 11 201 315 792 825 195 912 477 97 247 752 784 
272 11 248 331 628 70 469 814 68 172 398 675 10 
273 11 409 448 225 187 548 963 470 149 846 291 774 
274 11 29 384 198 416 428 604 594 171 721 807 808 
275 11 815 417 321 654 206 371 593 461 83 408 420 
276 11 260 722 69 913 750 183 753 872 119 626 517 
277 11 250 80 239 395 730 358 108 132 191 104 523 
278 11 478 536 720 63 68 228 793 70 962 671 681 
279 11 290 363 937 90 303 126 547 767 749 817 850 
280 11 577 420 654 576 386 314 352 553 182 220 275 
281 11 72 47 931 268 285 543 496 615 797 366 211 
282 11 479 251 525 569 704 382 114 472 699 757 203 
283 11 583 306 376 734 951 238 128 180 610 44 329 
284 11 131 640 157 407 944 746 221 67 908 929 968 
285 11 47 268 940 545 72 281 739 54 931 14 211 
286 11 760 136 796 133 79 779 500 169 353 313 667 
287 11 531 498 711 373 488 643 886 961 76 204 5 
288 11 920 740 103 234 623 827 952 78 723 66 899 
289 11 161 345 439 812 879 499 110 956 155 354 357 
290 11 279 363 303 937 126 547 90 881 37 749 767 
291 11 149 225 252 409 774 330 641 768 369 896 273 
292 11 856 35 437 404 60 362 702 636 99 561 571 
293 11 673 481 706 189 52 245 921 494 850 126 547 
294 11 137 873 36 546 62 86 793 962 16 423 63 
295 11 120 109 175 748 450 24 424 253 759 894 919 
296 11 737 914 153 55 438 852 789 91 861 180 238 
297 11 617 551 955 102 529 160 261 464 822 883 736 
298 11 887 953 578 334 389 844 755 798 190 622 727 
299 11 425 837 690 17 8 621 665 516 565 892 694 
300 11 139 692 13 38 18 138 641 898 249 318 723 
301 11 778 233 595 46 471 835 77 580 264 840 9 
302 11 808 346 594 573 604 926 809 29 384 16 125 
303 11 290 693 616 279 37 363 937 833 881 393 213 
304 11 491 847 447 714 966 527 771 606 587 15 514 
305 11 31 635 342 541 653 90 341 58 347 850 511 
306 11 583 283 329 610 734 376 44 549 875 661 238 
307 11 76 204 938 488 886 643 657 711 528 599 323 
308 11 174 784 245 792 761 477 706 533 481 752 52 
309 11 874 413 443 229 216 319 677 100 885 475 579 
310 11 374 644 845 353 744 735 340 79 133 136 633 
311 11 878 684 676 148 689 925 266 598 685 589 903 
312 11 219 855 58 113 253 341 748 653 342 511 541 
313 11 901 587 606 779 15 169 834 854 566 966 325 
314 11 576 182 280 553 577 554 352 420 654 666 725 
315 11 271 477 825 792 195 201 247 752 958 97 269 
316 11 344 235 351 656 538 426 101 379 436 150 591 
317 11 857 419 412 75 168 777 339 849 513 816 138 
318 11 51 898 13 368 641 300 139 427 134 866 369 
319 11 229 874 309 258 443 493 117 216 413 588 663 
320 11 586 84 95 919 757 424 114 685 382 903 203 
321 11 371 593 417 275 206 638 461 83 654 255 815 
322 11 96 392 152 122 724 516 828 565 892 695 665 
323 11 377 25 664 495 599 648 809 171 307 528 938 
324 11 939 700 769 864 144 544 521 862 3 129 209 
325 11 506 115 791 609 179 400 359 364 566 769 3 
326 11 523 358 865 730 59 80 239 614 41 132 277 
327 11 356 533 912 201 792 271 174 308 315 477 784 
328 11 935 480 458 27 775 9 750 907 474 164 119 
329 11 875 306 583 283 870 620 549 661 610 514 44 
330 11 768 252 291 170 409 482 23 149 225 896 273 
331 11 469 628 272 248 398 515 675 814 663 70 172 
332 11 947 66 959 4 596 502 627 827 713 234 524 
333 11 28 401 513 634 818 777 816 721 807 512 559 
334 11 953 190 298 755 389 727 613 578 22 124 887 
335 11 965 123 560 620 43 852 875 329 583 306 153 
336 11 121 961 411 754 49 373 528 550 171 648 531 
337 11 715 582 572 762 674 468 842 178 484 214 504 
338 11 619 570 215 519 790 801 142 426 379 98 530 
339 11 904 168 419 849 317 139 75 692 857 795 138 
340 11 527 744 353 79 310 136 845 760 374 286 491 
341 11 58 511 541 342 347 946 635 219 312 253 600 
342 11 635 305 31 541 341 58 653 511 347 219 312 
343 11 434 930 790 619 124 98 801 519 147 338 811 
344 11 316 351 150 235 436 591 538 101 223 656 379 
345 11 289 161 439 499 812 110 155 879 258 956 357 
346 11 808 302 594 809 573 384 495 29 604 926 25 
347 11 511 600 541 742 767 341 492 946 163 635 697 
348 11 185 832 585 726 456 45 380 405 188 442 645 
349 11 446 230 269 958 393 247 803 833 693 616 202 
350 11 164 21 775 781 941 907 497 186 474 562 106 
351 11 436 591 150 223 538 101 344 235 316 858 943 
352 11 576 386 280 420 577 182 314 554 654 220 94 
353 11 79 136 760 133 286 644 796 340 310 633 374 
354 11 918 473 879 71 743 735 254 679 812 956 552 
355 11 257 897 624 42 418 601 732 81 592 34 196 
356 11 327 533 912 201 792 174 271 308 315 477 784 
357 11 698 155 724 892 499 665 110 17 565 122 516 
358 11 730 523 80 239 326 132 614 277 395 108 250 
359 11 222 217 707 632 607 115 179 232 325 406 506 
360 11 453 452 518 942 246 415 267 658 254 667 889 
361 11 950 662 485 375 858 262 943 176 211 223 7 
362 11 404 561 856 35 102 786 529 292 551 261 636 
363 11 279 290 749 817 767 303 90 396 937 67 163 
364 11 53 566 948 3 56 208 129 864 92 741 834 
365 11 773 381 869 457 432 539 668 929 746 817 669 
366 11 543 797 268 931 72 226 776 285 928 281 47 
367 11 945 805 48 89 156 394 880 397 563 224 145 
368 11 134 158 866 504 898 51 318 427 13 472 795 
369 11 51 318 641 13 898 866 368 149 291 300 18 
370 11 510 903 385 859 890 490 589 685 148 770 762 
371 11 417 206 638 321 461 83 255 637 2 151 275 
372 11 111 486 681 687 590 421 228 423 671 63 65 
373 11 528 531 643 711 488 336 961 121 76 648 886 
374 11 310 845 744 644 735 353 340 79 133 136 633 
375 11 485 943 361 451 7 176 262 851 950 662 542 
376 11 180 734 238 951 283 55 128 583 438 153 737 
377 11 25 323 664 495 809 599 648 171 307 528 670 
378 11 23 482 768 207 170 933 252 330 756 896 647 
379 11 530 215 426 316 142 235 344 656 570 338 351 
380 11 726 788 151 2 716 188 405 585 637 255 83 
381 11 773 365 869 457 539 668 432 929 669 746 393 
382 11 114 757 203 479 95 282 586 214 484 525 859 
383 11 61 669 556 629 746 915 668 131 457 157 432 
384 11 29 274 604 594 808 198 346 809 926 302 416 
385 11 490 890 770 431 370 646 510 589 762 572 859 
386 11 420 577 280 352 220 94 576 654 408 314 815 
387 11 166 932 848 50 522 433 710 800 934 167 709 
388 11 265 839 444 476 556 799 915 237 787 891 20 
389 11 578 727 22 953 192 298 334 465 691 887 124 
390 11 729 608 232 406 650 128 951 632 179 400 217 
391 11 612 868 118 579 675 885 814 172 470 963 40 
392 11 96 122 322 152 724 828 441 830 475 516 565 
393 11 616 693 539 349 381 773 303 365 833 230 446 
394 11 224 563 880 73 945 810 48 89 397 554 805 
395 11 239 80 108 277 730 132 191 358 614 250 87 
396 11 67 163 749 492 697 817 742 929 157 600 767 
397 11 89 48 145 156 435 563 805 945 94 680 386 
398 11 469 331 515 605 248 272 628 70 263 663 814 
399 11 876 244 813 574 14 165 54 688 883 824 464 
400 11 609 179 791 115 506 608 700 769 406 232 729 
401 11 28 634 818 807 333 721 524 416 428 513 581 
402 11 192 422 22 727 147 389 578 124 584 243 465 
403 11 242 682 602 256 725 666 445 459 553 33 314 
404 11 362 561 856 35 102 786 636 292 529 105 449 
405 11 188 716 726 380 130 788 348 2 151 83 637 
406 11 232 608 179 729 632 390 400 609 217 128 115 
407 11 908 284 197 697 968 67 492 131 157 640 163 
408 11 220 94 815 435 275 386 420 130 577 654 785 
409 11 273 225 448 149 291 548 774 187 330 963 470 
410 11 622 844 105 30 449 798 887 688 39 165 755 
411 11 754 550 121 705 336 49 843 961 171 50 167 
412 11 317 857 75 419 513 777 78 103 723 138 249 
413 11 443 216 677 100 874 309 885 579 40 229 612 
414 11 125 573 926 502 738 421 627 713 959 16 302 
415 11 942 694 672 116 621 658 267 821 690 518 360 
416 11 428 721 274 198 807 401 29 384 74 28 604 
417 11 206 371 461 83 275 321 637 2 255 638 815 
418 11 42 257 81 12 355 601 897 162 535 592 196 
419 11 75 317 857 168 849 339 412 904 777 816 513 
420 11 577 280 386 654 352 576 314 220 553 815 94 
421 11 590 111 687 372 414 486 738 423 463 713 899 
422 11 402 454 147 243 192 584 22 727 389 465 820 
423 11 16 546 687 36 62 573 414 294 302 372 137 
424 11 919 84 295 748 109 120 320 450 175 253 689 
425 11 299 17 665 565 690 892 516 837 8 621 181 
426 11 142 379 215 656 235 316 530 570 344 538 101 
427 11 795 139 704 472 569 898 134 158 368 13 904 
428 11 416 721 198 274 807 401 29 74 384 28 843 
429 11 960 85 259 231 659 853 69 580 840 183 722 
430 11 636 798 60 487 691 702 465 449 887 105 35 
431 11 646 890 385 770 490 178 715 337 370 762 572 
432 11 869 457 365 773 929 381 746 668 157 817 669 
433 11 710 934 848 932 782 800 949 387 718 57 221 
434 11 343 930 790 619 811 147 519 124 243 98 801 
435 11 94 145 220 408 680 386 785 420 815 352 577 
436 11 591 223 351 150 101 538 858 943 344 361 451 
437 11 99 292 856 35 60 702 404 362 571 636 487 
438 11 861 55 180 296 642 737 153 238 772 650 376 
439 11 812 161 879 110 499 289 956 155 345 698 357 
440 11 964 210 893 154 460 26 719 836 555 159 200 
441 11 830 828 909 772 91 96 392 475 642 639 152 
442 11 645 456 177 585 832 185 45 728 41 783 348 
443 11 413 216 874 677 100 885 309 579 229 612 40 
444 11 799 82 173 476 388 106 683 265 891 839 556 
445 11 764 104 242 602 191 33 256 403 682 250 725 
446 11 230 349 803 202 269 958 247 393 497 833 616 
447 11 304 771 765 847 491 514 714 527 966 661 549 
448 11 273 187 409 963 470 548 846 225 467 65 486 
449 11 105 636 410 798 622 786 688 561 844 887 35 
450 11 109 120 894 175 24 295 759 819 26 159 84 
451 11 943 851 542 375 485 780 7 101 223 361 538 
452 11 360 453 254 942 518 71 246 415 889 116 667 
453 11 360 452 518 246 942 667 267 658 889 415 254 
454 11 422 243 147 402 192 22 434 727 343 584 124 
455 11 917 6 718 946 57 759 24 197 175 782 968 
456 11 832 442 185 585 645 45 177 348 726 380 41 
457 11 869 432 668 773 365 381 746 669 929 539 157 
458 11 27 935 750 9 119 328 276 517 183 913 722 
459 11 666 554 182 205 403 682 758 314 810 576 242 
460 11 555 154 964 719 836 936 74 200 440 843 210 
461 11 83 637 2 206 255 151 638 371 417 788 321 
462 11 270 962 86 793 10 873 137 196 294 12 278 
463 11 899 952 623 740 713 738 288 66 827 959 920 
464 11 883 736 824 822 545 54 226 14 160 399 617 
465 11 691 578 192 584 389 820 298 430 887 727 798 
466 11 731 701 227 503 884 567 806 59 922 823 651 
467 11 65 846 486 187 671 681 111 372 228 963 470 
468 11 674 504 337 866 134 158 582 715 368 214 842 
469 11 331 628 515 272 398 663 675 248 814 70 172 
470 11 963 118 846 187 448 467 65 273 868 391 486 
471 11 77 835 46 9 580 27 935 264 119 458 233 
472 11 704 158 569 427 795 251 134 214 282 504 479 
473 11 71 254 743 918 354 679 452 552 889 633 735 
474 11 164 526 497 350 803 775 21 202 781 907 230 
475 11 392 441 122 96 909 322 631 828 724 830 152 
476 11 891 799 444 82 388 787 265 839 618 173 11 
477 11 752 315 784 792 213 597 271 308 706 37 52 
478 11 278 720 536 63 228 68 671 681 793 70 962 
479 11 282 382 525 114 251 203 757 569 704 214 472 
480 11 328 474 526 164 708 775 907 935 350 497 458 
481 11 293 245 673 706 761 52 189 784 921 494 308 
482 11 23 896 252 756 207 768 378 660 330 291 564 
483 11 647 568 88 564 207 378 23 560 756 733 482 
484 11 842 214 572 762 203 859 382 114 479 472 757 
485 11 375 361 950 262 943 176 7 451 662 851 858 
486 11 111 372 681 65 467 590 671 846 421 228 687 
487 11 571 702 60 430 820 636 691 35 465 584 798 
488 11 76 643 711 886 204 373 528 531 307 287 648 
489 6 117 588 258 493 507 319 
490 11 770 385 890 431 370 646 589 510 859 903 762 
491 11 304 847 587 606 714 966 15 760 901 313 779 
492 11 163 697 742 67 600 396 908 197 749 347 407 
493 11 588 263 515 398 663 605 469 331 853 628 272 
494 11 921 703 501 653 673 31 678 189 293 305 342 
495 11 25 664 809 377 323 599 346 648 670 808 171 
496 11 615 662 858 211 950 47 361 281 262 485 150 
497 11 803 164 781 474 350 230 21 526 941 186 446 
498 11 287 794 5 20 218 509 630 237 522 531 900 
499 11 110 155 357 698 439 812 956 879 724 161 665 
500 11 246 667 889 796 633 169 133 453 518 779 360 
501 11 703 494 921 653 673 678 31 266 305 219 342 
502 11 627 125 947 332 926 4 596 959 604 66 414 
503 11 701 466 884 731 227 567 860 59 865 806 728 
504 11 158 134 674 368 468 866 472 214 704 427 484 
505 11 135 557 537 686 895 747 140 64 696 764 104 
506 11 791 115 325 609 179 400 769 700 864 3 53 
507 10 537 135 557 747 686 505 895 696 140 924 
508 11 38 18 774 288 920 723 249 740 952 78 138 
509 11 20 794 498 237 787 839 11 218 265 287 558 
510 11 903 370 685 148 589 689 859 320 385 586 490 
511 11 347 341 541 600 946 58 742 635 197 342 492 
512 11 184 32 816 559 241 777 75 513 699 93 836 
513 11 777 816 333 28 75 857 634 412 512 184 818 
514 11 661 549 771 194 610 44 714 763 847 906 966 
515 11 469 331 398 663 628 272 675 248 605 814 493 
516 11 565 892 17 665 425 299 181 8 152 837 322 
517 11 913 276 82 753 260 618 173 717 872 891 799 
518 11 267 658 360 453 942 92 672 741 246 415 821 
519 11 811 790 338 619 570 930 215 801 343 530 379 
520 11 712 73 205 532 199 810 880 224 758 394 459 
521 11 209 181 144 8 862 695 826 939 324 544 838 
522 11 166 630 387 5 50 800 287 49 218 498 932 
523 11 326 358 730 80 614 865 239 132 41 59 277 
524 11 581 596 4 818 634 807 332 401 234 947 28 
525 11 282 479 699 251 93 114 382 159 241 569 757 
526 11 474 202 497 164 803 230 446 350 775 781 480 
527 11 340 304 491 353 79 760 136 744 447 286 847 
528 11 373 643 711 488 531 648 121 336 76 886 961 
529 11 551 617 786 297 561 688 244 399 102 464 883 
530 11 379 215 426 316 344 142 235 656 570 338 351 
531 11 373 711 643 287 488 528 961 886 76 204 336 
532 11 199 712 758 205 520 459 895 505 403 686 666 
533 11 356 792 912 174 201 327 308 271 784 477 315 
534 11 141 867 143 967 231 10 34 270 605 624 259 
535 11 162 916 871 12 831 927 418 938 670 81 911 
536 11 63 478 720 278 228 681 671 873 372 137 793 
537 11 135 505 557 686 895 507 747 140 696 64 924 
538 11 101 235 351 223 542 436 591 656 451 943 780 
539 11 381 365 773 393 616 869 457 693 432 668 303 
540 11 170 40 100 631 933 677 330 768 579 378 118 
541 11 635 347 511 342 341 305 600 31 58 767 742 
542 11 851 780 451 943 101 888 957 538 375 223 910 
543 11 797 366 931 72 268 281 47 285 226 776 545 
544 11 939 129 838 611 3 864 53 324 766 521 700 
545 11 824 54 736 14 883 940 226 285 464 739 822 
546 11 36 16 62 423 294 137 873 687 302 573 346 
547 11 126 937 850 881 90 37 52 189 597 279 290 
548 11 463 952 899 187 774 225 623 448 508 740 273 
549 11 661 514 610 194 44 771 763 906 306 714 329 
550 11 705 754 411 843 49 121 336 936 167 50 709 
551 11 297 617 529 102 955 160 261 464 561 883 786 
552 11 679 116 743 690 942 415 452 254 360 694 453 
553 11 725 314 654 256 593 280 682 576 577 602 420 
554 11 182 576 314 352 666 280 459 577 420 553 386 
555 11 460 154 719 836 74 936 964 559 843 200 440 
556 11 915 61 629 383 388 265 669 839 237 900 444 
557 11 135 505 537 140 696 64 686 924 764 895 104 
558 11 802 11 841 236 787 911 509 657 592 618 20 
559 11 836 184 512 719 154 241 32 893 816 555 93 
560 11 43 123 335 789 483 852 965 193 914 153 647 
561 11 786 404 362 688 529 105 449 35 244 102 551 
562 11 186 941 781 21 668 669 629 381 457 773 61 
563 11 394 224 89 48 397 810 945 880 145 554 352 
564 11 733 207 756 660 625 647 23 482 88 896 107 
565 11 892 516 17 665 425 299 8 181 724 322 152 
566 11 948 834 364 208 56 741 53 92 3 325 766 
567 11 59 728 865 227 701 806 503 466 823 326 41 
568 11 88 647 483 107 564 733 207 756 625 660 560 
569 11 251 704 472 795 282 427 904 479 339 168 158 
570 11 142 338 619 801 215 426 613 98 379 530 656 
571 11 487 702 60 430 820 636 35 292 691 465 584 
572 11 762 842 484 859 214 337 203 890 715 382 114 
573 11 302 594 808 926 125 414 346 604 16 423 502 
574 11 813 165 876 399 127 244 877 14 7 176 739 
575 11 626 872 753 732 717 260 913 236 276 355 592 
576 11 314 352 182 280 577 420 554 386 553 654 666 
577 11 280 420 654 386 576 352 314 553 220 275 182 
578 11 389 953 298 727 465 691 192 22 887 334 798 
579 11 391 612 885 868 118 216 677 100 40 675 470 
580 11 9 85 119 183 722 835 69 77 750 960 27 
581 11 524 596 4 818 634 234 807 332 947 401 827 
582 11 715 178 337 655 468 674 646 431 572 762 890 
583 11 283 306 376 734 329 238 610 951 44 180 128 
584 11 820 465 691 192 402 578 389 422 22 430 727 
585 11 456 832 645 442 177 185 348 726 380 45 783 
586 11 320 95 84 757 114 382 919 203 424 685 859 
587 11 606 15 901 313 854 966 714 779 906 847 763 
588 11 493 263 515 853 398 605 840 489 469 663 331 
589 11 510 148 370 903 490 878 770 311 685 385 689 
590 11 421 111 687 372 486 414 423 738 16 463 681 
591 11 436 223 351 150 858 101 538 943 361 451 375 
592 11 81 42 236 732 911 418 257 355 802 841 657 
593 11 321 654 553 275 725 371 33 417 256 280 815 
594 11 808 302 604 346 926 29 384 573 125 274 809 
595 10 778 301 233 46 471 264 835 77 580 9 
596 11 4 332 524 947 581 627 502 66 807 959 234 
597 11 213 881 37 52 752 126 937 547 706 850 189 
598 11 676 684 652 266 925 878 311 678 113 501 703 
599 11 664 323 377 495 25 670 938 809 307 927 648 
600 11 347 742 492 511 163 697 197 908 946 541 767 
601 11 897 196 624 257 355 418 12 42 34 162 916 
602 11 256 242 682 725 403 33 553 445 593 191 666 
603 11 923 811 434 343 930 519 790 243 338 619 147 
604 11 29 594 926 384 125 808 274 502 627 302 573 
605 11 398 263 534 231 141 248 853 867 143 272 331 
606 11 587 15 901 854 313 966 714 906 847 779 763 
607 11 707 217 222 632 128 359 232 406 951 44 179 
608 11 729 406 232 390 400 609 179 650 700 769 324 
609 11 400 179 791 115 506 769 700 406 608 232 325 
610 11 44 194 549 661 763 514 607 707 306 222 906 
611 11 838 821 672 766 621 694 544 837 129 92 658 
612 11 391 868 579 675 118 885 814 172 663 628 216 
613 11 98 801 570 142 190 334 124 751 619 755 656 
614 11 132 730 108 863 358 80 87 239 649 783 395 
615 11 496 858 662 950 211 361 47 150 591 223 436 
616 11 693 393 539 303 833 365 381 349 773 290 869 
617 11 297 551 955 529 160 464 822 883 102 736 824 
618 11 717 891 841 476 11 787 802 236 558 82 799 
619 11 338 570 801 790 98 215 519 142 613 930 426 
620 11 875 870 329 335 306 583 283 965 549 661 902 
621 11 694 837 611 838 672 415 690 821 299 8 766 
622 11 410 844 30 105 887 39 449 755 798 165 212 
623 11 740 899 952 463 713 66 288 738 827 959 234 
624 11 897 34 355 601 257 196 418 659 42 967 12 
625 11 660 733 756 896 564 207 369 482 866 252 23 
626 11 575 872 753 732 260 717 276 913 355 236 257 
627 11 502 4 125 947 332 596 926 959 604 66 524 
628 11 331 469 272 675 814 515 248 663 172 398 70 
629 11 61 556 669 383 915 106 562 186 668 941 388 
630 11 5 522 218 900 498 166 794 800 287 387 944 
631 11 933 540 170 909 475 100 677 40 378 413 441 
632 11 217 232 707 222 359 607 406 179 128 115 609 
633 11 889 667 500 246 133 796 453 71 254 452 644 
634 11 818 28 401 333 807 524 581 513 777 721 4 
635 11 342 305 541 31 341 347 511 58 767 653 90 
636 11 35 449 430 105 60 798 702 404 561 362 410 
637 11 2 83 255 461 151 206 638 788 371 417 380 
638 11 255 637 2 371 461 83 151 206 417 649 87 
639 11 642 862 826 695 772 830 650 828 861 144 209 
640 11 944 284 221 131 800 949 407 900 968 157 630 
641 11 18 13 300 318 51 898 38 369 774 139 508 
642 11 639 772 861 830 438 650 828 862 826 695 91 
643 11 711 488 373 528 531 76 886 204 307 648 287 
644 11 633 310 133 353 889 79 136 796 374 667 735 
645 11 442 177 585 456 832 41 185 783 728 45 380 
646 11 431 770 890 385 178 490 655 715 582 337 370 
647 11 483 564 88 568 207 756 378 23 733 482 660 
648 11 171 323 528 377 25 121 336 373 643 495 664 
649 11 87 863 108 132 614 638 255 151 783 371 2 
650 11 729 390 608 406 639 861 232 642 862 324 400 
651 7 731 884 466 503 701 227 745 
652 11 598 678 676 684 925 266 501 878 703 311 494 
653 11 342 31 703 305 501 219 494 312 635 921 58 
654 11 280 577 420 553 275 593 314 386 576 815 321 
655 11 178 582 715 646 954 431 337 890 468 385 674 
656 11 235 538 101 426 316 142 351 542 751 780 344 
657 11 911 938 307 76 204 871 886 488 558 81 802 
658 11 267 672 518 821 92 766 415 942 56 611 694 
659 11 259 34 624 960 355 897 257 143 601 626 575 
660 11 625 756 896 733 207 482 564 369 23 252 866 
661 11 549 514 610 194 44 771 763 906 714 306 966 
662 11 950 361 858 485 211 262 375 496 615 176 223 
663 11 515 469 628 675 331 612 885 272 398 814 391 
664 11 495 377 25 323 599 809 670 648 346 171 307 
665 11 17 892 565 425 516 299 690 8 698 837 724 
666 11 459 182 554 682 314 403 576 553 256 602 725 
667 11 889 246 500 633 453 360 133 796 452 518 169 
668 11 457 381 773 869 669 365 432 746 383 562 61 
669 11 61 383 668 629 746 457 432 556 562 869 381 
670 11 927 599 664 495 831 809 62 323 377 25 871 
671 11 228 681 720 65 467 486 536 478 372 63 846 
672 11 821 658 267 611 766 694 92 415 621 838 518 
673 11 293 481 921 494 189 501 703 706 245 678 52 
674 11 468 504 337 158 134 866 715 368 582 214 842 
675 11 628 814 612 868 172 331 391 469 663 272 68 
676 11 684 266 598 311 878 925 652 113 689 855 148 
677 11 100 216 579 413 40 443 885 391 540 612 118 
678 11 652 494 501 921 703 598 673 266 676 684 293 
679 11 552 743 116 690 254 956 452 942 71 415 360 
680 11 785 435 94 145 408 220 130 397 156 386 815 
681 11 228 671 372 486 720 111 536 65 63 467 478 
682 11 256 602 403 725 242 553 666 314 33 459 593 
683 11 173 106 82 444 799 907 476 775 388 629 891 
684 11 676 598 266 311 878 925 652 113 689 148 855 
685 11 903 148 689 510 320 370 919 586 311 84 424 
686 11 895 747 135 505 537 557 507 140 64 146 696 
687 11 423 372 590 16 421 111 546 36 414 486 681 
688 11 786 244 399 561 105 529 876 813 410 574 449 
689 11 685 148 903 311 919 424 510 320 113 84 855 
690 11 116 299 425 621 694 837 415 942 17 552 665 
691 11 465 578 192 389 430 584 820 298 798 887 953 
692 11 138 249 300 723 78 139 38 339 904 317 103 
693 11 616 393 303 539 833 349 365 381 773 958 290 
694 11 621 415 672 837 611 821 838 942 690 658 267 
695 11 826 862 144 209 521 181 639 152 324 828 8 
696 11 140 924 882 64 557 250 860 277 104 537 764 
697 11 492 163 67 742 396 908 600 197 407 749 347 
698 11 357 665 724 892 17 155 110 565 499 956 516 
699 11 32 849 184 241 512 93 168 525 816 75 419 
700 11 769 864 3 324 400 609 939 791 53 129 506 
701 11 227 466 503 567 731 59 806 884 728 865 823 
702 11 60 487 571 430 636 35 292 856 449 798 820 
703 11 501 494 921 653 31 673 305 342 678 219 266 
704 11 472 569 251 795 427 158 282 479 134 904 214 
705 11 550 754 843 411 936 49 167 709 121 50 336 
706 11 52 245 293 597 784 481 752 189 881 126 213 
707 11 607 217 222 632 359 128 232 406 179 44 115 
708 11 240 480 526 202 474 803 446 97 164 230 497 
709 11 167 200 50 932 49 705 387 550 843 848 936 
710 11 433 848 934 932 800 949 387 718 782 57 221 
711 11 643 488 531 373 528 76 886 204 287 307 961 
712 11 532 520 205 199 758 73 459 810 666 403 554 
713 11 738 959 66 899 623 332 463 827 947 740 952 
714 11 966 847 15 906 854 606 763 587 194 901 491 
715 11 582 337 178 468 674 655 572 762 431 646 890 
716 11 188 788 405 130 380 726 2 83 461 637 151 
717 11 618 841 891 236 753 11 575 802 732 872 626 
718 11 57 968 782 949 433 710 934 455 221 848 800 
719 11 836 154 555 559 460 893 964 74 184 241 512 
720 11 228 478 536 278 671 63 681 68 372 486 65 
721 11 428 416 401 74 807 28 333 198 634 818 843 
722 11 69 183 119 276 260 85 750 580 9 960 872 
723 11 78 249 138 103 920 692 288 38 412 234 317 
724 11 122 322 392 357 892 565 96 698 516 665 17 
725 11 256 602 553 682 33 242 593 403 314 654 321 
726 11 380 405 188 348 585 716 788 151 2 177 637 
727 11 22 389 953 578 192 334 124 402 298 465 691 
728 11 567 806 59 865 823 41 227 442 645 701 177 
729 11 608 390 406 232 650 400 179 609 632 128 217 
730 11 80 239 358 132 614 395 108 523 277 326 87 
731 10 466 701 503 227 884 651 567 922 745 806 
732 11 575 592 42 626 236 81 257 355 872 717 753 
733 11 625 564 660 756 107 207 896 954 88 482 23 
734 11 951 376 128 180 283 607 390 238 707 217 232 
735 11 918 644 374 310 473 71 633 354 845 254 889 
736 11 464 824 883 226 545 822 54 14 160 285 776 
737 11 153 296 55 914 852 238 438 789 180 123 965 
738 11 713 959 899 66 623 463 332 947 414 740 827 
739 11 940 14 54 211 127 545 285 262 824 176 877 
740 11 623 288 952 827 920 899 234 463 66 713 103 
741 11 208 56 948 92 566 834 364 267 766 658 169 
742 11 163 492 600 697 347 767 67 396 749 511 908 
743 11 679 552 254 71 452 116 360 942 453 473 415 
744 11 845 340 374 310 353 527 79 644 136 760 133 
745 8 905 922 823 227 731 806 466 701 
746 11 157 432 131 929 383 457 668 669 869 61 284 
747 11 686 895 135 537 505 557 507 146 804 140 64 
748 11 253 295 424 855 312 175 109 120 219 919 113 
749 11 396 817 67 163 767 742 363 492 697 929 600 
750 11 119 276 183 9 722 458 260 69 27 913 517 
751 11 888 957 780 212 542 39 190 656 851 101 910 
752 11 213 597 37 477 881 52 706 937 784 126 547 
753 11 872 575 626 260 913 717 276 732 618 517 236 
754 11 411 550 705 121 336 843 49 936 171 961 167 
755 11 190 39 30 212 844 334 751 298 622 888 957 
756 11 207 660 482 896 23 564 625 252 733 378 768 
757 11 114 382 203 95 586 320 479 859 282 525 84 
758 11 199 205 459 403 666 532 242 682 712 602 256 
759 11 24 175 894 120 26 450 109 917 6 295 455 
760 11 286 136 79 796 133 779 353 500 169 313 491 
761 11 245 174 481 308 784 293 706 673 52 477 792 
762 11 572 842 484 859 214 337 203 890 382 715 114 
763 11 906 194 854 44 966 15 714 222 359 610 707 
764 11 104 445 64 250 277 191 242 395 140 33 602 
765 11 902 447 771 870 514 549 661 875 304 329 847 
766 11 821 92 611 672 56 129 208 267 658 838 53 
767 11 742 749 347 163 363 541 600 492 396 90 279 
768 11 330 252 482 23 170 378 896 291 149 207 756 
769 11 700 864 3 400 609 791 324 53 506 939 129 
770 11 490 385 431 890 646 370 589 510 762 859 903 
771 11 514 661 549 847 194 714 966 610 447 763 906 
772 11 642 830 639 861 91 828 438 441 296 650 55 
773 11 381 365 869 457 432 668 539 929 746 669 562 
774 11 508 18 38 225 149 641 548 952 288 300 920 
775 11 907 350 164 21 683 474 941 106 781 497 173 
776 11 928 822 226 160 366 736 19 464 543 545 797 
777 11 513 816 75 857 333 512 28 184 317 412 419 
778 11 301 233 595 46 471 835 77 264 580 840 9 
779 11 169 313 286 901 587 796 760 606 834 500 136 
780 11 542 888 957 851 451 751 910 101 943 212 538 
781 11 21 941 186 562 350 497 164 803 775 230 629 
782 11 934 718 433 210 710 848 26 57 932 949 968 
783 11 41 863 614 177 132 649 87 645 730 523 108 
784 11 308 245 477 706 174 752 792 52 481 597 761 
785 11 680 435 130 408 94 220 145 815 716 386 188 
786 11 688 561 244 105 529 449 399 410 876 404 813 
787 11 11 891 476 839 509 20 265 558 841 802 618 
788 11 2 83 637 461 716 151 206 255 380 638 417 
789 11 914 852 193 153 737 296 43 123 55 91 965 
790 11 930 619 519 338 343 434 811 801 570 98 215 
791 11 506 115 609 400 179 325 769 700 864 3 406 
792 11 201 271 477 308 315 784 174 533 912 752 245 
793 11 962 86 462 873 137 294 270 63 278 478 536 
794 11 20 237 218 509 498 5 839 900 265 630 287 
795 11 427 139 569 704 904 472 251 339 898 158 13 
796 11 133 286 136 760 500 79 779 667 633 246 889 
797 11 543 366 931 72 268 281 47 285 226 776 928 
798 11 887 449 105 844 298 410 622 430 636 691 578 
799 11 82 444 173 476 683 891 388 106 265 839 618 
800 11 221 949 710 433 848 944 387 934 932 968 57 
801 11 98 613 570 619 338 142 124 790 215 426 334 
802 11 558 841 11 236 787 911 592 618 657 717 509 
803 11 230 446 497 202 349 526 474 781 164 21 393 
804 11 112 146 747 507 895 686 537 135 505 557 117 
805 11 945 48 156 367 89 397 563 145 394 224 680 
806 11 823 728 227 567 922 701 59 865 466 442 645 
807 11 401 818 634 416 524 28 428 721 4 581 596 
808 11 302 346 594 573 604 29 384 926 809 125 495 
809 11 495 25 664 377 346 323 808 599 302 384 594 
810 11 554 459 182 563 224 73 666 205 394 352 576 
811 11 519 790 338 930 619 343 434 215 570 801 923 
812 11 879 956 110 439 499 679 698 161 155 357 552 
813 11 574 165 876 399 244 127 877 14 30 739 7 
814 11 172 68 675 272 628 70 331 720 868 469 248 
815 11 275 408 417 220 654 206 321 420 371 577 94 
816 11 512 777 184 513 32 75 559 857 333 849 241 
817 11 749 396 929 67 363 432 163 869 365 492 697 
818 11 634 401 28 524 581 807 333 513 4 596 721 
819 11 159 450 894 109 120 84 93 26 95 24 175 
820 11 584 465 691 487 430 192 571 578 702 389 60 
821 11 672 766 611 92 658 267 694 838 56 621 129 
822 11 160 736 226 464 776 883 824 545 617 928 54 
823 11 806 922 227 728 567 701 745 59 442 466 905 
824 11 883 545 736 54 464 14 226 940 739 822 285 
825 11 195 97 315 269 271 247 958 201 833 477 349 
826 11 695 862 144 209 521 639 181 152 324 828 939 
827 11 234 66 740 288 332 623 920 959 103 947 713 
828 11 830 96 152 639 772 441 642 695 826 322 392 
829 11 520 712 73 532 880 205 199 224 146 758 394 
830 11 828 772 441 642 639 96 152 91 826 861 695 
831 11 916 162 535 927 12 670 871 196 62 418 86 
832 11 456 185 585 45 442 645 348 177 726 380 41 
833 11 247 958 693 349 616 269 303 393 37 213 446 
834 11 566 948 741 169 208 56 364 313 325 53 92 
835 11 77 471 580 9 46 27 119 935 183 458 750 
836 11 719 154 559 555 893 460 184 241 964 512 32 
837 11 621 8 838 694 299 611 425 690 181 672 821 
838 11 611 544 837 621 8 129 766 821 672 694 939 
839 11 265 388 237 20 787 794 509 476 915 218 444 
840 11 853 429 263 231 46 960 85 605 259 580 659 
841 11 802 11 558 236 618 717 787 592 891 911 81 
842 11 484 214 572 762 203 859 337 382 114 479 472 
843 11 936 705 550 74 754 411 167 460 555 709 49 
844 11 622 410 30 887 755 39 298 798 190 105 212 
845 11 374 744 310 340 353 644 735 79 136 527 133 
846 11 467 65 187 486 963 671 111 470 681 372 228 
847 11 714 966 15 606 491 587 906 854 763 304 194 
848 11 433 710 934 932 387 800 782 949 709 166 200 
849 11 168 75 419 699 857 339 32 317 816 904 512 
850 11 90 547 126 189 937 52 881 31 279 305 290 
851 11 451 542 943 780 375 7 485 888 910 957 101 
852 11 153 123 737 914 789 965 296 55 238 43 180 
853 11 263 231 840 605 429 141 534 143 259 960 867 
854 11 15 906 606 901 763 587 966 714 313 194 359 
855 11 113 312 219 748 253 58 266 424 341 653 295 
856 11 292 404 362 35 561 102 636 437 60 261 702 
857 11 75 317 419 412 777 513 168 816 849 339 512 
858 11 662 361 950 223 591 485 615 436 496 375 943 
859 11 203 762 572 842 484 757 114 370 382 214 510 
860 9 924 884 503 882 696 701 466 731 326 
861 11 438 642 772 639 650 55 180 296 390 737 153 
862 11 144 695 826 209 521 324 639 181 939 650 152 
863 11 649 87 614 783 132 108 41 638 151 255 730 
864 11 3 769 700 53 129 939 364 791 324 544 400 
865 11 59 567 326 728 523 41 358 783 701 806 614 
866 11 368 134 504 468 51 674 158 318 898 13 427 
867 11 141 143 534 967 10 34 270 231 624 462 196 
868 11 391 612 118 675 579 172 814 470 963 885 628 
869 11 365 457 432 773 381 668 929 539 746 817 669 
870 11 875 620 329 902 514 306 549 661 765 771 583 
871 11 535 927 916 162 938 657 831 911 12 670 81 
872 11 626 753 575 260 732 276 717 913 618 517 69 
873 11 137 294 36 86 793 546 962 62 63 536 16 
874 11 443 229 216 413 309 885 677 100 579 663 319 
875 11 329 870 620 306 583 283 549 661 514 610 335 
876 11 399 813 574 244 165 14 54 127 739 877 688 
877 11 127 7 176 262 910 165 375 485 574 813 851 
878 11 311 925 684 676 598 148 589 266 689 652 685 
879 11 812 956 439 110 679 499 743 354 161 552 473 
880 11 224 394 73 563 945 810 48 89 367 520 397 
881 11 37 937 213 597 126 547 52 752 290 850 279 
882 11 924 696 250 326 860 523 358 277 140 80 239 
883 11 464 824 736 545 54 14 226 822 399 940 739 
884 8 503 731 466 860 701 651 227 567 
885 11 216 579 612 391 663 677 868 675 443 100 874 
886 11 204 76 488 643 711 307 531 373 528 287 657 
887 11 298 798 844 622 953 578 410 755 334 190 389 
888 11 957 780 212 751 542 910 851 39 451 943 7 
889 11 667 633 246 500 453 360 452 133 254 71 796 
890 11 385 431 490 770 646 370 762 572 859 337 715 
891 11 476 618 787 799 82 717 11 444 388 841 265 
892 11 665 565 17 516 425 299 724 8 698 181 690 
893 11 93 241 154 559 836 719 32 184 440 964 512 
894 11 450 120 24 759 109 175 26 819 295 159 917 
895 11 686 747 135 505 537 557 507 146 140 532 64 
896 11 482 252 756 660 23 207 768 625 291 369 149 
897 11 355 601 624 257 418 196 42 34 12 81 592 
898 11 13 318 51 368 427 139 300 134 795 641 866 
899 11 463 623 952 713 738 740 66 959 827 288 234 
900 11 218 5 237 630 794 640 944 498 915 20 522 
901 11 313 587 15 606 854 779 834 966 906 169 714 
902 11 765 870 875 771 620 447 514 329 549 661 306 
903 11 510 685 148 370 689 320 589 586 859 311 919 
904 11 339 168 419 139 795 849 251 317 569 692 857 
905 8 745 922 823 227 806 731 466 701 
906 11 763 854 194 15 966 714 606 44 222 359 901 
907 11 775 350 164 683 106 21 173 941 781 474 82 
908 11 197 407 697 492 600 163 67 742 946 968 396 
909 11 91 441 193 772 830 914 296 475 828 789 642 
910 11 212 7 888 957 851 877 780 176 451 542 39 
911 11 657 81 592 871 938 236 558 802 42 307 535 
912 11 201 271 533 792 356 327 315 97 195 825 477 
913 11 517 753 276 260 872 717 575 626 618 750 891 
914 11 296 789 737 153 852 55 193 91 123 438 238 
915 11 556 61 383 629 388 265 237 839 669 900 218 
916 11 162 535 831 12 871 927 418 670 196 938 42 
917 11 6 455 24 759 946 175 718 197 57 120 253 
918 11 354 473 735 71 254 644 743 633 889 679 452 
919 11 424 84 320 586 109 295 95 689 748 120 450 
920 11 288 103 740 234 78 827 723 623 249 952 508 
921 11 494 703 501 673 653 31 189 293 678 305 342 
922 11 823 745 806 905 227 466 701 728 731 567 59 
923 11 603 434 343 811 930 790 519 243 619 147 338 
924 11 882 696 860 140 250 64 326 277 523 358 80 
925 11 878 598 684 676 311 652 266 589 148 689 678 
926 11 125 604 502 594 573 627 808 29 302 414 384 
927 11 670 871 535 831 916 162 599 938 12 664 307 
928 11 776 19 366 160 822 226 797 543 736 464 545 
929 11 432 157 817 746 396 869 67 457 365 131 749 
930 11 343 434 790 619 519 338 801 811 98 124 570 
931 11 72 268 281 47 543 797 285 366 496 615 940 
932 11 848 387 433 934 710 709 167 200 50 166 800 
933 11 170 378 631 540 768 23 330 482 207 252 647 
934 11 433 710 848 932 782 387 718 800 949 57 200 
935 11 27 458 328 9 750 119 77 835 471 183 580 
936 11 843 74 705 460 550 555 754 167 200 411 709 
937 11 126 881 547 37 213 290 597 279 850 90 52 
938 11 307 657 599 871 76 927 204 911 323 886 488 
939 11 544 324 129 864 700 3 769 521 838 53 144 
940 11 739 14 54 285 545 211 824 127 262 47 176 
941 11 21 186 781 562 350 106 629 497 669 668 164 
942 11 415 116 360 267 658 694 518 453 672 452 621 
943 11 451 375 851 485 542 223 361 7 101 591 176 
944 11 640 221 800 949 284 968 900 131 630 407 5 
945 11 48 805 89 367 563 394 397 224 156 880 145 
946 11 511 6 197 600 917 341 347 455 908 58 541 
947 11 332 959 4 66 596 502 627 827 125 713 234 
948 11 56 208 566 741 364 92 834 53 766 3 129 
949 11 221 800 968 57 710 433 718 944 848 934 640 
950 11 361 662 262 485 858 211 375 176 7 943 496 
951 11 128 734 376 390 607 232 217 180 406 632 707 
952 11 463 623 899 740 288 713 738 920 827 66 234 
953 11 334 298 389 578 727 22 887 190 755 124 192 
954 11 655 178 582 715 107 646 733 337 468 625 674 
955 11 297 617 551 160 822 102 261 529 464 736 776 
956 11 110 812 679 879 698 552 499 357 743 439 665 
957 11 888 780 212 751 542 910 851 39 451 943 7 
958 11 247 269 833 349 446 693 825 616 393 230 195 
959 11 66 332 947 713 738 502 827 627 4 596 623 
960 11 85 429 259 659 69 722 183 34 231 580 260 
961 11 336 121 49 373 531 50 411 528 550 754 166 
962 11 793 86 462 137 873 270 294 63 278 10 478 
963 11 470 187 846 448 118 467 65 273 486 868 671 
964 11 440 460 154 210 555 719 836 893 200 559 26 
965 11 123 852 153 238 737 55 789 914 376 180 296 
966 11 714 847 15 606 854 906 587 763 901 194 313 
967 11 867 143 141 534 34 270 196 601 624 10 462 
968 11 57 949 718 221 407 800 433 710 944 908 197 
DEPOT_SECTION
   1
   -1
EOF
