NAME :  X-n916-kX-w91-c9.cctp
COMMENT : 	Adapted by Maziero, Usberti and Cavellucci from the Uchoa, Pecin, Pessoa, Poggi, Subramanian, and Vidal (2013)
TYPE :  CCTP
DIMENSION :    523
EDGE_WEIGHT_TYPE : 	EUC_2D	
CAPACITY : 	33
VERTICES_WITHIN_COVERAGE :  9
VERTICES_WITH_DEMAND : 	91
NODE_COORD_SECTION
1 0 0
2 471 44
3 63 475
4 766 504
5 895 595
6 816 377
7 462 590
8 997 596
9 775 993
10 16 97
11 839 348
12 558 896
13 423 912
14 169 411
15 75 602
16 402 52
17 388 208
18 202 39
19 510 841
20 555 484
21 920 633
22 369 718
23 432 696
24 624 872
25 472 323
26 753 701
27 584 440
28 292 665
29 202 310
30 764 255
31 662 486
32 822 575
33 469 13
34 640 165
35 814 886
36 554 82
37 336 745
38 950 229
39 142 835
40 407 932
41 69 205
42 86 764
43 202 165
44 376 632
45 639 987
46 775 98
47 503 855
48 38 960
49 215 73
50 566 78
51 4 517
52 44 457
53 676 337
54 338 568
55 623 911
56 626 931
57 97 43
58 799 942
59 725 430
60 93 953
61 264 347
62 986 595
63 631 614
64 331 362
65 158 793
66 760 436
67 115 641
68 307 764
69 469 817
70 315 388
71 906 830
72 564 25
73 88 246
74 671 892
75 181 139
76 723 784
77 609 798
78 174 403
79 76 671
80 984 939
81 830 579
82 3 893
83 176 164
84 625 158
85 249 590
86 663 347
87 21 500
88 501 372
89 572 218
90 483 270
91 604 201
92 548 281
93 125 178
94 759 839
95 79 105
96 545 62
97 161 102
98 1 827
99 16 732
100 24 521
101 848 600
102 585 594
103 618 577
104 44 300
105 479 978
106 768 731
107 274 30
108 546 837
109 890 640
110 878 716
111 498 448
112 145 96
113 473 5
114 277 752
115 630 686
116 521 401
117 850 425
118 374 186
119 712 433
120 814 730
121 120 490
122 376 534
123 982 560
124 815 625
125 659 994
126 804 110
127 549 366
128 57 742
129 848 739
130 381 700
131 442 808
132 581 91
133 416 56
134 729 620
135 163 73
136 160 129
137 468 902
138 694 730
139 319 644
140 863 921
141 524 71
142 987 845
143 998 548
144 550 142
145 637 527
146 168 0
147 178 804
148 275 772
149 587 967
150 331 4
151 811 598
152 560 886
153 712 512
154 528 75
155 980 512
156 90 78
157 788 322
158 665 990
159 400 702
160 131 24
161 238 610
162 392 541
163 40 394
164 713 806
165 823 571
166 863 568
167 145 20
168 509 893
169 629 447
170 525 774
171 695 620
172 721 979
173 594 451
174 514 110
175 772 937
176 533 82
177 399 742
178 273 688
179 360 780
180 650 339
181 272 771
182 362 515
183 716 823
184 307 627
185 787 639
186 28 212
187 38 119
188 535 632
189 832 952
190 106 653
191 934 692
192 638 325
193 126 820
194 382 958
195 884 840
196 424 652
197 841 543
198 863 886
199 179 817
200 512 412
201 111 1
202 811 631
203 366 758
204 227 575
205 398 905
206 285 104
207 245 215
208 569 401
209 159 310
210 20 90
211 212 39
212 13 641
213 855 610
214 95 571
215 780 936
216 63 84
217 334 695
218 988 790
219 497 712
220 676 581
221 625 400
222 351 55
223 572 827
224 584 930
225 482 749
226 110 723
227 230 362
228 540 63
229 161 162
230 137 87
231 177 274
232 916 866
233 634 157
234 42 213
235 655 154
236 21 698
237 435 615
238 120 425
239 54 726
240 475 624
241 923 980
242 391 94
243 463 618
244 568 659
245 999 831
246 796 547
247 123 595
248 515 939
249 550 757
250 695 337
251 40 727
252 217 284
253 536 956
254 262 332
255 91 91
256 697 755
257 894 726
258 919 962
259 253 535
260 703 346
261 416 895
262 330 596
263 475 780
264 365 803
265 844 845
266 802 755
267 77 246
268 759 835
269 71 176
270 244 82
271 564 436
272 749 216
273 30 624
274 677 208
275 980 257
276 582 317
277 421 870
278 183 454
279 442 766
280 867 873
281 582 382
282 35 597
283 527 786
284 991 617
285 581 780
286 964 211
287 696 784
288 102 90
289 227 699
290 76 258
291 705 580
292 752 531
293 246 128
294 834 350
295 809 825
296 468 650
297 523 626
298 110 964
299 422 180
300 940 246
301 513 333
302 446 78
303 992 939
304 24 763
305 17 536
306 142 464
307 621 976
308 286 774
309 349 202
310 841 520
311 134 20
312 103 639
313 555 920
314 987 735
315 608 750
316 471 58
317 482 339
318 966 994
319 501 384
320 3 25
321 632 304
322 180 66
323 300 608
324 591 113
325 569 817
326 165 31
327 137 397
328 858 354
329 846 618
330 0 438
331 308 337
332 772 594
333 684 931
334 76 667
335 750 130
336 538 354
337 725 339
338 758 410
339 664 460
340 90 978
341 480 247
342 30 919
343 481 281
344 291 346
345 297 568
346 41 933
347 32 959
348 351 192
349 402 223
350 125 815
351 542 231
352 356 901
353 50 932
354 456 587
355 249 311
356 993 242
357 499 264
358 801 81
359 740 343
360 22 856
361 120 843
362 285 767
363 647 167
364 69 955
365 681 214
366 303 406
367 306 364
368 443 329
369 256 544
370 246 156
371 744 203
372 795 267
373 403 167
374 970 207
375 159 405
376 142 807
377 631 386
378 374 989
379 568 286
380 187 768
381 369 80
382 166 764
383 74 791
384 53 1000
385 787 73
386 787 362
387 547 281
388 24 961
389 687 320
390 156 826
391 297 604
392 122 849
393 500 280
394 216 326
395 788 310
396 50 951
397 521 285
398 566 179
399 51 802
400 602 414
401 568 274
402 363 614
403 266 562
404 21 904
405 978 188
406 436 737
407 85 979
408 553 441
409 118 745
410 348 368
411 281 341
412 231 337
413 479 274
414 589 30
415 486 301
416 261 354
417 169 825
418 934 247
419 547 203
420 366 344
421 121 678
422 150 301
423 520 532
424 185 796
425 184 339
426 254 377
427 785 101
428 944 220
429 392 85
430 223 275
431 72 966
432 451 269
433 590 292
434 816 399
435 10 893
436 431 819
437 507 957
438 104 710
439 445 305
440 530 28
441 772 457
442 568 311
443 649 30
444 792 295
445 310 398
446 108 980
447 113 943
448 469 247
449 48 802
450 299 571
451 319 377
452 506 64
453 277 359
454 325 320
455 585 222
456 131 436
457 280 364
458 175 812
459 678 290
460 960 590
461 927 210
462 494 399
463 563 224
464 227 316
465 234 332
466 345 175
467 125 846
468 420 185
469 16 979
470 746 95
471 874 368
472 735 65
473 16 952
474 698 290
475 392 244
476 822 706
477 567 222
478 569 663
479 939 225
480 252 380
481 64 517
482 875 542
483 786 222
484 205 294
485 189 798
486 93 968
487 497 523
488 329 391
489 548 355
490 630 125
491 322 213
492 390 957
493 435 336
494 144 827
495 131 239
496 484 279
497 413 905
498 775 116
499 932 226
500 807 379
501 332 319
502 456 720
503 18 846
504 50 970
505 370 207
506 46 964
507 541 303
508 206 314
509 877 322
510 533 279
511 307 397
512 561 527
513 47 963
514 960 209
515 698 347
516 408 243
517 677 170
518 37 1000
519 133 830
520 107 466
521 798 121
522 294 796
523 996 220
DEMAND_SECTION
2 8
3 6
4 7
5 6
6 10
7 10
8 5
9 7
10 8
11 8
12 6
13 6
14 6
15 6
16 5
17 8
18 6
19 10
20 9
21 8
22 9
23 6
24 10
25 10
26 6
27 6
28 6
29 9
30 9
31 10
32 9
33 6
34 5
35 5
36 6
37 10
38 8
39 5
40 6
41 9
42 8
43 7
44 8
45 6
46 7
47 6
48 5
49 7
50 9
51 8
52 8
53 10
54 8
55 7
56 10
57 6
58 5
59 6
60 10
61 7
62 6
63 7
64 8
65 9
66 9
67 9
68 6
69 10
70 7
71 9
72 5
73 7
74 9
75 6
76 5
77 9
78 6
79 5
80 5
81 5
82 7
83 10
84 10
85 6
86 9
87 7
88 10
89 10
90 7
91 10
92 7
COVERAGE_SECTION
2 9 316 33 113 452 302 133 141 440 154 
3 9 52 481 520 87 121 100 51 330 238 
4 8 292 441 246 153 66 310 59 197 
5 9 166 213 21 109 101 329 482 460 81 
6 8 500 434 294 386 11 328 117 471 
7 8 354 243 240 237 296 297 196 487 
8 9 62 284 460 123 143 21 155 5 191 
9 7 58 172 175 215 189 158 333 
10 9 210 187 216 95 320 255 156 288 269 
11 8 294 328 6 471 500 509 386 434 
12 9 152 313 224 168 108 248 253 55 47 
13 9 497 261 40 205 277 137 492 194 352 
14 7 78 375 327 278 456 238 306 
15 9 214 282 312 247 273 67 190 334 79 
16 8 133 429 242 381 222 302 2 316 
17 8 505 349 118 475 309 468 348 516 
18 9 211 322 49 326 135 146 167 270 311 
19 9 47 108 69 168 283 223 325 152 170 
20 9 408 512 271 173 27 423 111 487 169 
21 9 109 5 460 191 213 284 62 329 101 
22 9 130 159 177 203 217 37 179 23 406 
23 9 159 502 406 196 130 177 296 22 219 
24 9 55 74 56 152 223 12 224 77 325 
25 9 317 415 368 439 493 301 343 496 413 
26 8 106 138 120 476 185 266 256 134 
27 9 173 271 408 400 208 169 20 221 281 
28 9 178 139 184 217 323 391 289 161 262 
29 9 508 484 394 464 252 425 465 412 430 
30 7 372 483 272 444 371 395 157 
31 9 339 145 169 153 119 173 59 27 221 
32 9 165 81 151 101 197 246 166 213 329 
33 9 113 2 316 440 452 133 302 16 141 
34 9 363 233 84 235 517 490 91 274 365 
35 9 198 265 280 58 140 215 295 175 189 
36 9 50 176 96 228 154 132 141 324 174 
37 9 203 68 179 22 217 362 308 114 177 
38 9 428 479 499 300 514 286 418 374 461 
39 9 494 519 390 467 193 361 392 350 376 
40 9 13 205 497 492 194 261 352 277 378 
41 9 234 269 186 267 73 290 93 495 187 
42 8 383 128 409 226 239 399 449 438 
43 9 83 75 229 370 136 293 207 97 93 
44 9 402 196 139 262 237 130 184 54 159 
45 9 125 307 158 149 56 333 55 224 172 
46 7 427 498 385 470 126 358 521 
47 9 19 168 108 69 137 152 12 283 223 
48 8 347 506 513 388 396 504 473 346 
49 9 270 211 18 322 135 97 293 326 107 
50 9 36 132 96 228 176 154 141 324 72 
51 9 100 305 87 481 3 52 330 282 214 
52 8 3 330 87 163 481 520 100 51 
53 9 86 250 389 515 180 260 192 459 337 
54 9 262 450 345 122 402 323 391 182 162 
55 9 56 24 224 74 333 307 12 149 152 
56 9 55 224 307 149 45 333 24 74 125 
57 9 156 160 201 311 288 255 167 216 230 
58 6 215 175 189 9 35 140 
59 9 119 66 338 441 339 153 31 4 260 
60 7 486 298 447 364 340 431 407 
61 9 416 254 411 453 457 344 426 412 465 
62 9 8 284 460 123 143 21 155 5 109 
63 9 103 102 220 171 115 244 478 291 145 
64 9 410 451 367 488 70 331 420 445 454 
65 9 376 147 458 424 382 485 199 390 417 
66 8 441 338 59 119 434 4 500 386 
67 7 312 190 421 247 334 79 15 
68 7 362 308 114 148 37 522 181 
69 9 131 263 436 19 47 279 283 225 170 
70 7 445 451 511 488 366 367 64 
71 8 195 232 280 265 198 142 218 245 
72 9 414 440 96 228 50 36 141 154 176 
73 9 267 290 495 41 234 186 104 269 93 
74 9 333 24 55 56 183 224 164 158 307 
75 9 136 83 229 43 97 112 293 370 93 
76 9 164 287 256 183 138 268 94 106 266 
77 9 285 325 223 315 249 108 24 283 170 
78 6 14 375 327 278 456 238 
79 9 334 190 312 421 438 67 239 236 226 
80 6 303 318 258 241 142 232 
81 9 32 165 151 101 166 197 213 329 246 
82 6 435 404 342 360 503 346 
83 9 229 75 43 136 93 97 370 112 293 
84 9 233 34 363 235 490 91 517 324 398 
85 9 161 204 403 369 391 345 450 323 259 
86 9 180 53 192 250 515 389 260 377 321 
87 9 100 51 305 481 3 52 330 520 282 
88 9 319 462 116 317 200 301 336 127 489 
89 7 477 463 455 419 351 91 398 
90 8 413 496 343 357 393 341 448 415 
91 9 455 89 477 398 463 84 34 233 363 
92 7 387 510 379 401 507 397 442 
93 9 229 83 269 136 495 41 75 73 43 
94 9 268 183 295 164 76 35 287 265 266 
95 9 255 216 288 156 187 210 230 10 57 
96 9 228 154 36 141 176 50 440 452 72 
97 9 112 136 230 135 322 75 229 288 49 
98 6 503 360 449 399 82 435 
99 8 251 304 236 239 128 42 449 399 
100 9 305 51 87 481 3 52 282 330 214 
101 9 213 329 81 166 32 151 165 124 5 
102 9 103 63 188 244 297 478 512 145 423 
103 9 102 63 145 220 512 291 171 244 478 
104 3 290 267 73 
105 9 437 248 253 137 40 13 168 492 313 
106 9 26 266 120 476 76 138 256 129 287 
107 9 270 150 211 18 49 206 222 322 293 
108 9 223 325 19 47 152 283 12 170 168 
109 9 21 5 213 329 101 191 124 110 166 
110 9 257 129 476 191 120 109 266 21 329 
111 7 200 462 116 408 319 20 271 
112 9 230 97 135 136 288 322 255 75 156 
113 9 33 2 316 440 452 133 302 141 16 
114 6 362 148 181 308 68 522 
115 9 478 244 315 63 138 171 256 102 285 
116 9 200 319 462 88 127 208 336 408 111 
117 2 434 6 
118 9 505 348 17 309 466 373 349 468 299 
119 9 59 66 338 339 441 31 153 169 260 
120 9 476 266 129 106 110 26 257 185 295 
121 7 520 306 456 3 481 238 278 
122 3 162 182 54 
123 8 143 62 460 8 155 284 5 21 
124 9 202 151 185 329 101 213 81 32 332 
125 9 158 45 307 172 333 56 149 55 224 
126 5 521 427 358 498 46 
127 9 489 336 281 208 116 88 301 319 442 
128 8 239 251 42 304 99 383 226 236 
129 9 120 110 476 257 266 106 295 191 26 
130 9 159 22 177 217 23 203 37 196 406 
131 9 436 69 279 263 277 225 406 19 47 
132 9 50 324 36 96 176 228 154 141 144 
133 9 16 302 429 242 381 316 2 222 33 
134 8 171 291 332 185 220 202 26 151 
135 9 322 97 112 230 326 18 49 136 167 
136 9 75 97 229 112 83 230 43 135 93 
137 9 168 13 261 497 277 47 248 437 40 
138 9 256 287 76 26 106 115 164 315 183 
139 9 184 28 323 391 262 217 402 44 178 
140 4 198 189 280 35 
141 9 154 176 228 452 96 36 174 50 440 
142 8 245 218 232 71 80 303 195 314 
143 7 123 155 8 62 460 284 5 
144 6 398 174 324 36 132 419 
145 9 31 103 220 339 153 512 169 102 291 
146 9 167 326 311 160 18 201 211 322 135 
147 7 458 424 199 485 65 417 390 
148 6 181 308 362 114 522 68 
149 9 307 224 253 56 45 313 55 12 125 
150 9 222 107 381 16 133 429 242 206 270 
151 9 32 81 124 165 202 101 332 329 213 
152 9 12 313 224 108 168 223 47 24 19 
153 9 292 4 31 291 339 145 220 119 441 
154 9 141 176 228 96 452 36 50 174 440 
155 5 143 123 460 62 8 
156 9 255 288 216 95 57 230 112 187 160 
157 8 395 444 386 359 294 372 11 500 
158 9 125 45 307 172 333 56 149 55 74 
159 9 130 23 22 177 406 196 502 203 217 
160 9 311 167 201 326 57 146 135 230 322 
161 9 85 204 403 391 323 369 184 345 450 
162 3 122 182 54 
163 3 330 52 3 
164 9 183 76 287 256 268 94 138 106 74 
165 9 32 81 151 197 246 101 166 213 329 
166 9 482 197 81 101 165 5 32 213 310 
167 9 311 160 326 146 201 57 135 322 18 
168 9 47 137 248 12 152 19 313 437 108 
169 9 173 339 400 27 221 31 377 271 208 
170 9 283 249 225 263 285 325 108 219 19 
171 8 134 291 220 63 332 103 115 185 
172 9 9 158 333 125 175 215 45 58 74 
173 9 27 271 169 400 408 20 208 221 281 
174 6 176 154 141 452 144 36 
175 8 215 58 9 189 35 172 333 140 
176 8 154 141 228 36 96 452 50 174 
177 9 203 406 22 159 130 279 179 23 502 
178 7 28 289 217 114 139 184 362 
179 7 203 264 37 177 68 22 522 
180 8 86 192 53 321 389 250 515 377 
181 6 148 308 362 114 522 68 
182 3 122 162 54 
183 9 164 76 287 268 94 256 74 295 138 
184 9 323 139 391 262 28 402 450 345 54 
185 8 202 124 332 151 134 329 26 101 
186 9 234 41 269 267 290 73 104 187 93 
187 9 10 210 95 216 255 156 269 288 41 
188 9 297 244 478 240 102 296 243 7 219 
189 5 58 140 215 175 35 
190 8 312 67 421 334 79 438 15 247 
191 9 257 21 110 109 314 284 129 5 460 
192 7 180 321 86 53 389 459 276 
193 6 350 519 494 376 39 361 
194 8 492 378 40 205 497 13 352 261 
195 8 71 280 265 232 198 295 35 140 
196 9 237 296 23 44 243 159 240 130 354 
197 8 310 165 166 482 32 81 246 101 
198 6 280 140 265 35 195 232 
199 7 458 147 417 485 424 390 65 
200 8 116 462 319 111 88 408 271 208 
201 9 160 311 167 57 146 326 156 135 288 
202 9 124 185 151 329 101 213 332 81 32 
203 9 179 37 177 22 264 68 130 159 217 
204 5 85 161 403 369 259 
205 8 497 261 13 40 277 352 492 194 
206 8 293 270 370 107 49 222 381 466 
207 5 370 430 43 252 491 
208 9 281 271 400 127 27 408 116 489 173 
209 7 422 425 231 29 508 484 394 
210 9 10 187 216 95 320 156 255 288 57 
211 9 18 49 322 326 270 146 135 107 167 
212 9 273 282 236 334 79 15 251 312 99 
213 9 101 329 81 5 124 166 109 151 32 
214 8 15 247 481 282 312 67 190 273 
215 7 175 58 189 9 35 172 140 
216 9 95 156 255 288 187 210 10 57 230 
217 9 22 130 37 28 139 178 159 203 184 
218 9 245 142 314 71 232 191 257 195 110 
219 9 225 502 406 23 170 296 249 263 279 
220 8 291 171 63 103 134 145 153 292 
221 9 377 400 169 281 208 27 173 86 180 
222 8 381 16 429 150 242 133 107 206 
223 9 325 108 77 285 152 283 19 24 12 
224 9 313 149 56 12 55 152 253 307 24 
225 9 263 502 219 279 406 170 283 249 69 
226 6 438 409 421 42 128 239 
227 7 412 426 480 465 416 61 394 
228 9 96 154 141 176 36 50 452 440 72 
229 9 83 75 136 93 43 97 112 230 495 
230 9 112 97 135 288 255 136 156 322 57 
231 9 484 422 209 252 29 430 508 495 394 
232 7 71 195 280 198 142 265 140 
233 9 84 34 363 235 490 517 91 324 274 
234 9 186 41 269 267 290 73 104 93 495 
235 8 363 34 233 517 84 490 274 365 
236 8 99 251 239 128 212 79 334 304 
237 9 243 354 7 196 240 296 44 402 23 
238 8 456 327 520 375 306 14 78 121 
239 8 251 128 99 236 304 42 438 226 
240 9 243 296 7 237 354 297 196 188 23 
241 4 258 318 80 303 
242 7 429 381 16 133 222 302 373 
243 9 240 7 237 296 354 196 297 188 23 
244 9 478 188 297 102 115 63 219 103 240 
245 8 142 218 232 71 314 303 80 195 
246 9 165 32 197 81 292 4 310 151 332 
247 8 214 67 312 15 190 421 334 282 
248 9 437 253 313 168 105 137 12 152 224 
249 9 170 283 285 315 325 225 219 77 223 
250 9 515 260 53 389 337 86 180 359 474 
251 8 239 128 99 236 304 42 438 79 
252 8 430 484 29 508 464 231 355 394 
253 9 248 437 313 149 224 105 12 168 152 
254 9 61 411 416 355 465 412 453 344 457 
255 9 288 156 95 216 230 57 112 187 97 
256 9 138 287 76 164 183 106 26 315 115 
257 9 110 129 191 476 120 109 314 266 21 
258 3 241 318 80 
259 4 369 403 204 85 
260 9 515 250 337 53 389 359 86 180 474 
261 8 497 13 205 277 40 137 352 492 
262 9 54 323 391 402 184 450 345 139 44 
263 9 225 279 69 131 170 283 406 436 502 
264 6 179 203 37 436 68 177 
265 8 280 195 295 198 35 71 232 140 
266 9 120 106 129 476 295 26 76 110 268 
267 9 73 290 41 234 495 186 104 269 93 
268 9 94 183 295 164 76 35 287 265 266 
269 9 41 234 93 186 187 267 95 73 290 
270 9 49 293 206 211 18 107 322 370 135 
271 9 408 27 173 208 400 20 116 200 281 
272 4 371 483 30 365 
273 9 212 282 15 334 79 236 312 190 214 
274 8 365 517 363 34 235 233 371 84 
275 4 356 523 38 300 
276 7 442 433 379 507 401 92 387 
277 8 261 497 13 205 436 137 40 131 
278 5 306 14 78 375 456 
279 9 406 263 131 225 502 177 436 69 23 
280 7 198 265 195 140 232 35 71 
281 9 208 127 400 489 221 377 336 271 27 
282 9 273 15 212 305 214 100 312 334 79 
283 9 170 249 263 325 108 285 19 225 223 
284 9 8 62 460 123 143 21 191 5 109 
285 9 77 249 325 315 223 283 170 108 19 
286 8 514 374 428 38 405 479 523 499 
287 9 76 164 256 183 138 268 94 77 106 
288 9 255 156 95 230 216 112 57 97 135 
289 3 178 28 114 
290 8 267 73 41 104 234 495 186 269 
291 8 220 171 134 153 292 332 63 145 
292 9 4 153 246 332 291 441 165 32 151 
293 8 370 206 270 43 49 75 83 136 
294 9 11 328 6 500 471 386 509 434 157 
295 9 265 268 94 35 266 280 195 198 183 
296 9 240 243 196 237 23 7 297 354 219 
297 9 188 240 244 478 296 243 102 7 354 
298 6 446 486 60 447 340 407 
299 5 468 373 17 349 118 
300 5 418 38 479 499 428 
301 9 317 336 88 489 507 25 415 127 397 
302 6 316 133 2 16 429 242 
303 7 80 318 258 241 142 232 245 
304 8 99 128 251 449 399 239 383 42 
305 9 100 51 87 481 282 3 52 214 15 
306 8 456 121 520 278 238 14 375 327 
307 9 45 149 125 56 158 224 55 333 253 
308 6 362 148 181 68 522 114 
309 8 348 505 466 491 118 17 349 475 
310 6 197 482 246 166 165 32 
311 9 160 167 201 326 146 57 135 322 230 
312 8 67 190 334 79 421 15 247 214 
313 9 12 224 152 253 248 168 149 437 55 
314 9 218 191 257 245 142 110 284 21 71 
315 9 285 77 249 115 325 223 170 138 256 
316 8 2 302 452 33 113 133 141 154 
317 9 25 301 88 415 368 493 319 439 336 
318 4 241 258 80 303 
319 9 88 462 116 200 336 317 127 301 489 
320 9 210 10 216 57 187 156 95 255 201 
321 6 192 180 433 459 276 86 
322 9 135 18 49 326 97 211 112 230 167 
323 9 391 184 262 450 345 139 85 54 403 
324 8 132 490 50 36 144 84 233 176 
325 9 223 108 285 77 283 170 249 19 152 
326 9 167 146 311 160 18 322 135 211 201 
327 6 375 238 14 78 456 306 
328 6 11 471 294 509 6 500 
329 9 213 101 124 202 151 81 32 109 165 
330 6 52 163 87 3 51 100 
331 9 344 454 367 411 501 64 453 457 451 
332 8 151 185 134 32 124 246 202 165 
333 9 74 56 172 158 55 125 45 307 24 
334 9 79 190 312 421 67 438 236 239 273 
335 4 498 470 46 427 
336 9 489 127 301 88 319 116 507 281 442 
337 9 359 260 515 250 389 53 474 86 157 
338 9 66 59 441 119 386 500 434 6 359 
339 9 31 169 119 59 153 173 145 221 400 
340 7 407 486 446 431 298 60 364 
341 4 448 90 357 413 
342 6 404 346 353 435 473 82 
343 9 496 413 90 393 415 357 432 341 448 
344 9 411 331 453 457 367 61 416 254 451 
345 8 450 403 391 323 54 262 369 85 
346 4 353 342 396 48 
347 9 48 388 506 513 473 396 504 469 346 
348 8 309 466 118 505 491 17 373 349 
349 4 17 516 475 505 
350 6 193 519 376 494 39 361 
351 4 463 477 419 89 
352 6 205 497 40 261 194 492 
353 4 346 396 342 48 
354 8 7 243 237 240 296 196 487 297 
355 6 464 254 465 412 394 61 
356 6 275 523 286 374 38 514 
357 6 393 90 496 413 341 343 
358 4 385 427 126 46 
359 9 337 260 515 250 386 157 389 395 53 
360 5 503 98 435 82 404 
361 4 392 467 519 39 
362 6 308 148 181 114 68 522 
363 9 34 235 233 84 517 490 274 91 365 
364 5 431 396 513 60 504 
365 8 274 517 363 34 371 235 272 233 
366 4 511 445 70 488 
367 9 451 344 64 70 457 331 453 511 411 
368 4 493 439 25 317 
369 5 259 403 204 85 345 
370 8 293 43 207 206 75 83 270 229 
371 4 272 483 30 365 
372 5 444 30 395 483 157 
373 6 299 468 118 17 505 349 
374 7 286 514 405 428 523 38 479 
375 8 14 78 327 456 238 278 306 425 
376 8 350 494 65 193 390 519 39 417 
377 9 221 400 281 86 180 169 192 208 53 
378 8 194 492 40 205 352 13 497 261 
379 8 401 92 387 433 442 507 276 510 
380 5 382 424 485 147 65 
381 7 429 242 222 16 133 302 150 
382 7 380 65 424 485 147 376 458 
383 4 399 449 42 128 
384 7 518 504 506 513 407 431 48 
385 3 358 46 427 
386 9 500 6 157 434 294 359 395 11 338 
387 6 92 510 379 401 507 397 
388 9 347 473 48 469 506 513 396 504 346 
389 9 250 53 515 260 459 474 86 180 337 
390 8 494 417 39 519 376 458 199 147 
391 9 323 184 450 262 345 139 85 403 54 
392 4 467 361 519 39 
393 7 357 496 343 90 397 413 415 
394 8 464 508 412 465 29 484 425 355 
395 7 157 444 372 386 359 30 294 
396 5 513 506 48 353 364 
397 6 510 393 387 92 507 357 
398 7 419 89 144 477 91 463 455 
399 6 449 383 304 42 503 98 
400 9 221 27 208 173 281 377 169 271 408 
401 7 379 92 387 433 510 442 507 
402 9 44 262 54 139 184 323 391 196 237 
403 7 369 259 345 85 450 204 391 
404 5 435 342 82 346 353 
405 6 374 286 514 523 428 38 
406 9 502 279 177 23 225 159 263 130 219 
407 7 340 486 431 446 60 298 364 
408 9 271 27 173 20 208 200 116 111 400 
409 5 226 42 438 382 128 
410 8 64 420 451 488 70 367 445 511 
411 8 344 61 453 254 457 416 331 367 
412 8 465 394 464 227 254 355 61 416 
413 9 90 343 496 357 393 341 415 432 448 
414 9 72 50 96 228 440 443 132 36 154 
415 9 343 496 393 25 413 90 317 397 357 
416 9 61 453 457 254 411 426 480 344 227 
417 7 199 390 458 147 494 39 376 
418 5 300 499 479 38 428 
419 5 463 351 477 89 398 
420 4 410 64 501 454 
421 7 190 438 67 312 79 226 334 
422 7 209 231 425 29 484 508 495 
423 7 487 512 20 7 354 111 102 
424 7 485 147 458 199 65 380 417 
425 8 508 29 394 209 412 464 465 484 
426 6 480 416 227 453 457 61 
427 7 46 498 126 521 358 385 470 
428 8 479 38 499 514 461 286 300 374 
429 7 242 381 16 133 222 302 316 
430 7 252 484 29 464 508 355 231 
431 7 364 407 486 340 504 60 513 
432 5 413 448 90 343 496 
433 7 379 276 401 442 92 321 387 
434 6 6 500 117 386 294 11 
435 6 82 404 342 360 503 346 
436 9 131 69 277 279 263 264 261 47 179 
437 9 248 253 105 313 168 137 12 149 224 
438 6 226 421 409 79 334 239 
439 6 368 25 493 432 415 343 
440 9 72 228 96 141 452 154 176 36 414 
441 7 66 4 338 59 119 434 292 
442 7 276 379 507 433 92 387 401 
443 4 414 72 132 472 
444 6 395 157 372 30 386 294 
445 5 511 70 366 488 451 
446 7 298 340 486 407 60 447 431 
447 2 298 60 
448 5 341 90 432 413 357 
449 6 399 383 304 98 503 42 
450 8 345 391 403 323 54 262 369 85 
451 9 70 488 367 64 445 511 410 366 331 
452 9 141 154 176 228 316 96 2 440 174 
453 8 457 416 61 411 344 367 426 254 
454 6 501 331 64 344 367 420 
455 7 89 477 463 91 419 351 398 
456 9 238 306 520 327 375 14 78 121 278 
457 8 453 344 416 61 411 367 426 480 
458 7 199 147 417 424 485 390 65 
459 8 474 389 53 321 250 192 180 86 
460 9 62 8 123 284 143 21 5 155 109 
461 5 499 479 428 38 514 
462 6 319 200 116 88 111 317 
463 6 477 89 351 455 419 398 
464 9 394 465 412 508 355 29 484 252 254 
465 8 412 464 394 355 254 227 508 61 
466 7 348 309 118 505 491 17 373 
467 5 392 361 519 39 193 
468 5 299 373 17 349 118 
469 9 388 347 473 48 518 506 504 513 384 
470 5 46 472 335 498 427 
471 4 328 11 294 509 
472 2 470 46 
473 9 388 347 48 469 346 506 513 396 342 
474 9 459 389 250 53 260 337 515 86 321 
475 4 516 349 17 505 
476 9 120 129 266 110 106 26 257 185 202 
477 7 463 89 455 351 419 91 398 
478 9 244 188 297 115 102 63 219 315 249 
479 8 428 499 38 461 300 418 514 286 
480 6 426 227 416 457 453 61 
481 8 100 3 87 305 51 121 214 52 
482 6 166 197 310 5 81 165 
483 4 272 30 371 372 
484 9 29 252 508 430 464 231 394 355 465 
485 6 424 147 458 199 380 65 
486 7 340 407 60 298 446 431 364 
487 6 423 512 20 111 7 354 
488 8 70 451 445 511 64 366 410 367 
489 9 336 127 301 281 442 88 208 276 507 
490 8 233 84 235 34 324 363 132 517 
491 6 309 348 466 505 118 17 
492 8 194 40 378 205 13 497 352 261 
493 3 368 439 25 
494 9 39 519 390 193 376 350 417 467 361 
495 9 73 267 231 290 93 422 41 209 229 
496 9 343 413 90 393 357 415 341 432 448 
497 9 261 13 205 40 277 137 352 492 194 
498 7 46 427 521 335 126 470 358 
499 6 479 428 461 38 418 300 
500 9 6 434 386 294 11 328 338 157 117 
501 7 454 331 420 64 344 367 410 
502 9 406 23 225 219 279 159 177 263 296 
503 5 360 98 435 82 449 
504 7 506 513 48 396 347 431 364 
505 9 17 118 309 348 349 466 475 491 373 
506 7 513 504 48 396 347 388 364 
507 8 92 387 510 397 442 379 401 301 
508 9 29 394 484 464 252 425 465 412 355 
509 2 328 11 
510 5 397 387 92 507 393 
511 5 445 366 70 451 488 
512 9 423 20 487 102 103 145 173 408 27 
513 7 506 504 48 396 347 364 388 
514 8 286 374 428 38 479 405 461 499 
515 9 260 250 53 337 389 86 359 180 474 
516 3 475 349 17 
517 7 235 363 34 274 365 233 84 
518 8 384 469 504 506 513 48 347 388 
519 8 39 494 193 350 361 467 392 390 
520 8 121 306 456 238 3 52 481 327 
521 4 126 427 498 46 
522 5 308 362 148 181 68 
523 8 356 374 286 405 514 275 38 428 
DEPOT_SECTION
   1
   -1
EOF
