NAME :  X-n957-kX-w95-c11.cctp
COMMENT : 	Adapted by Maziero, Usberti and Cavellucci from the Uchoa, Pecin, Pessoa, Poggi, Subramanian, and Vidal (2013)
TYPE :  CCTP
DIMENSION :    616
EDGE_WEIGHT_TYPE : 	EUC_2D	
CAPACITY : 	11
VERTICES_WITHIN_COVERAGE :  11
VERTICES_WITH_DEMAND : 	95
NODE_COORD_SECTION
1 737 450
2 235 789
3 340 234
4 346 320
5 406 309
6 556 636
7 872 923
8 937 83
9 9 321
10 558 18
11 63 833
12 250 509
13 143 192
14 624 286
15 364 117
16 332 953
17 235 142
18 590 430
19 303 692
20 936 665
21 39 410
22 247 581
23 986 739
24 11 283
25 138 747
26 837 511
27 596 206
28 218 339
29 443 922
30 555 133
31 896 306
32 415 752
33 691 216
34 51 0
35 726 19
36 166 333
37 951 932
38 928 807
39 505 590
40 236 284
41 115 882
42 238 887
43 729 26
44 94 697
45 409 899
46 993 715
47 473 607
48 414 55
49 884 327
50 651 407
51 891 372
52 570 733
53 919 529
54 629 220
55 711 630
56 141 492
57 720 382
58 794 51
59 745 451
60 409 990
61 825 781
62 966 938
63 378 175
64 859 269
65 596 131
66 419 557
67 77 908
68 679 268
69 726 860
70 382 728
71 885 15
72 258 313
73 734 905
74 533 912
75 924 636
76 694 621
77 469 223
78 507 707
79 892 168
80 281 800
81 607 285
82 388 354
83 568 781
84 22 348
85 153 579
86 218 236
87 308 904
88 119 154
89 939 105
90 489 374
91 547 736
92 480 1000
93 124 883
94 647 930
95 295 741
96 213 53
97 701 446
98 589 708
99 644 147
100 133 377
101 983 343
102 115 640
103 896 910
104 573 416
105 416 512
106 870 50
107 185 436
108 656 268
109 587 165
110 542 762
111 995 809
112 266 878
113 27 812
114 45 164
115 174 729
116 252 311
117 681 621
118 594 478
119 848 361
120 897 253
121 729 354
122 811 703
123 677 991
124 781 909
125 971 632
126 540 824
127 887 144
128 967 433
129 897 98
130 157 676
131 971 727
132 972 381
133 375 214
134 895 158
135 196 779
136 379 223
137 22 395
138 119 604
139 622 843
140 289 811
141 98 365
142 261 101
143 820 480
144 433 961
145 656 421
146 334 794
147 426 686
148 870 112
149 941 978
150 744 498
151 7 346
152 166 244
153 604 430
154 176 452
155 912 406
156 423 564
157 505 779
158 101 383
159 162 515
160 647 869
161 784 983
162 736 39
163 833 529
164 922 294
165 373 331
166 471 694
167 39 149
168 813 538
169 153 115
170 244 505
171 716 286
172 140 484
173 652 239
174 141 628
175 30 924
176 877 307
177 586 723
178 856 584
179 641 671
180 648 704
181 19 309
182 661 125
183 614 194
184 253 864
185 106 841
186 5 289
187 658 58
188 419 839
189 288 276
190 562 646
191 516 725
192 75 785
193 309 966
194 743 856
195 121 698
196 70 635
197 376 539
198 824 834
199 742 277
200 977 647
201 268 698
202 973 145
203 569 655
204 765 22
205 427 869
206 11 869
207 377 793
208 102 444
209 979 386
210 424 536
211 37 705
212 126 782
213 490 30
214 348 771
215 808 469
216 107 512
217 782 207
218 859 469
219 148 763
220 403 723
221 978 760
222 214 132
223 467 387
224 853 27
225 855 506
226 591 902
227 213 742
228 203 364
229 183 3
230 143 608
231 904 31
232 997 741
233 26 402
234 902 548
235 47 419
236 125 226
237 206 608
238 811 668
239 643 265
240 189 736
241 79 287
242 225 604
243 412 843
244 924 756
245 474 356
246 533 721
247 445 101
248 579 994
249 652 658
250 633 914
251 889 206
252 464 243
253 680 735
254 420 998
255 798 490
256 27 680
257 367 977
258 777 679
259 501 137
260 856 6
261 777 984
262 909 569
263 730 509
264 455 853
265 612 163
266 959 409
267 987 154
268 883 195
269 207 6
270 39 831
271 657 701
272 703 976
273 260 286
274 6 135
275 821 740
276 491 397
277 140 716
278 6 773
279 529 74
280 860 929
281 384 223
282 524 854
283 102 833
284 653 843
285 260 234
286 864 478
287 425 897
288 482 914
289 646 13
290 670 113
291 722 56
292 611 456
293 832 655
294 275 331
295 851 924
296 746 341
297 811 324
298 950 762
299 368 215
300 458 65
301 174 245
302 277 138
303 624 145
304 696 41
305 309 279
306 985 212
307 934 241
308 839 676
309 717 623
310 752 11
311 732 768
312 5 440
313 125 793
314 556 154
315 137 547
316 363 804
317 855 769
318 269 726
319 415 353
320 961 560
321 432 998
322 197 594
323 903 500
324 446 77
325 710 425
326 883 381
327 493 246
328 776 9
329 286 208
330 119 538
331 267 810
332 924 550
333 207 306
334 734 468
335 654 618
336 102 700
337 978 464
338 987 161
339 342 874
340 501 638
341 105 260
342 557 72
343 246 754
344 577 758
345 200 110
346 107 621
347 581 925
348 672 281
349 333 221
350 366 691
351 871 557
352 759 559
353 384 926
354 512 969
355 29 740
356 361 929
357 874 282
358 769 858
359 878 141
360 820 64
361 429 224
362 611 820
363 26 93
364 268 308
365 426 545
366 28 441
367 669 276
368 519 784
369 445 780
370 762 46
371 935 724
372 937 750
373 390 916
374 934 288
375 435 47
376 990 14
377 830 399
378 564 416
379 748 774
380 566 767
381 873 118
382 833 478
383 82 836
384 311 362
385 975 337
386 148 207
387 986 476
388 769 67
389 114 335
390 59 461
391 12 780
392 154 192
393 27 360
394 787 422
395 774 765
396 521 751
397 499 129
398 131 279
399 408 79
400 917 541
401 295 775
402 754 367
403 252 558
404 122 892
405 657 277
406 267 505
407 234 594
408 512 375
409 239 454
410 505 354
411 91 411
412 85 871
413 688 231
414 584 428
415 476 354
416 473 213
417 422 21
418 330 99
419 241 919
420 80 811
421 429 712
422 330 226
423 247 375
424 619 32
425 671 277
426 403 542
427 473 216
428 224 863
429 293 641
430 568 173
431 529 560
432 532 163
433 760 446
434 240 624
435 719 272
436 58 940
437 569 412
438 357 402
439 495 188
440 618 412
441 788 91
442 231 504
443 93 683
444 648 191
445 692 379
446 65 935
447 308 1000
448 750 582
449 588 234
450 488 236
451 566 428
452 177 583
453 246 760
454 233 820
455 98 932
456 378 219
457 381 89
458 355 930
459 235 927
460 458 212
461 228 583
462 481 409
463 250 804
464 209 808
465 275 671
466 170 388
467 692 415
468 405 186
469 514 583
470 208 584
471 280 735
472 492 190
473 125 280
474 306 641
475 163 510
476 325 804
477 634 395
478 277 608
479 354 927
480 582 278
481 113 287
482 93 921
483 501 576
484 479 583
485 74 907
486 88 945
487 540 167
488 619 292
489 678 278
490 410 380
491 447 579
492 596 421
493 711 456
494 333 359
495 225 531
496 320 932
497 566 207
498 238 331
499 671 214
500 389 596
501 408 282
502 186 797
503 407 355
504 184 615
505 226 880
506 252 556
507 637 316
508 494 209
509 123 748
510 405 524
511 500 194
512 290 691
513 16 824
514 664 191
515 482 371
516 508 82
517 478 725
518 115 585
519 461 356
520 630 209
521 643 278
522 215 911
523 270 798
524 139 900
525 212 485
526 84 435
527 608 283
528 613 272
529 275 474
530 229 882
531 253 521
532 63 939
533 622 245
534 656 232
535 277 581
536 253 812
537 454 558
538 397 522
539 660 200
540 574 213
541 688 407
542 475 401
543 131 896
544 606 292
545 623 382
546 321 965
547 437 899
548 643 266
549 242 679
550 592 292
551 398 315
552 333 236
553 460 532
554 267 520
555 237 292
556 0 879
557 568 415
558 644 280
559 299 943
560 282 495
561 642 304
562 410 533
563 699 373
564 320 373
565 266 512
566 661 386
567 504 387
568 599 274
569 649 140
570 715 73
571 583 268
572 182 583
573 751 545
574 325 263
575 587 472
576 331 307
577 621 387
578 656 400
579 120 907
580 260 910
581 632 287
582 473 358
583 44 941
584 323 246
585 183 553
586 293 971
587 171 190
588 146 893
589 244 521
590 340 856
591 596 289
592 599 257
593 391 390
594 602 631
595 448 189
596 530 131
597 242 924
598 452 224
599 254 592
600 477 236
601 150 541
602 125 870
603 594 407
604 501 372
605 634 289
606 608 220
607 618 428
608 47 856
609 562 210
610 708 471
611 212 920
612 448 523
613 320 640
614 616 295
615 249 810
616 347 720
DEMAND_SECTION
2 1
3 1
4 1
5 1
6 1
7 1
8 1
9 1
10 1
11 1
12 1
13 1
14 1
15 1
16 1
17 1
18 1
19 1
20 1
21 1
22 1
23 1
24 1
25 1
26 1
27 1
28 1
29 1
30 1
31 1
32 1
33 1
34 1
35 1
36 1
37 1
38 1
39 1
40 1
41 1
42 1
43 1
44 1
45 1
46 1
47 1
48 1
49 1
50 1
51 1
52 1
53 1
54 1
55 1
56 1
57 1
58 1
59 1
60 1
61 1
62 1
63 1
64 1
65 1
66 1
67 1
68 1
69 1
70 1
71 1
72 1
73 1
74 1
75 1
76 1
77 1
78 1
79 1
80 1
81 1
82 1
83 1
84 1
85 1
86 1
87 1
88 1
89 1
90 1
91 1
92 1
93 1
94 1
95 1
96 1
COVERAGE_SECTION
2 11 463 615 536 453 454 464 523 343 331 135 80 
3 10 552 422 349 584 574 299 133 136 456 281 
4 11 576 165 494 551 82 305 384 564 5 574 503 
5 6 551 501 165 319 503 82 
6 10 190 203 594 340 469 39 98 431 483 78 
7 11 280 295 103 37 149 124 62 198 161 261 358 
8 11 89 129 231 202 148 381 106 127 359 71 134 
9 11 181 151 84 186 24 393 137 241 233 21 141 
10 10 342 279 424 213 516 289 187 300 30 596 
11 10 383 270 420 608 283 113 185 412 513 192 
12 9 170 531 589 565 406 442 554 495 560 
13 11 392 386 587 236 88 152 301 169 341 86 398 
14 11 488 581 605 614 527 81 528 544 521 558 561 
15 11 457 418 399 63 48 468 247 302 324 133 299 
16 11 546 496 193 458 479 559 356 257 586 447 87 
17 11 222 302 345 142 587 329 169 96 285 392 86 
18 11 414 492 153 104 603 451 557 437 607 378 292 
19 11 512 465 201 318 471 95 474 429 616 613 549 
20 11 75 200 125 371 131 46 372 23 244 232 298 
21 10 235 233 137 366 312 393 526 411 390 84 
22 8 599 407 461 403 506 535 242 470 
23 11 232 131 221 46 298 372 371 244 111 20 38 
24 11 186 181 9 151 84 241 393 341 481 137 473 
25 9 509 219 277 212 115 313 195 240 336 
26 11 163 225 382 143 168 286 255 218 215 351 323 
27 8 606 183 540 449 497 520 609 54 
28 11 498 228 333 116 423 72 555 36 40 294 364 
29 10 547 287 144 288 45 373 205 353 264 60 
30 10 314 596 487 432 65 430 109 259 397 342 
31 11 176 49 164 357 374 64 120 51 119 307 326 
32 11 220 70 369 421 207 147 517 214 316 616 350 
33 11 413 499 539 514 534 173 444 68 520 54 108 
34 11 363 229 274 167 169 269 114 88 96 345 222 
35 11 43 162 310 291 304 204 370 328 570 388 58 
36 11 228 333 28 389 100 466 398 473 481 498 141 
37 11 62 149 103 7 280 295 38 111 198 298 124 
38 11 298 244 372 111 221 317 371 23 131 232 61 
39 9 469 483 484 47 431 340 491 537 6 
40 10 555 273 116 72 333 364 498 86 189 285 
41 8 93 404 602 543 579 524 412 588 
42 9 530 505 184 428 112 419 580 522 597 
43 11 35 162 310 291 204 304 370 570 328 388 58 
44 11 336 443 195 277 211 509 102 130 196 25 256 
45 11 287 373 547 205 353 29 243 356 188 458 479 
46 11 23 131 232 221 371 298 372 200 20 244 125 
47 11 484 39 491 340 483 469 537 156 431 66 553 
48 10 375 399 417 324 300 457 247 15 213 418 
49 11 176 31 51 357 119 164 326 64 374 297 120 
50 10 578 145 477 566 440 577 541 545 607 467 
51 11 326 155 119 49 31 176 377 266 132 164 209 
52 11 177 91 344 98 380 246 110 83 396 191 78 
53 11 400 332 234 323 262 320 351 225 286 26 178 
54 11 520 606 533 173 183 534 444 27 539 499 449 
55 11 309 76 117 335 448 249 179 258 352 271 573 
56 8 172 475 159 216 601 330 154 315 
57 8 563 445 121 402 541 467 325 296 
58 11 360 388 370 441 204 328 310 162 224 43 291 
59 9 433 334 493 610 97 325 150 394 263 
60 11 254 321 144 257 353 92 29 373 356 458 479 
61 11 317 275 198 395 379 122 311 358 244 38 308 
62 11 37 149 103 7 280 295 111 38 198 298 221 
63 9 468 133 299 456 136 281 15 349 3 
64 11 357 120 176 31 49 164 251 297 374 268 307 
65 11 303 109 265 30 314 430 99 569 182 183 596 
66 11 156 365 210 426 562 537 491 510 538 105 612 
67 10 485 482 446 455 532 436 412 486 579 41 
68 10 489 425 367 348 108 405 239 548 521 558 
69 11 194 358 73 124 284 160 379 311 198 139 94 
70 10 220 616 350 32 421 214 147 207 316 146 
71 11 231 260 224 106 360 129 8 58 148 381 89 
72 10 116 364 294 273 498 555 40 28 189 333 
73 11 69 124 194 358 272 261 94 161 160 250 284 
74 10 347 288 226 282 354 126 29 248 547 264 
75 11 20 125 200 262 320 178 332 371 234 293 308 
76 9 117 55 309 335 249 448 179 271 352 
77 11 427 416 600 460 598 252 450 508 327 361 472 
78 11 191 246 517 166 396 91 110 52 340 157 368 
79 11 134 127 268 359 251 381 148 129 89 202 307 
80 11 523 140 331 401 536 463 615 476 2 454 146 
81 11 527 544 591 614 488 528 568 14 550 581 480 
82 9 503 165 319 490 593 551 5 4 494 
83 11 380 344 110 52 368 91 126 396 362 177 157 
84 11 393 151 9 181 137 233 186 21 24 235 141 
85 11 452 572 230 315 518 601 585 138 322 504 174 
86 9 285 301 40 152 555 273 587 333 329 
87 11 496 559 339 580 112 479 458 16 590 356 193 
88 11 13 169 392 386 587 236 114 167 345 222 152 
89 11 8 129 202 127 381 134 148 267 359 338 79 
90 11 515 604 567 245 276 408 582 415 223 410 542 
91 11 246 52 110 396 191 380 344 177 78 83 98 
92 11 354 321 254 144 60 29 288 248 74 547 257 
93 7 41 404 602 543 524 579 588 
94 11 250 160 226 347 123 272 284 73 139 248 69 
95 11 471 318 401 19 512 201 343 453 616 80 214 
96 11 269 229 345 142 222 169 17 302 418 88 587 
97 8 493 325 610 467 334 541 59 145 
98 11 177 52 91 344 203 246 180 380 179 190 271 
99 11 569 303 182 265 290 444 514 65 539 183 109 
100 8 158 141 466 389 411 36 228 208 
101 11 385 132 209 266 374 164 128 31 155 51 49 
102 10 346 174 138 230 196 443 130 518 195 44 
103 11 7 280 295 37 62 149 198 38 124 161 358 
104 8 557 437 378 451 414 18 603 492 
105 10 510 538 562 210 426 365 612 66 197 553 
106 11 224 71 231 260 360 129 148 381 8 58 89 
107 6 154 466 525 409 172 56 
108 10 405 239 548 367 521 425 558 348 68 489 
109 11 430 265 314 65 183 27 303 30 487 497 540 
110 10 396 380 91 83 368 344 52 157 246 191 
111 11 221 298 38 232 23 372 131 244 46 371 37 
112 9 184 42 580 530 505 428 419 87 597 
113 11 513 270 391 11 278 608 420 192 206 383 355 
114 11 167 274 363 88 236 13 386 341 392 169 24 
115 9 240 277 25 227 219 509 135 130 195 
116 10 72 364 498 555 273 294 40 28 333 189 
117 9 76 335 55 309 249 179 448 594 271 
118 5 575 292 18 153 414 
119 11 326 377 51 49 297 176 31 155 357 394 64 
120 10 357 307 64 164 251 374 31 176 268 49 
121 5 296 402 57 563 445 
122 11 238 275 308 258 293 395 61 317 379 311 309 
123 11 272 94 250 248 261 73 161 347 226 160 124 
124 11 73 358 194 295 69 161 261 280 198 7 272 
125 11 200 75 20 320 46 262 131 332 371 400 23 
126 6 282 368 83 157 110 380 
127 11 359 134 79 381 148 129 268 251 89 8 202 
128 11 266 337 387 209 132 155 101 323 385 51 326 
129 11 148 381 8 89 127 359 106 134 231 79 71 
130 9 195 277 174 102 115 336 443 44 504 
131 11 23 46 232 221 371 298 372 244 20 200 111 
132 11 209 266 101 385 128 155 51 337 326 387 164 
133 9 456 299 136 281 63 3 468 349 422 
134 11 79 127 359 268 381 251 148 129 89 202 8 
135 9 502 464 2 227 240 219 453 115 454 
136 8 456 281 133 299 3 468 349 63 
137 11 233 21 235 393 366 84 312 151 411 526 9 
138 10 518 346 230 174 102 85 196 315 452 330 
139 11 362 284 160 226 250 83 126 94 347 380 344 
140 11 80 331 523 401 536 476 463 615 146 454 2 
141 10 158 389 100 411 393 526 21 235 36 466 
142 11 302 17 222 345 96 418 15 169 269 329 457 
143 11 382 215 255 26 218 225 286 163 168 394 433 
144 11 321 60 254 29 353 92 373 547 287 45 257 
145 10 50 578 477 541 566 467 440 607 577 97 
146 10 476 214 316 207 401 140 80 590 523 95 
147 8 421 220 166 350 70 517 32 78 
148 11 381 129 359 127 134 79 106 89 360 8 268 
149 11 37 62 103 7 280 295 161 261 38 124 111 
150 9 263 334 610 59 573 493 433 255 352 
151 11 84 393 9 181 137 186 233 24 21 235 141 
152 11 301 386 236 398 86 392 587 473 13 341 481 
153 11 492 18 607 414 440 603 292 104 451 437 557 
154 6 107 172 525 56 475 409 
155 11 326 51 266 128 132 209 119 218 377 49 286 
156 11 66 365 210 491 426 537 562 510 500 612 538 
157 6 368 396 110 191 126 91 
158 10 141 411 100 389 526 208 235 21 466 233 
159 6 475 601 56 172 315 585 
160 11 284 139 250 94 362 226 69 347 73 194 126 
161 11 261 124 272 295 73 280 7 123 358 194 103 
162 11 43 35 291 370 310 204 304 570 388 328 58 
163 11 26 168 225 351 143 382 255 178 286 215 218 
164 10 374 31 176 120 357 49 307 64 385 101 
165 11 82 4 551 5 503 319 576 494 501 490 593 
166 10 517 78 147 421 191 340 246 220 396 32 
167 11 114 274 363 88 13 236 169 386 392 341 24 
168 11 163 26 255 225 143 352 351 573 178 382 215 
169 11 345 88 222 392 587 13 17 96 386 142 236 
170 9 12 442 589 531 406 565 554 495 525 
171 7 435 199 489 68 348 425 367 
172 9 56 475 159 216 154 208 330 601 315 
173 11 534 239 548 108 54 499 533 413 520 405 68 
174 10 230 102 138 346 504 85 518 130 452 572 
175 10 583 436 532 446 485 67 556 206 486 482 
176 11 31 49 357 64 164 120 374 119 51 297 326 
177 11 98 52 344 91 380 246 110 83 180 191 203 
178 11 351 262 234 163 168 26 293 400 332 225 53 
179 11 249 180 271 335 594 98 117 76 203 253 177 
180 11 271 179 253 249 98 177 52 335 594 117 344 
181 11 9 186 24 84 151 393 241 137 233 141 481 
182 10 290 569 99 303 265 65 514 187 444 539 
183 11 27 520 606 54 265 444 109 540 539 449 303 
184 7 112 42 428 530 505 580 454 
185 8 283 383 602 412 420 41 11 93 
186 11 24 181 9 151 84 241 393 341 137 481 233 
187 10 304 289 424 290 570 291 182 35 43 162 
188 9 243 205 264 287 45 207 547 369 316 
189 8 305 273 364 574 584 72 116 285 
190 11 203 6 594 340 98 469 39 246 177 78 179 
191 11 246 78 396 91 517 110 52 157 166 368 380 
192 10 420 11 212 313 383 113 283 270 509 391 
193 9 546 586 559 16 447 496 458 257 479 
194 11 69 358 73 124 379 198 311 284 395 160 61 
195 9 336 277 44 443 130 509 25 102 115 
196 10 346 102 443 138 256 44 518 174 336 211 
197 6 426 538 510 562 66 105 
198 11 61 358 317 194 395 124 275 295 379 7 69 
199 7 435 171 68 296 489 348 413 
200 11 125 20 75 46 131 320 371 23 232 262 372 
201 10 512 318 465 549 19 471 95 343 429 453 
202 9 267 338 89 306 8 134 79 127 129 
203 11 190 6 594 98 177 340 179 246 52 78 249 
204 11 310 328 370 162 43 35 58 388 291 360 570 
205 10 287 243 188 264 547 45 29 373 288 353 
206 11 556 608 513 270 175 113 11 412 485 67 383 
207 10 316 214 146 476 32 243 188 70 369 590 
208 8 526 411 390 172 235 158 56 216 
209 11 132 266 101 128 385 155 337 51 387 326 164 
210 11 365 562 66 426 510 105 612 156 538 553 537 
211 10 256 355 44 443 336 278 196 391 195 192 
212 6 313 219 509 25 192 420 
213 10 300 516 375 279 324 10 417 342 48 247 
214 10 146 207 316 476 616 401 70 95 32 140 
215 11 143 255 382 26 218 394 433 286 225 163 59 
216 6 330 56 172 315 601 159 
217 10 199 33 435 413 64 268 171 251 499 359 
218 11 286 382 225 143 26 215 323 163 255 377 155 
219 8 25 212 509 313 115 277 240 135 
220 10 70 421 32 147 350 616 369 214 166 207 
221 11 23 232 298 131 372 46 111 244 371 38 20 
222 11 17 345 142 169 302 587 96 392 13 88 386 
223 8 542 515 90 276 462 582 245 519 
224 11 260 106 71 360 231 58 328 129 148 204 441 
225 11 26 286 163 382 218 143 323 168 351 255 215 
226 11 347 250 74 94 160 139 282 362 284 126 248 
227 9 240 343 453 115 135 2 318 502 464 
228 7 28 466 423 36 498 333 100 
229 11 269 96 345 169 142 34 222 17 88 302 418 
230 10 174 138 85 518 346 452 504 102 572 322 
231 11 71 106 224 260 8 129 89 148 376 360 381 
232 11 23 46 221 131 298 372 371 111 244 38 200 
233 11 137 21 235 366 393 312 84 151 411 526 390 
234 11 400 262 332 53 351 323 178 320 225 163 26 
235 10 21 233 366 137 526 390 411 312 208 393 
236 11 386 13 341 152 392 301 398 473 587 481 88 
237 10 322 242 504 470 407 461 572 434 452 22 
238 11 293 308 122 258 275 178 309 395 448 55 317 
239 10 548 108 521 558 405 581 605 14 173 367 
240 9 115 227 135 219 25 277 343 502 453 
241 11 481 341 473 398 389 181 24 186 236 9 141 
242 10 407 237 461 434 470 322 599 22 504 572 
243 9 188 205 264 45 287 207 547 316 369 
244 11 372 298 371 38 221 131 23 317 232 46 111 
245 8 582 415 519 515 90 410 604 223 
246 11 191 91 78 396 52 110 177 517 98 344 380 
247 8 324 300 399 48 375 397 457 516 
248 11 347 354 94 226 74 250 123 92 272 288 160 
249 11 179 335 271 180 117 76 594 55 309 98 253 
250 11 94 226 160 347 139 284 123 272 248 362 74 
251 10 268 79 120 134 307 127 359 64 357 381 
252 8 600 77 598 450 427 327 416 460 
253 11 271 180 311 179 379 249 98 177 395 344 55 
254 11 321 60 144 257 92 29 353 373 356 458 354 
255 11 215 143 382 26 168 163 150 433 225 218 59 
256 9 211 355 196 443 44 336 278 195 102 
257 11 16 60 356 546 458 479 353 254 193 447 373 
258 11 238 122 293 308 275 55 309 395 379 311 76 
259 6 397 596 432 487 439 30 
260 11 224 71 106 231 360 58 328 204 129 370 310 
261 11 161 272 124 73 295 123 280 7 358 194 69 
262 11 234 332 400 351 53 320 178 75 323 225 163 
263 7 150 334 573 610 493 352 59 
264 7 205 188 243 547 287 45 288 
265 11 303 109 183 65 99 569 430 27 444 520 314 
266 11 128 209 132 155 337 101 387 385 51 326 323 
267 9 338 202 306 89 8 134 79 127 307 
268 10 251 79 134 127 359 120 307 64 381 148 
269 11 229 96 345 142 169 222 17 302 418 34 88 
270 11 113 11 513 608 383 420 206 192 391 412 556 
271 11 180 179 253 249 98 177 335 117 76 55 594 
272 11 123 94 261 73 161 250 124 69 160 248 194 
273 8 364 40 555 116 72 189 294 305 
274 11 167 363 114 88 34 13 24 169 236 186 341 
275 11 122 61 317 395 308 238 258 379 293 311 198 
276 7 462 542 567 90 223 604 515 
277 10 195 25 115 509 336 130 219 44 240 443 
278 11 391 355 113 513 270 192 211 11 420 608 256 
279 9 516 342 596 213 10 397 30 259 300 
280 11 295 7 103 124 37 161 149 261 198 62 358 
281 8 136 456 133 299 468 3 361 63 
282 5 126 74 264 368 288 
283 8 185 383 420 11 412 602 313 41 
284 11 160 139 362 250 69 226 94 194 73 83 311 
285 8 329 86 189 273 40 555 584 305 
286 11 218 225 382 26 143 323 215 163 255 53 168 
287 10 547 45 205 29 373 353 264 243 188 288 
288 10 29 547 74 287 354 264 144 205 282 45 
289 10 424 187 304 35 43 291 10 570 162 290 
290 10 182 569 99 187 303 570 65 265 291 304 
291 10 570 162 304 43 35 370 388 310 204 187 
292 8 153 118 575 607 18 492 414 440 
293 11 308 238 122 258 178 275 75 20 351 448 262 
294 11 364 72 116 498 273 384 423 555 189 28 40 
295 11 280 7 103 124 161 198 261 37 149 358 62 
296 6 121 402 57 563 171 199 
297 9 119 296 176 402 49 64 357 377 199 
298 11 372 244 221 131 371 23 38 232 46 111 317 
299 9 133 456 136 281 3 349 422 63 552 
300 10 324 375 247 48 213 399 516 417 279 397 
301 11 152 86 386 236 398 587 392 473 13 333 341 
302 11 142 17 222 418 329 345 15 285 349 422 96 
303 11 99 265 569 65 109 182 183 444 290 514 430 
304 10 291 43 35 570 162 187 289 310 370 204 
305 8 189 574 576 584 273 552 364 3 
306 9 338 267 307 202 374 251 120 79 164 
307 9 120 374 164 251 306 268 357 31 64 
308 11 293 238 122 258 275 75 178 317 20 61 371 
309 11 55 76 117 448 335 249 352 258 573 179 271 
310 11 204 328 35 43 162 370 291 58 388 304 570 
311 11 379 395 253 194 69 275 61 358 258 271 122 
312 9 366 233 21 235 137 390 526 393 411 
313 7 212 219 509 283 25 420 192 
314 9 30 487 430 432 109 596 65 497 609 
315 10 601 330 85 159 518 475 216 585 452 56 
316 10 207 146 214 476 590 243 188 339 32 140 
317 11 61 275 244 198 122 395 38 372 371 308 298 
318 11 471 201 95 343 453 512 19 549 401 465 227 
319 7 503 82 490 551 593 5 519 
320 11 332 400 53 262 234 125 323 75 200 387 351 
321 11 254 60 144 92 257 29 354 353 373 288 356 
322 10 470 237 572 452 504 242 461 407 585 85 
323 11 53 400 286 225 234 218 332 351 26 262 382 
324 9 300 247 375 399 48 417 516 213 457 
325 9 467 97 541 493 57 59 610 334 445 
326 11 51 155 119 49 377 176 31 266 132 218 297 
327 4 450 600 252 77 
328 11 204 310 370 58 43 162 35 388 360 291 224 
329 8 285 422 349 584 552 3 574 189 
330 8 315 216 601 518 159 56 475 85 
331 10 523 536 80 463 615 140 454 2 401 453 
332 11 400 53 234 262 320 351 323 178 225 75 163 
333 11 555 28 40 498 116 36 72 273 228 364 301 
334 9 59 493 610 150 433 97 263 325 255 
335 9 117 76 249 594 179 55 309 271 180 
336 11 44 195 443 277 509 25 130 102 211 196 115 
337 11 387 128 266 209 132 323 53 155 320 400 332 
338 9 267 202 306 89 134 8 79 307 127 
339 10 590 87 479 458 356 496 373 353 45 476 
340 11 47 39 6 469 484 190 483 166 78 203 491 
341 11 473 481 398 241 236 152 386 301 389 13 392 
342 10 279 516 10 30 596 65 424 213 397 314 
343 11 453 227 318 2 471 463 523 95 401 135 615 
344 11 380 83 52 110 177 91 98 396 246 368 191 
345 11 222 17 169 96 142 302 587 88 392 13 269 
346 8 102 138 174 518 230 196 85 443 
347 11 226 74 250 94 248 354 160 282 139 288 126 
348 10 425 367 489 68 405 108 558 521 239 548 
349 10 422 3 552 584 299 133 574 456 136 329 
350 7 616 70 220 147 19 421 613 
351 11 178 234 262 163 400 225 332 53 26 168 323 
352 11 573 448 168 263 150 309 255 163 55 76 26 
353 11 373 356 458 479 45 287 257 16 29 547 144 
354 11 92 74 288 248 144 347 29 321 254 547 226 
355 11 211 278 391 256 192 113 44 336 513 443 420 
356 11 458 479 353 373 16 496 257 546 45 339 87 
357 11 64 176 31 120 49 164 374 307 297 251 119 
358 11 194 69 124 73 198 379 395 61 311 295 280 
359 11 127 134 381 79 148 129 268 251 89 8 106 
360 11 58 441 224 388 106 370 260 148 204 328 381 
361 8 598 460 77 252 595 281 416 427 
362 11 139 284 83 160 380 126 344 226 110 282 52 
363 11 274 167 114 34 88 169 13 392 236 386 587 
364 9 72 116 273 294 555 189 498 40 305 
365 11 210 66 156 562 426 510 537 612 105 553 538 
366 9 312 235 21 390 233 137 526 411 208 
367 10 425 348 489 405 68 108 558 521 239 548 
368 6 157 110 396 126 83 380 
369 6 32 157 188 517 207 421 
370 11 388 204 162 58 310 43 328 291 35 441 570 
371 11 372 244 131 298 23 221 20 46 232 38 200 
372 11 244 298 371 131 221 23 38 232 46 111 317 
373 11 353 45 356 458 479 287 547 29 205 144 339 
374 10 164 31 307 120 176 357 49 385 101 64 
375 10 48 300 417 324 399 247 213 457 516 279 
376 11 8 231 89 71 106 129 202 260 224 267 338 
377 11 119 394 326 51 215 218 297 382 143 155 402 
378 7 557 437 104 451 414 18 603 
379 11 311 395 61 253 275 194 358 69 122 198 258 
380 11 83 344 110 52 91 177 396 368 246 157 98 
381 11 148 359 127 129 134 79 89 106 8 360 268 
382 11 143 215 218 286 26 225 255 163 168 394 323 
383 10 11 283 185 420 412 608 270 192 602 41 
384 9 564 494 294 4 576 438 423 165 364 
385 11 101 132 209 374 164 266 31 51 49 155 128 
386 11 13 392 587 236 152 301 88 341 398 86 473 
387 11 337 128 266 53 323 320 209 400 132 332 155 
388 11 370 58 441 162 204 291 360 570 43 328 310 
389 11 141 100 481 158 36 473 241 398 341 466 411 
390 7 526 366 235 208 21 312 411 
391 11 278 113 355 513 270 192 11 420 211 608 206 
392 11 13 386 587 236 88 152 301 169 86 341 222 
393 11 84 151 137 233 9 21 181 235 141 186 158 
394 11 433 377 59 215 402 143 255 334 382 325 57 
395 11 379 311 61 275 122 317 198 258 358 194 253 
396 9 110 191 91 157 246 368 78 380 517 
397 6 259 596 432 516 30 487 
398 11 473 481 341 152 236 241 301 389 36 386 333 
399 9 48 457 324 375 247 300 15 417 418 
400 11 332 53 234 262 323 320 351 225 178 286 26 
401 11 80 95 523 140 476 146 471 331 453 214 343 
402 6 296 121 57 563 445 394 
403 5 506 22 535 599 461 
404 7 93 543 41 579 524 602 588 
405 10 108 367 558 425 521 348 239 548 489 68 
406 7 565 554 12 560 531 170 589 
407 10 242 461 22 599 470 237 434 322 403 506 
408 6 604 567 410 90 276 515 
409 5 525 529 170 442 12 
410 6 604 408 90 415 515 245 
411 9 526 158 208 235 141 21 100 390 233 
412 11 41 383 185 67 485 602 93 608 283 404 11 
413 11 33 499 534 173 68 539 514 489 108 367 425 
414 10 18 492 104 451 153 557 437 378 603 607 
415 8 245 582 519 515 90 410 604 223 
416 11 427 77 460 508 600 598 450 472 252 439 511 
417 10 375 48 300 399 324 213 457 247 516 15 
418 11 15 457 302 142 399 63 48 17 247 468 375 
419 8 597 459 580 522 611 42 530 505 
420 10 383 192 11 283 185 270 313 113 212 608 
421 9 147 220 32 166 70 517 350 369 78 
422 10 349 552 3 584 574 299 133 329 136 456 
423 7 228 498 28 294 72 116 384 
424 10 289 187 10 342 304 290 279 65 182 570 
425 10 367 348 489 68 405 108 558 521 239 548 
426 10 562 510 538 66 210 365 197 156 105 612 
427 11 416 77 460 600 508 598 450 252 472 511 327 
428 4 505 530 42 184 
429 7 474 613 465 478 512 19 434 
430 10 109 314 487 497 432 609 540 30 27 265 
431 4 469 483 39 484 
432 9 487 314 596 430 30 259 439 511 397 
433 10 59 334 394 493 215 150 325 255 610 97 
434 10 242 407 599 237 478 461 22 470 322 549 
435 8 171 199 68 489 348 425 367 413 
436 9 532 446 583 486 175 67 485 482 455 
437 7 557 104 378 451 414 603 18 
438 6 593 564 494 82 490 384 
439 7 472 511 508 416 427 77 460 
440 10 607 153 477 492 577 603 545 18 50 414 
441 11 388 58 360 370 204 162 291 570 328 148 43 
442 8 170 12 589 525 495 531 406 565 
443 10 44 336 195 102 196 277 211 130 346 256 
444 11 539 514 520 499 183 54 534 99 265 173 606 
445 6 563 57 541 566 467 578 
446 9 532 436 583 486 485 67 482 455 175 
447 7 586 193 546 16 559 257 496 
448 11 352 573 309 55 76 263 168 117 150 163 258 
449 4 606 540 592 27 
450 7 327 600 77 252 427 416 508 
451 7 378 557 104 437 414 18 492 
452 9 572 322 85 470 585 504 237 230 601 
453 11 343 2 227 318 471 463 523 615 401 536 80 
454 6 615 536 463 464 2 331 
455 7 482 486 67 446 579 485 532 
456 9 136 133 281 299 3 468 63 349 552 
457 11 399 15 48 418 247 324 375 417 300 63 468 
458 11 479 356 353 16 496 373 257 546 87 339 559 
459 6 597 419 611 522 580 42 
460 11 598 416 77 427 595 361 600 252 508 450 472 
461 10 407 22 470 242 599 237 322 403 506 434 
462 5 542 276 223 567 90 
463 10 615 536 331 2 523 454 80 140 464 453 
464 6 502 454 2 135 615 463 
465 9 512 201 549 19 429 474 318 613 434 
466 7 100 228 107 36 154 28 158 
467 11 541 325 97 145 445 578 50 566 57 563 493 
468 9 63 133 281 456 595 136 361 299 460 
469 8 39 483 431 484 47 340 537 491 
470 10 322 461 237 242 572 407 452 22 504 585 
471 11 318 95 201 343 453 401 512 19 465 523 80 
472 7 439 511 508 416 427 77 460 
473 11 398 481 341 241 236 152 389 301 36 386 333 
474 6 429 613 465 478 19 512 
475 6 159 56 601 172 315 585 
476 10 146 140 316 214 401 80 207 590 523 331 
477 7 577 545 50 440 578 566 145 
478 6 535 599 429 22 434 474 
479 11 458 356 353 16 496 373 546 87 257 339 559 
480 7 571 550 568 591 81 527 592 
481 11 473 398 341 241 389 236 152 36 301 141 386 
482 8 455 67 485 486 579 446 532 436 
483 8 39 469 484 431 47 537 491 553 
484 10 483 47 39 491 469 537 553 431 156 340 
485 11 67 482 446 532 455 436 412 486 583 579 175 
486 7 455 446 482 532 436 67 485 
487 9 432 314 430 30 596 109 497 511 609 
488 11 614 14 544 81 527 581 605 528 591 561 550 
489 10 348 425 367 68 405 108 558 521 239 548 
490 4 593 503 319 82 
491 11 537 156 484 66 47 365 210 553 483 612 426 
492 11 18 153 414 603 607 104 440 437 557 451 378 
493 8 97 610 334 325 59 467 433 150 
494 9 564 384 4 165 438 576 82 294 593 
495 5 589 442 531 170 12 
496 10 16 559 87 546 479 458 193 356 586 339 
497 5 609 540 27 430 449 
498 11 28 116 72 294 364 555 333 423 40 228 273 
499 11 539 33 534 413 514 173 444 520 54 68 108 
500 3 156 66 426 
501 4 5 551 165 361 
502 4 135 464 2 219 
503 7 319 82 490 593 551 165 5 
504 10 237 322 572 452 470 230 242 174 85 407 
505 5 530 42 428 184 522 
506 5 403 22 531 535 461 
507 6 561 605 581 488 614 14 
508 8 511 472 416 439 427 450 77 600 
509 9 25 219 212 277 313 195 336 115 44 
510 10 538 562 105 426 210 365 197 66 612 156 
511 6 439 472 508 416 427 77 
512 11 19 201 465 318 471 549 95 429 474 613 616 
513 11 113 270 391 206 608 11 278 556 420 383 192 
514 11 539 444 499 33 520 534 54 413 99 173 183 
515 10 90 582 245 415 604 223 519 567 276 410 
516 10 279 397 342 300 596 213 259 324 247 30 
517 9 166 78 191 396 421 246 157 369 147 
518 9 138 230 346 85 315 330 174 102 601 
519 6 582 245 415 515 223 90 
520 11 54 183 444 606 539 27 534 173 533 514 499 
521 10 558 548 239 405 581 605 108 14 367 561 
522 7 611 459 419 597 530 42 505 
523 11 80 331 463 536 140 615 401 2 454 453 343 
524 5 543 588 404 579 93 
525 5 442 170 409 12 495 
526 8 208 411 390 235 21 158 366 233 
527 11 81 544 528 568 591 488 614 14 550 581 480 
528 11 527 81 568 14 488 544 592 614 581 591 605 
529 5 560 406 565 409 12 
530 6 505 42 428 184 522 112 
531 8 589 12 554 565 170 406 442 495 
532 9 446 436 583 486 67 485 482 175 455 
533 9 54 592 528 239 606 548 173 449 534 
534 11 173 499 54 413 539 239 520 108 533 548 33 
535 4 599 478 22 403 
536 9 615 463 331 454 523 2 80 140 464 
537 11 491 553 365 156 66 484 612 210 483 562 47 
538 8 510 562 105 426 197 210 365 66 
539 11 514 444 499 520 534 33 54 173 413 183 99 
540 4 497 609 27 449 
541 10 467 325 445 578 566 145 563 50 57 97 
542 6 462 223 276 90 515 567 
543 7 524 404 93 588 579 41 602 
544 11 81 527 591 614 488 550 14 568 528 581 480 
545 5 577 477 440 50 566 
546 10 193 16 586 559 496 447 257 458 479 356 
547 10 287 29 45 205 288 264 373 353 243 144 
548 10 239 521 108 558 405 581 605 14 173 367 
549 9 201 465 512 318 434 19 429 471 227 
550 10 591 544 81 480 527 568 614 571 488 528 
551 7 5 165 501 82 503 319 4 
552 9 3 422 584 349 574 299 133 136 456 
553 9 612 537 210 365 66 105 156 491 562 
554 6 565 531 406 12 589 170 
555 11 40 116 273 72 333 364 498 28 189 294 86 
556 11 206 608 175 513 270 113 583 11 485 67 436 
557 7 437 378 104 451 414 18 603 
558 10 521 405 605 548 581 239 108 14 561 367 
559 8 496 193 586 546 16 87 580 458 
560 5 406 529 565 554 12 
561 9 507 605 581 558 14 488 521 614 405 
562 10 510 426 210 538 365 105 66 156 197 612 
563 6 445 57 121 541 566 467 
564 8 384 494 438 4 294 576 165 82 
565 7 406 554 12 531 170 560 589 
566 5 578 50 477 445 541 
567 6 408 604 276 90 515 462 
568 9 527 81 528 591 480 571 592 544 550 
569 10 99 182 303 290 265 444 514 65 539 183 
570 10 291 304 162 43 370 388 35 187 290 204 
571 7 480 568 592 591 550 81 527 
572 9 452 322 470 85 585 504 237 230 461 
573 11 352 448 263 150 168 255 334 163 309 610 26 
574 8 584 305 552 3 422 189 349 576 
575 6 118 292 18 414 153 451 
576 10 4 305 574 165 494 189 384 294 584 364 
577 5 545 477 440 603 50 
578 9 50 566 145 477 541 577 545 467 440 
579 7 404 543 524 93 41 482 588 
580 9 419 597 459 42 112 530 505 522 184 
581 10 605 14 488 521 558 614 561 527 528 548 
582 7 245 415 519 515 90 223 604 
583 9 436 532 175 446 486 485 67 482 455 
584 8 552 574 3 422 349 305 189 329 
585 5 572 452 601 85 470 
586 7 193 546 559 447 16 496 87 
587 11 392 13 386 152 301 236 88 86 222 169 17 
588 4 524 543 93 404 
589 8 531 12 170 442 495 554 565 406 
590 10 339 476 316 87 146 140 479 207 243 356 
591 11 550 544 81 527 568 480 614 488 528 571 14 
592 8 568 571 528 449 533 480 527 81 
593 5 490 82 438 503 319 
594 8 203 190 6 335 179 249 98 117 
595 10 460 416 598 427 77 361 468 472 439 508 
596 8 30 259 397 432 314 487 516 279 
597 6 419 459 580 522 611 42 
598 9 460 77 252 427 361 416 600 595 450 
599 9 22 407 535 461 478 242 403 434 506 
600 9 450 77 252 327 427 416 598 460 508 
601 7 315 159 330 475 585 85 56 
602 9 93 41 404 543 588 524 185 579 412 
603 9 492 18 104 414 153 437 440 557 378 
604 8 408 90 567 410 515 276 245 415 
605 10 581 14 558 521 488 561 614 548 239 405 
606 8 27 54 449 520 183 533 540 592 
607 11 153 440 492 18 292 603 414 477 50 145 577 
608 11 270 11 206 383 412 513 113 556 420 485 67 
609 3 497 540 27 
610 6 493 97 334 59 263 150 
611 6 522 459 419 597 42 505 
612 10 553 210 365 105 537 562 510 66 156 426 
613 4 474 429 478 19 
614 11 488 544 14 81 527 581 605 591 528 550 568 
615 9 536 463 331 454 523 2 80 140 464 
616 11 350 70 214 19 95 220 512 471 32 146 401 
DEPOT_SECTION
   1
   -1
EOF
